{
  "AcquisitionMatrixPE": 80,
  "AcquisitionNumber": 1,
  "AcquisitionTime": "10:02:38.147500",
  "BandwidthPerPixelPhaseEncode": 44.643,
  "BaseResolution": 80,
  "BodyPartExamined": "BRAIN",
  "CoilCombinationMethod": "Sum of Squares",
  "ConsistencyInfo": "N4_VE11C_LATEST_20160120",
  "ConversionSoftware": "dcm2niix",
  "ConversionSoftwareVersion": "v1.0.20220720",
  "DerivedVendorReportedEchoSpacing": 0.000559998,
  "DeviceSerialNumber": "66112",
  "DwellTime": 2.7e-06,
  "EchoTime": 0.035,
  "EchoTrainLength": 39,
  "EffectiveEchoSpacing": 0.000279999,
  "FlipAngle": 90,
  "HeudiconvVersion": "0.13.1",
  "ImageOrientationPatientDICOM": [0.999953, 0.00769297, 0.00585522, -0.00907554, 0.955672, 0.294293],
  "ImageOrientationText": "Tra>Cor(17.1)>Sag(0.2)",
  "ImageType": [
    "ORIGINAL",
    "PRIMARY",
    "M",
    "ND",
    "NORM",
    "MOSAIC"
],
  "ImagingFrequency": 123.252,
  "InPlanePhaseEncodingDirectionDICOM": "COL",
  "InstitutionAddress": "Maynard 3,Hanover,NH,US,03755",
  "InstitutionName": "Dartmouth College - PBS",
  "InstitutionalDepartmentName": "Department",
  "MRAcquisitionType": "2D",
  "MagneticFieldStrength": 3,
  "Manufacturer": "Siemens",
  "ManufacturersModelName": "Prisma",
  "Modality": "MR",
  "MultibandAccelerationFactor": 4,
  "NonlinearGradientCorrection": false,
  "ParallelReductionFactorInPlane": 2,
  "PartialFourier": 1,
  "PatientPosition": "HFS",
  "PercentPhaseFOV": 100,
  "PercentSampling": 100,
  "PhaseEncodingDirection": "j-",
  "PhaseEncodingSteps": 79,
  "PhaseResolution": 1,
  "PixelBandwidth": 2315,
  "ProcedureStepDescription": "dbic^QA",
  "ProtocolName": "func-bold_task-rest_acq-p2-s4-3.5mm",
  "PulseSequenceDetails": "%SiemensSeq%\\ep2d_bold",
  "ReceiveCoilActiveElements": "HEA;HEP",
  "ReceiveCoilName": "Head_32",
  "ReconMatrixPE": 80,
  "RefLinesPE": 24,
  "RepetitionTime": 2,
  "SAR": 0.0209523,
  "ScanOptions": "FS",
  "ScanningSequence": "EP",
  "SequenceName": "*epfid2d1_80",
  "SequenceVariant": "SK",
  "SeriesDescription": "func-bold_task-rest_acq-p2-s4-3.5mm",
  "SeriesNumber": 7,
  "ShimSetting": [4145, -7690, -7509, 259, -52, -168, -15, 69],
  "SliceThickness": 3.5,
  "SliceTiming": [1.485, 0, 0.99, 0.2475, 1.2375, 0.7425, 1.7325, 0.495, 1.485, 0, 0.99, 0.2475, 1.2375, 0.7425, 1.7325, 0.495, 1.485, 0, 0.99, 0.2475, 1.2375, 0.7425, 1.7325, 0.495, 1.485, 0, 0.99, 0.2475, 1.2375, 0.7425, 1.7325, 0.495],
  "SoftwareVersions": "syngo MR E11",
  "SpacingBetweenSlices": 3.99,
  "StationName": "AWP66112",
  "TaskName": "rest",
  "TotalReadoutTime": 0.0221199,
  "TxRefAmp": 230.545,
  "dcmmeta_affine": [
    [-2.9998598098754883, -0.027226606383919716, 0.013293386436998844, 120.72774505615234],
    [-0.02307892218232155, 2.867016077041626, 1.1743875741958618, -119.93870544433594],
    [0.01756564900279045, -0.8828799724578857, 3.8132317066192627, -27.60608673095703],
    [0.0, 0.0, 0.0, 1.0]
],
  "dcmmeta_reorient_transform": [
    [0.0, -1.0, 0.0, 79.0],
    [1.0, 0.0, 0.0, 0.0],
    [0.0, 0.0, 1.0, 0.0],
    [0.0, 0.0, 0.0, 1.0]
],
  "dcmmeta_shape": [80, 80, 32, 200],
  "dcmmeta_slice_dim": 2,
  "dcmmeta_version": 0.6,
  "global": {
    "const": {
      "AccessionNumber": "qa",
      "AcquisitionMatrix": [80, 0, 0, 80],
      "AngioFlag": "N",
      "BitsAllocated": 16,
      "BitsStored": 12,
      "BodyPartExamined": "BRAIN",
      "Columns": 480,
      "EchoNumbers": 1,
      "EchoTime": 35.0,
      "EchoTrainLength": 39,
      "FlipAngle": 90.0,
      "HighBit": 11,
      "ImageOrientationPatient": [0.99995326620197, 0.00769297415735, 0.00585521653187, -0.0090755357037, 0.95567205169109, 0.29429333031557],
      "ImagePositionPatient": [-713.10348002283, -684.57458939335, -277.44273482757],
      "ImageType": [
        "ORIGINAL",
        "PRIMARY",
        "M",
        "ND",
        "NORM",
        "MOSAIC"
],
      "ImagedNucleus": "1H",
      "ImagingFrequency": 123.252414,
      "InPlanePhaseEncodingDirection": "COL",
      "MRAcquisitionType": "2D",
      "MagneticFieldStrength": 3.0,
      "Manufacturer": "SIEMENS",
      "ManufacturerModelName": "Prisma",
      "Modality": "MR",
      "NumberOfAverages": 1.0,
      "NumberOfPhaseEncodingSteps": 79,
      "PercentPhaseFieldOfView": 100.0,
      "PercentSampling": 100.0,
      "PerformedProcedureStepStartTime": "095333.584000",
      "PhotometricInterpretation": "MONOCHROME2",
      "PixelBandwidth": 2315.0,
      "PixelRepresentation": 0,
      "PixelSpacing": [3.0, 3.0],
      "ProtocolName": "func-bold_task-rest_acq-p2-s4-3.5mm",
      "RepetitionTime": 2000.0,
      "Rows": 480,
      "SAR": 0.02095230357069,
      "SamplesPerPixel": 1,
      "ScanOptions": "FS",
      "ScanningSequence": "EP",
      "SequenceName": "*epfid2d1_80",
      "SequenceVariant": "SK",
      "SeriesDescription": "func-bold_task-rest_acq-p2-s4-3.5mm",
      "SeriesNumber": 7,
      "SeriesTime": "100326.077000",
      "SliceLocation": -61.282718996649,
      "SliceThickness": 3.5,
      "SmallestImagePixelValue": 0,
      "SoftwareVersions": "syngo MR E11",
      "SpacingBetweenSlices": 3.9899999499085,
      "SpecificCharacterSet": "ISO_IR 100",
      "StudyID": "104",
      "StudyTime": "095333.422000",
      "TransmitCoilName": "Body",
      "VariableFlipAngleFlag": "N",
      "WindowCenterWidthExplanation": "Algo1",
      "dBdt": 0.0},
    "slices": {}
  },
  "time": {
    "samples": {
      "AcquisitionNumber": [1, 2, 3, 4, 5, 6, 7, 8, 9, 10, 11, 12, 13, 14, 15, 16, 17, 18, 19, 20, 21, 22, 23, 24, 25, 26, 27, 28, 29, 30, 31, 32, 33, 34, 35, 36, 37, 38, 39, 40, 41, 42, 43, 44, 45, 46, 47, 48, 49, 50, 51, 52, 53, 54, 55, 56, 57, 58, 59, 60, 61, 62, 63, 64, 65, 66, 67, 68, 69, 70, 71, 72, 73, 74, 75, 76, 77, 78, 79, 80, 81, 82, 83, 84, 85, 86, 87, 88, 89, 90, 91, 92, 93, 94, 95, 96, 97, 98, 99, 100, 101, 102, 103, 104, 105, 106, 107, 108, 109, 110, 111, 112, 113, 114, 115, 116, 117, 118, 119, 120, 121, 122, 123, 124, 125, 126, 127, 128, 129, 130, 131, 132, 133, 134, 135, 136, 137, 138, 139, 140, 141, 142, 143, 144, 145, 146, 147, 148, 149, 150, 151, 152, 153, 154, 155, 156, 157, 158, 159, 160, 161, 162, 163, 164, 165, 166, 167, 168, 169, 170, 171, 172, 173, 174, 175, 176, 177, 178, 179, 180, 181, 182, 183, 184, 185, 186, 187, 188, 189, 190, 191, 192, 193, 194, 195, 196, 197, 198, 199, 200],
      "AcquisitionTime": ["100238.147500", "100240.147500", "100242.147500", "100244.147500", "100246.147500", "100248.147500", "100250.147500", "100252.147500", "100254.147500", "100256.147500", "100258.147500", "100300.147500", "100302.147500", "100304.147500", "100306.147500", "100308.147500", "100310.147500", "100312.147500", "100314.147500", "100316.147500", "100318.147500", "100320.147500", "100322.147500", "100324.147500", "100326.147500", "100328.147500", "100330.147500", "100332.147500", "100334.147500", "100336.147500", "100338.147500", "100340.147500", "100342.147500", "100344.147500", "100346.147500", "100348.147500", "100350.147500", "100352.147500", "100354.147500", "100356.147500", "100358.147500", "100400.147500", "100402.147500", "100404.147500", "100406.147500", "100408.147500", "100410.147500", "100412.147500", "100414.147500", "100416.147500", "100418.147500", "100420.147500", "100422.147500", "100424.147500", "100426.147500", "100428.147500", "100430.147500", "100432.147500", "100434.147500", "100436.147500", "100438.147500", "100440.147500", "100442.147500", "100444.147500", "100446.147500", "100448.147500", "100450.147500", "100452.147500", "100454.147500", "100456.147500", "100458.147500", "100500.147500", "100502.147500", "100504.147500", "100506.147500", "100508.147500", "100510.147500", "100512.147500", "100514.147500", "100516.147500", "100518.147500", "100520.147500", "100522.147500", "100524.147500", "100526.147500", "100528.147500", "100530.147500", "100532.147500", "100534.147500", "100536.147500", "100538.147500", "100540.147500", "100542.147500", "100544.147500", "100546.147500", "100548.147500", "100550.147500", "100552.147500", "100554.147500", "100556.147500", "100558.147500", "100600.147500", "100602.147500", "100604.147500", "100606.147500", "100608.147500", "100610.147500", "100612.147500", "100614.147500", "100616.147500", "100618.147500", "100620.147500", "100622.147500", "100624.147500", "100626.147500", "100628.147500", "100630.147500", "100632.147500", "100634.147500", "100636.147500", "100638.147500", "100640.147500", "100642.147500", "100644.147500", "100646.147500", "100648.147500", "100650.147500", "100652.147500", "100654.147500", "100656.147500", "100658.147500", "100700.147500", "100702.147500", "100704.147500", "100706.147500", "100708.147500", "100710.147500", "100712.147500", "100714.147500", "100716.147500", "100718.147500", "100720.147500", "100722.147500", "100724.147500", "100726.147500", "100728.147500", "100730.147500", "100732.147500", "100734.147500", "100736.147500", "100738.147500", "100740.147500", "100742.147500", "100744.147500", "100746.147500", "100748.147500", "100750.147500", "100752.147500", "100754.147500", "100756.147500", "100758.147500", "100800.147500", "100802.147500", "100804.147500", "100806.147500", "100808.147500", "100810.147500", "100812.147500", "100814.147500", "100816.147500", "100818.147500", "100820.147500", "100822.147500", "100824.147500", "100826.147500", "100828.147500", "100830.147500", "100832.147500", "100834.147500", "100836.147500", "100838.147500", "100840.147500", "100842.147500", "100844.147500", "100846.147500", "100848.147500", "100850.147500", "100852.147500", "100854.147500", "100856.147500", "100858.147500", "100900.147500", "100902.147500", "100904.147500", "100906.147500", "100908.147500", "100910.147500", "100912.147500", "100914.147500", "100916.147500"],
      "ContentTime": ["100326.080000", "100326.084000", "100326.095000", "100326.097000", "100326.100000", "100326.102000", "100326.105000", "100326.114000", "100326.116000", "100326.119000", "100326.121000", "100326.128000", "100326.131000", "100326.134000", "100326.144000", "100326.147000", "100326.149000", "100326.152000", "100326.154000", "100326.157000", "100326.160000", "100326.162000", "100326.165000", "100326.167000", "100406.075000", "100406.078000", "100406.081000", "100406.083000", "100406.086000", "100406.089000", "100406.091000", "100406.094000", "100406.096000", "100406.099000", "100406.101000", "100406.104000", "100406.107000", "100406.109000", "100406.112000", "100406.114000", "100406.117000", "100406.119000", "100406.122000", "100406.125000", "100446.075000", "100446.078000", "100446.081000", "100446.083000", "100446.086000", "100446.089000", "100446.091000", "100446.094000", "100446.096000", "100446.099000", "100446.102000", "100446.104000", "100446.107000", "100446.109000", "100446.112000", "100446.115000", "100446.117000", "100446.120000", "100446.122000", "100446.125000", "100526.074000", "100526.077000", "100526.080000", "100526.082000", "100526.085000", "100526.088000", "100526.090000", "100526.093000", "100526.095000", "100526.098000", "100526.100000", "100526.103000", "100526.106000", "100526.108000", "100526.111000", "100526.113000", "100526.116000", "100526.119000", "100526.121000", "100526.124000", "100606.075000", "100606.078000", "100606.081000", "100606.083000", "100606.086000", "100606.089000", "100606.091000", "100606.094000", "100606.096000", "100606.099000", "100606.101000", "100606.104000", "100606.106000", "100606.109000", "100606.116000", "100606.118000", "100606.121000", "100606.123000", "100606.138000", "100606.141000", "100646.076000", "100646.092000", "100646.095000", "100646.097000", "100646.100000", "100646.103000", "100646.105000", "100646.108000", "100646.110000", "100646.113000", "100646.115000", "100646.118000", "100646.121000", "100646.123000", "100646.126000", "100646.128000", "100646.131000", "100646.133000", "100646.136000", "100646.139000", "100726.075000", "100726.078000", "100726.081000", "100726.084000", "100726.086000", "100726.089000", "100726.091000", "100726.094000", "100726.096000", "100726.099000", "100726.102000", "100726.104000", "100726.107000", "100726.109000", "100726.112000", "100726.114000", "100726.117000", "100726.120000", "100726.122000", "100726.125000", "100806.076000", "100806.078000", "100806.081000", "100806.083000", "100806.086000", "100806.089000", "100806.091000", "100806.094000", "100806.096000", "100806.099000", "100806.102000", "100806.104000", "100806.107000", "100806.109000", "100806.112000", "100806.115000", "100806.117000", "100806.120000", "100806.122000", "100806.125000", "100846.075000", "100846.078000", "100846.081000", "100846.084000", "100846.086000", "100846.089000", "100846.091000", "100846.094000", "100846.096000", "100846.099000", "100846.109000", "100846.112000", "100846.114000", "100846.117000", "100846.120000", "100846.122000", "100846.125000", "100846.127000", "100846.130000", "100846.132000", "100916.694000", "100916.697000", "100916.700000", "100916.702000", "100916.705000", "100916.708000", "100916.710000", "100916.713000", "100916.715000", "100916.718000", "100916.721000", "100916.723000", "100916.727000", "100916.730000", "100916.733000", "100916.736000"],
      "InstanceCreationTime": ["100326.080000", "100326.084000", "100326.095000", "100326.097000", "100326.100000", "100326.102000", "100326.105000", "100326.114000", "100326.116000", "100326.119000", "100326.121000", "100326.128000", "100326.131000", "100326.134000", "100326.144000", "100326.147000", "100326.149000", "100326.152000", "100326.154000", "100326.157000", "100326.160000", "100326.162000", "100326.165000", "100326.167000", "100406.075000", "100406.078000", "100406.081000", "100406.083000", "100406.086000", "100406.089000", "100406.091000", "100406.094000", "100406.096000", "100406.099000", "100406.101000", "100406.104000", "100406.107000", "100406.109000", "100406.112000", "100406.114000", "100406.117000", "100406.119000", "100406.122000", "100406.125000", "100446.075000", "100446.078000", "100446.081000", "100446.083000", "100446.086000", "100446.089000", "100446.091000", "100446.094000", "100446.096000", "100446.099000", "100446.102000", "100446.104000", "100446.107000", "100446.109000", "100446.112000", "100446.115000", "100446.117000", "100446.120000", "100446.122000", "100446.125000", "100526.074000", "100526.077000", "100526.080000", "100526.082000", "100526.085000", "100526.088000", "100526.090000", "100526.093000", "100526.095000", "100526.098000", "100526.100000", "100526.103000", "100526.106000", "100526.108000", "100526.111000", "100526.113000", "100526.116000", "100526.119000", "100526.121000", "100526.124000", "100606.075000", "100606.078000", "100606.081000", "100606.083000", "100606.086000", "100606.089000", "100606.091000", "100606.094000", "100606.096000", "100606.099000", "100606.101000", "100606.104000", "100606.106000", "100606.109000", "100606.116000", "100606.118000", "100606.121000", "100606.123000", "100606.138000", "100606.141000", "100646.076000", "100646.092000", "100646.095000", "100646.097000", "100646.100000", "100646.103000", "100646.105000", "100646.108000", "100646.110000", "100646.113000", "100646.115000", "100646.118000", "100646.121000", "100646.123000", "100646.126000", "100646.128000", "100646.131000", "100646.133000", "100646.136000", "100646.139000", "100726.075000", "100726.078000", "100726.081000", "100726.084000", "100726.086000", "100726.089000", "100726.091000", "100726.094000", "100726.096000", "100726.099000", "100726.102000", "100726.104000", "100726.107000", "100726.109000", "100726.112000", "100726.114000", "100726.117000", "100726.120000", "100726.122000", "100726.125000", "100806.076000", "100806.078000", "100806.081000", "100806.083000", "100806.086000", "100806.089000", "100806.091000", "100806.094000", "100806.096000", "100806.099000", "100806.102000", "100806.104000", "100806.107000", "100806.109000", "100806.112000", "100806.115000", "100806.117000", "100806.120000", "100806.122000", "100806.125000", "100846.075000", "100846.078000", "100846.081000", "100846.084000", "100846.086000", "100846.089000", "100846.091000", "100846.094000", "100846.096000", "100846.099000", "100846.109000", "100846.112000", "100846.114000", "100846.117000", "100846.120000", "100846.122000", "100846.125000", "100846.127000", "100846.130000", "100846.132000", "100916.694000", "100916.697000", "100916.700000", "100916.702000", "100916.705000", "100916.708000", "100916.710000", "100916.713000", "100916.715000", "100916.718000", "100916.721000", "100916.723000", "100916.727000", "100916.730000", "100916.733000", "100916.736000"],
      "InstanceNumber": [1, 2, 3, 4, 5, 6, 7, 8, 9, 10, 11, 12, 13, 14, 15, 16, 17, 18, 19, 20, 21, 22, 23, 24, 25, 26, 27, 28, 29, 30, 31, 32, 33, 34, 35, 36, 37, 38, 39, 40, 41, 42, 43, 44, 45, 46, 47, 48, 49, 50, 51, 52, 53, 54, 55, 56, 57, 58, 59, 60, 61, 62, 63, 64, 65, 66, 67, 68, 69, 70, 71, 72, 73, 74, 75, 76, 77, 78, 79, 80, 81, 82, 83, 84, 85, 86, 87, 88, 89, 90, 91, 92, 93, 94, 95, 96, 97, 98, 99, 100, 101, 102, 103, 104, 105, 106, 107, 108, 109, 110, 111, 112, 113, 114, 115, 116, 117, 118, 119, 120, 121, 122, 123, 124, 125, 126, 127, 128, 129, 130, 131, 132, 133, 134, 135, 136, 137, 138, 139, 140, 141, 142, 143, 144, 145, 146, 147, 148, 149, 150, 151, 152, 153, 154, 155, 156, 157, 158, 159, 160, 161, 162, 163, 164, 165, 166, 167, 168, 169, 170, 171, 172, 173, 174, 175, 176, 177, 178, 179, 180, 181, 182, 183, 184, 185, 186, 187, 188, 189, 190, 191, 192, 193, 194, 195, 196, 197, 198, 199, 200],
      "LargestImagePixelValue": [1996, 1999, 1999, 2003, 1998, 1999, 2003, 1998, 2000, 1999, 2001, 1999, 2006, 2001, 1998, 2001, 2000, 2000, 2000, 2002, 2000, 1997, 2005, 2003, 2000, 2004, 2003, 2000, 2001, 2006, 1998, 1996, 2003, 2003, 1997, 2000, 2002, 1999, 2001, 2000, 2003, 1995, 1996, 1999, 1996, 1998, 2005, 1993, 1993, 2008, 2004, 2000, 2002, 2001, 1998, 2004, 2002, 2001, 1999, 1995, 2002, 1998, 2000, 2005, 1999, 1999, 2005, 2005, 2007, 1999, 2003, 1997, 2001, 2001, 1999, 2001, 2004, 2004, 2001, 1997, 2003, 1999, 1994, 2002, 1999, 2001, 1996, 2005, 2003, 2004, 2001, 2002, 1999, 2001, 2007, 2003, 2000, 2004, 2004, 2003, 1997, 2001, 1998, 1997, 1997, 2005, 2001, 2003, 2004, 2000, 1996, 1998, 2004, 2001, 1998, 2000, 2001, 2000, 2001, 1995, 2002, 2002, 1999, 2004, 2001, 1998, 2000, 2004, 1999, 2001, 1999, 2002, 2002, 2000, 1997, 1998, 2002, 1997, 2004, 1996, 2001, 1998, 2004, 2002, 2000, 2005, 1995, 1998, 2000, 2000, 2002, 2004, 2000, 2000, 2002, 2007, 1997, 2005, 2000, 2005, 1997, 2001, 1995, 2002, 2001, 1997, 2002, 2003, 2006, 2008, 1994, 1999, 1995, 1995, 2003, 2002, 2001, 2001, 2002, 2005, 2000, 2003, 2001, 2002, 2001, 1999, 2001, 1999, 2002, 2000, 1998, 2004, 2000, 1996, 2003, 2005, 2003, 1998, 1999, 1999],
      "WindowCenter": [915.0, 915.0, 915.0, 915.0, 915.0, 915.0, 915.0, 915.0, 915.0, 915.0, 915.0, 915.0, 915.0, 915.0, 915.0, 915.0, 915.0, 915.0, 915.0, 915.0, 915.0, 915.0, 915.0, 915.0, 915.0, 915.0, 915.0, 915.0, 915.0, 915.0, 915.0, 915.0, 915.0, 915.0, 915.0, 915.0, 915.0, 915.0, 915.0, 916.0, 915.0, 915.0, 915.0, 915.0, 915.0, 915.0, 915.0, 915.0, 915.0, 915.0, 915.0, 915.0, 915.0, 915.0, 915.0, 915.0, 915.0, 915.0, 915.0, 915.0, 915.0, 915.0, 915.0, 915.0, 915.0, 915.0, 915.0, 915.0, 915.0, 915.0, 915.0, 915.0, 915.0, 915.0, 915.0, 915.0, 915.0, 915.0, 915.0, 915.0, 915.0, 915.0, 915.0, 915.0, 915.0, 915.0, 915.0, 915.0, 915.0, 915.0, 915.0, 915.0, 915.0, 915.0, 915.0, 915.0, 915.0, 915.0, 915.0, 915.0, 915.0, 915.0, 915.0, 915.0, 915.0, 915.0, 915.0, 915.0, 915.0, 915.0, 915.0, 915.0, 915.0, 915.0, 915.0, 915.0, 915.0, 915.0, 915.0, 915.0, 915.0, 915.0, 915.0, 915.0, 915.0, 915.0, 915.0, 915.0, 915.0, 915.0, 915.0, 915.0, 915.0, 915.0, 915.0, 915.0, 915.0, 915.0, 915.0, 915.0, 915.0, 915.0, 915.0, 915.0, 915.0, 915.0, 915.0, 915.0, 915.0, 915.0, 915.0, 915.0, 915.0, 915.0, 915.0, 915.0, 915.0, 915.0, 915.0, 915.0, 915.0, 915.0, 915.0, 915.0, 915.0, 915.0, 915.0, 915.0, 915.0, 915.0, 915.0, 915.0, 915.0, 915.0, 915.0, 915.0, 915.0, 915.0, 915.0, 915.0, 915.0, 915.0, 915.0, 915.0, 915.0, 915.0, 915.0, 915.0, 915.0, 915.0, 915.0, 915.0, 915.0, 915.0, 915.0, 915.0, 915.0, 915.0, 915.0, 915.0],
      "WindowWidth": [2075.0, 2075.0, 2075.0, 2075.0, 2075.0, 2075.0, 2075.0, 2075.0, 2075.0, 2075.0, 2075.0, 2075.0, 2075.0, 2075.0, 2075.0, 2075.0, 2075.0, 2075.0, 2075.0, 2075.0, 2075.0, 2075.0, 2075.0, 2075.0, 2075.0, 2075.0, 2075.0, 2075.0, 2075.0, 2075.0, 2075.0, 2075.0, 2075.0, 2075.0, 2075.0, 2075.0, 2075.0, 2075.0, 2075.0, 2076.0, 2075.0, 2075.0, 2075.0, 2075.0, 2075.0, 2075.0, 2075.0, 2075.0, 2075.0, 2075.0, 2075.0, 2075.0, 2075.0, 2075.0, 2075.0, 2075.0, 2075.0, 2075.0, 2075.0, 2075.0, 2076.0, 2075.0, 2075.0, 2075.0, 2075.0, 2075.0, 2075.0, 2075.0, 2076.0, 2075.0, 2075.0, 2076.0, 2075.0, 2075.0, 2075.0, 2075.0, 2075.0, 2075.0, 2076.0, 2075.0, 2076.0, 2076.0, 2075.0, 2075.0, 2075.0, 2075.0, 2076.0, 2076.0, 2075.0, 2076.0, 2076.0, 2076.0, 2075.0, 2076.0, 2075.0, 2075.0, 2075.0, 2075.0, 2075.0, 2075.0, 2075.0, 2075.0, 2075.0, 2075.0, 2075.0, 2075.0, 2075.0, 2075.0, 2075.0, 2075.0, 2075.0, 2075.0, 2075.0, 2075.0, 2075.0, 2075.0, 2075.0, 2075.0, 2075.0, 2075.0, 2075.0, 2075.0, 2075.0, 2075.0, 2075.0, 2075.0, 2075.0, 2075.0, 2075.0, 2075.0, 2075.0, 2075.0, 2075.0, 2075.0, 2075.0, 2075.0, 2075.0, 2075.0, 2075.0, 2075.0, 2075.0, 2075.0, 2075.0, 2075.0, 2075.0, 2075.0, 2075.0, 2075.0, 2075.0, 2075.0, 2075.0, 2075.0, 2075.0, 2075.0, 2075.0, 2075.0, 2075.0, 2075.0, 2075.0, 2075.0, 2075.0, 2075.0, 2075.0, 2075.0, 2075.0, 2075.0, 2075.0, 2075.0, 2075.0, 2075.0, 2075.0, 2075.0, 2075.0, 2075.0, 2075.0, 2075.0, 2075.0, 2075.0, 2075.0, 2075.0, 2075.0, 2075.0, 2075.0, 2075.0, 2075.0, 2075.0, 2075.0, 2075.0, 2075.0, 2075.0, 2075.0, 2075.0, 2075.0, 2075.0, 2075.0, 2075.0, 2075.0, 2075.0, 2075.0, 2075.0]
    },
    "slices": {}
  }
}