{
  "AcquisitionMatrixPE": 80,
  "AcquisitionNumber": 1,
  "AcquisitionTime": "10:09:27.502500",
  "BandwidthPerPixelPhaseEncode": 25,
  "BaseResolution": 80,
  "BodyPartExamined": "BRAIN",
  "CoilCombinationMethod": "Sum of Squares",
  "ConsistencyInfo": "N4_VE11C_LATEST_20160120",
  "ConversionSoftware": "dcm2niix",
  "ConversionSoftwareVersion": "v1.0.20220720",
  "DerivedVendorReportedEchoSpacing": 0.0005,
  "DeviceSerialNumber": "66112",
  "DwellTime": 2.7e-06,
  "EchoTime": 0.03,
  "EchoTrainLength": 80,
  "EffectiveEchoSpacing": 0.0005,
  "FlipAngle": 77,
  "HeudiconvVersion": "0.13.1",
  "ImageOrientationPatientDICOM": [0.999953, 0.00769297, 0.00585522, -0.00907554, 0.955672, 0.294293],
  "ImageOrientationText": "Tra>Cor(17.1)>Sag(0.2)",
  "ImageType": [
    "ORIGINAL",
    "PRIMARY",
    "M",
    "ND",
    "NORM",
    "MOSAIC"
],
  "ImagingFrequency": 123.252,
  "InPlanePhaseEncodingDirectionDICOM": "COL",
  "InstitutionAddress": "Maynard 3,Hanover,NH,US,03755",
  "InstitutionName": "Dartmouth College - PBS",
  "InstitutionalDepartmentName": "Department",
  "MRAcquisitionType": "2D",
  "MagneticFieldStrength": 3,
  "Manufacturer": "Siemens",
  "ManufacturersModelName": "Prisma",
  "MatrixCoilMode": "SENSE",
  "Modality": "MR",
  "NonlinearGradientCorrection": false,
  "PartialFourier": 1,
  "PatientPosition": "HFS",
  "PercentPhaseFOV": 100,
  "PercentSampling": 100,
  "PhaseEncodingDirection": "j-",
  "PhaseEncodingSteps": 80,
  "PhaseResolution": 1,
  "PixelBandwidth": 2315,
  "ProcedureStepDescription": "dbic^QA",
  "ProtocolName": "func-bold_acq-32ch-77flip",
  "PulseSequenceDetails": "%SiemensSeq%\\ep2d_bold",
  "ReceiveCoilActiveElements": "HEA;HEP",
  "ReceiveCoilName": "Head_32",
  "ReconMatrixPE": 80,
  "RepetitionTime": 2,
  "SAR": 0.0437875,
  "ScanOptions": "FS",
  "ScanningSequence": "EP",
  "SequenceName": "*epfid2d1_80",
  "SequenceVariant": "SK",
  "SeriesDescription": "func-bold_acq-32ch-77flip",
  "SeriesNumber": 8,
  "ShimSetting": [4145, -7690, -7509, 256, -52, -166, -18, 71],
  "SliceThickness": 3.5,
  "SliceTiming": [0.99, 0, 1.055, 0.065, 1.12, 0.13, 1.1875, 0.1975, 1.2525, 0.2625, 1.32, 0.33, 1.385, 0.395, 1.45, 0.46, 1.5175, 0.5275, 1.5825, 0.5925, 1.65, 0.66, 1.715, 0.725, 1.78, 0.79, 1.8475, 0.8575, 1.9125, 0.9225],
  "SoftwareVersions": "syngo MR E11",
  "SpacingBetweenSlices": 3.99,
  "StationName": "AWP66112",
  "TotalReadoutTime": 0.0395,
  "TxRefAmp": 230.545,
  "dcmmeta_affine": [
    [-2.9998598098754883, -0.027226606383919716, 0.013293386436998844, 120.73011779785156],
    [-0.02307892218232155, 2.867016077041626, 1.1743875741958618, -118.7190933227539],
    [0.01756564900279045, -0.8828799724578857, 3.813231945037842, -23.762168884277344],
    [0.0, 0.0, 0.0, 1.0]
],
  "dcmmeta_reorient_transform": [
    [0.0, -1.0, 0.0, 79.0],
    [1.0, 0.0, 0.0, 0.0],
    [0.0, 0.0, 1.0, 0.0],
    [0.0, 0.0, 0.0, 1.0]
],
  "dcmmeta_shape": [80, 80, 30, 200],
  "dcmmeta_slice_dim": 2,
  "dcmmeta_version": 0.6,
  "global": {
    "const": {
      "AccessionNumber": "qa",
      "AcquisitionMatrix": [80, 0, 0, 80],
      "AngioFlag": "N",
      "BitsAllocated": 16,
      "BitsStored": 12,
      "BodyPartExamined": "BRAIN",
      "Columns": 480,
      "EchoNumbers": 1,
      "EchoTime": 30.0,
      "EchoTrainLength": 80,
      "FlipAngle": 77.0,
      "HighBit": 11,
      "ImageOrientationPatient": [0.99995326620197, 0.00769297415735, 0.00585521653187, -0.0090755357037, 0.95567205169109, 0.29429333031557],
      "ImagePositionPatient": [-713.10585452286, -685.79419960758, -273.59881698089],
      "ImageType": [
        "ORIGINAL",
        "PRIMARY",
        "M",
        "ND",
        "NORM",
        "MOSAIC"
],
      "ImagedNucleus": "1H",
      "ImagingFrequency": 123.252414,
      "InPlanePhaseEncodingDirection": "COL",
      "MRAcquisitionType": "2D",
      "MagneticFieldStrength": 3.0,
      "Manufacturer": "SIEMENS",
      "ManufacturerModelName": "Prisma",
      "Modality": "MR",
      "NumberOfAverages": 1.0,
      "NumberOfPhaseEncodingSteps": 80,
      "PercentPhaseFieldOfView": 100.0,
      "PercentSampling": 100.0,
      "PerformedProcedureStepStartTime": "095333.584000",
      "PhotometricInterpretation": "MONOCHROME2",
      "PixelBandwidth": 2315.0,
      "PixelRepresentation": 0,
      "PixelSpacing": [3.0, 3.0],
      "ProtocolName": "func-bold_acq-32ch-77flip",
      "RepetitionTime": 2000.0,
      "Rows": 480,
      "SAR": 0.04378746792513,
      "SamplesPerPixel": 1,
      "ScanOptions": "FS",
      "ScanningSequence": "EP",
      "SequenceName": "*epfid2d1_80",
      "SequenceVariant": "SK",
      "SeriesDescription": "func-bold_acq-32ch-77flip",
      "SeriesNumber": 8,
      "SeriesTime": "101025.934000",
      "SliceLocation": -57.250118347225,
      "SliceThickness": 3.5,
      "SmallestImagePixelValue": 0,
      "SoftwareVersions": "syngo MR E11",
      "SpacingBetweenSlices": 3.9900000269523,
      "SpecificCharacterSet": "ISO_IR 100",
      "StudyID": "104",
      "StudyTime": "095333.422000",
      "TransmitCoilName": "Body",
      "VariableFlipAngleFlag": "N",
      "WindowCenterWidthExplanation": "Algo1",
      "dBdt": 0.0},
    "slices": {}
  },
  "time": {
    "samples": {
      "AcquisitionNumber": [1, 2, 3, 4, 5, 6, 7, 8, 9, 10, 11, 12, 13, 14, 15, 16, 17, 18, 19, 20, 21, 22, 23, 24, 25, 26, 27, 28, 29, 30, 31, 32, 33, 34, 35, 36, 37, 38, 39, 40, 41, 42, 43, 44, 45, 46, 47, 48, 49, 50, 51, 52, 53, 54, 55, 56, 57, 58, 59, 60, 61, 62, 63, 64, 65, 66, 67, 68, 69, 70, 71, 72, 73, 74, 75, 76, 77, 78, 79, 80, 81, 82, 83, 84, 85, 86, 87, 88, 89, 90, 91, 92, 93, 94, 95, 96, 97, 98, 99, 100, 101, 102, 103, 104, 105, 106, 107, 108, 109, 110, 111, 112, 113, 114, 115, 116, 117, 118, 119, 120, 121, 122, 123, 124, 125, 126, 127, 128, 129, 130, 131, 132, 133, 134, 135, 136, 137, 138, 139, 140, 141, 142, 143, 144, 145, 146, 147, 148, 149, 150, 151, 152, 153, 154, 155, 156, 157, 158, 159, 160, 161, 162, 163, 164, 165, 166, 167, 168, 169, 170, 171, 172, 173, 174, 175, 176, 177, 178, 179, 180, 181, 182, 183, 184, 185, 186, 187, 188, 189, 190, 191, 192, 193, 194, 195, 196, 197, 198, 199, 200],
      "AcquisitionTime": ["100927.502500", "100929.502500", "100931.502500", "100933.502500", "100935.502500", "100937.502500", "100939.502500", "100941.502500", "100943.502500", "100945.502500", "100947.502500", "100949.502500", "100951.502500", "100953.502500", "100955.502500", "100957.502500", "100959.502500", "101001.502500", "101003.502500", "101005.502500", "101007.502500", "101009.502500", "101011.502500", "101013.502500", "101015.502500", "101017.502500", "101019.502500", "101021.502500", "101023.502500", "101025.502500", "101027.502500", "101029.502500", "101031.502500", "101033.502500", "101035.502500", "101037.502500", "101039.502500", "101041.502500", "101043.502500", "101045.502500", "101047.502500", "101049.502500", "101051.502500", "101053.502500", "101055.502500", "101057.502500", "101059.502500", "101101.502500", "101103.502500", "101105.502500", "101107.502500", "101109.502500", "101111.502500", "101113.502500", "101115.502500", "101117.502500", "101119.502500", "101121.502500", "101123.502500", "101125.502500", "101127.502500", "101129.502500", "101131.502500", "101133.502500", "101135.502500", "101137.502500", "101139.502500", "101141.502500", "101143.502500", "101145.502500", "101147.502500", "101149.502500", "101151.502500", "101153.502500", "101155.502500", "101157.502500", "101159.502500", "101201.502500", "101203.502500", "101205.502500", "101207.502500", "101209.502500", "101211.502500", "101213.502500", "101215.502500", "101217.502500", "101219.502500", "101221.502500", "101223.502500", "101225.502500", "101227.502500", "101229.502500", "101231.502500", "101233.502500", "101235.502500", "101237.502500", "101239.502500", "101241.502500", "101243.502500", "101245.502500", "101247.502500", "101249.502500", "101251.502500", "101253.502500", "101255.502500", "101257.502500", "101259.502500", "101301.502500", "101303.502500", "101305.502500", "101307.502500", "101309.502500", "101311.502500", "101313.502500", "101315.502500", "101317.502500", "101319.502500", "101321.502500", "101323.502500", "101325.502500", "101327.502500", "101329.502500", "101331.502500", "101333.502500", "101335.502500", "101337.502500", "101339.502500", "101341.502500", "101343.502500", "101345.502500", "101347.502500", "101349.502500", "101351.502500", "101353.502500", "101355.502500", "101357.502500", "101359.502500", "101401.502500", "101403.502500", "101405.502500", "101407.502500", "101409.502500", "101411.502500", "101413.502500", "101415.502500", "101417.502500", "101419.502500", "101421.502500", "101423.502500", "101425.502500", "101427.502500", "101429.502500", "101431.502500", "101433.502500", "101435.502500", "101437.502500", "101439.502500", "101441.502500", "101443.502500", "101445.502500", "101447.502500", "101449.502500", "101451.502500", "101453.502500", "101455.502500", "101457.502500", "101459.502500", "101501.502500", "101503.502500", "101505.502500", "101507.502500", "101509.502500", "101511.502500", "101513.502500", "101515.502500", "101517.502500", "101519.502500", "101521.502500", "101523.502500", "101525.502500", "101527.502500", "101529.502500", "101531.502500", "101533.502500", "101535.502500", "101537.502500", "101539.502500", "101541.502500", "101543.502500", "101545.502500", "101547.502500", "101549.502500", "101551.502500", "101553.502500", "101555.502500", "101557.502500", "101559.502500", "101601.502500", "101603.502500", "101605.502500"],
      "ContentTime": ["101025.937000", "101025.941000", "101025.943000", "101025.946000", "101025.948000", "101025.951000", "101025.953000", "101025.956000", "101025.958000", "101025.961000", "101025.963000", "101025.966000", "101025.969000", "101025.971000", "101025.974000", "101025.976000", "101025.979000", "101025.981000", "101025.984000", "101025.986000", "101025.989000", "101025.991000", "101025.994000", "101025.996000", "101025.999000", "101026.001000", "101026.004000", "101026.006000", "101026.009000", "101105.932000", "101105.935000", "101105.938000", "101105.940000", "101105.943000", "101105.946000", "101105.948000", "101105.951000", "101105.953000", "101105.956000", "101105.958000", "101105.961000", "101105.963000", "101105.966000", "101105.968000", "101105.971000", "101105.973000", "101105.976000", "101105.978000", "101105.981000", "101145.933000", "101145.935000", "101145.938000", "101145.940000", "101145.943000", "101145.945000", "101145.948000", "101145.950000", "101145.953000", "101145.956000", "101145.958000", "101145.961000", "101145.963000", "101145.966000", "101145.968000", "101145.971000", "101145.973000", "101145.976000", "101145.978000", "101145.981000", "101225.931000", "101225.934000", "101225.937000", "101225.939000", "101225.942000", "101225.945000", "101225.947000", "101225.950000", "101225.952000", "101225.955000", "101225.957000", "101225.960000", "101225.962000", "101225.965000", "101225.967000", "101225.970000", "101225.972000", "101225.975000", "101225.977000", "101225.980000", "101305.933000", "101305.936000", "101305.938000", "101305.946000", "101305.948000", "101305.951000", "101305.954000", "101305.956000", "101305.959000", "101305.961000", "101305.964000", "101305.966000", "101305.969000", "101305.971000", "101305.974000", "101305.976000", "101305.979000", "101305.981000", "101305.984000", "101305.987000", "101345.933000", "101345.935000", "101345.938000", "101345.941000", "101345.943000", "101345.946000", "101345.948000", "101345.951000", "101345.953000", "101345.956000", "101345.958000", "101345.968000", "101345.971000", "101345.973000", "101345.976000", "101345.978000", "101345.981000", "101345.983000", "101345.986000", "101345.988000", "101425.932000", "101425.934000", "101425.937000", "101425.939000", "101425.942000", "101425.945000", "101425.947000", "101425.950000", "101425.952000", "101425.955000", "101425.957000", "101425.960000", "101425.962000", "101425.965000", "101425.967000", "101425.970000", "101425.972000", "101425.975000", "101425.978000", "101425.980000", "101505.933000", "101505.935000", "101505.938000", "101505.940000", "101505.943000", "101505.946000", "101505.948000", "101505.951000", "101505.953000", "101505.956000", "101505.958000", "101505.961000", "101505.963000", "101505.966000", "101505.968000", "101505.971000", "101505.973000", "101505.976000", "101505.979000", "101505.981000", "101545.932000", "101545.935000", "101545.938000", "101545.940000", "101545.943000", "101545.946000", "101545.948000", "101545.951000", "101545.953000", "101545.956000", "101545.958000", "101545.961000", "101545.963000", "101545.966000", "101545.968000", "101545.971000", "101545.973000", "101545.976000", "101545.979000", "101545.981000", "101607.024000", "101607.027000", "101607.030000", "101607.033000", "101607.036000", "101607.038000", "101607.041000", "101607.044000", "101607.046000", "101607.049000", "101607.051000"],
      "InstanceCreationTime": ["101025.937000", "101025.941000", "101025.943000", "101025.946000", "101025.948000", "101025.951000", "101025.953000", "101025.956000", "101025.958000", "101025.961000", "101025.963000", "101025.966000", "101025.969000", "101025.971000", "101025.974000", "101025.976000", "101025.979000", "101025.981000", "101025.984000", "101025.986000", "101025.989000", "101025.991000", "101025.994000", "101025.996000", "101025.999000", "101026.001000", "101026.004000", "101026.006000", "101026.009000", "101105.932000", "101105.935000", "101105.938000", "101105.940000", "101105.943000", "101105.946000", "101105.948000", "101105.951000", "101105.953000", "101105.956000", "101105.958000", "101105.961000", "101105.963000", "101105.966000", "101105.968000", "101105.971000", "101105.973000", "101105.976000", "101105.978000", "101105.981000", "101145.933000", "101145.935000", "101145.938000", "101145.940000", "101145.943000", "101145.945000", "101145.948000", "101145.950000", "101145.953000", "101145.956000", "101145.958000", "101145.961000", "101145.963000", "101145.966000", "101145.968000", "101145.971000", "101145.973000", "101145.976000", "101145.978000", "101145.981000", "101225.931000", "101225.934000", "101225.937000", "101225.939000", "101225.942000", "101225.945000", "101225.947000", "101225.950000", "101225.952000", "101225.955000", "101225.957000", "101225.960000", "101225.962000", "101225.965000", "101225.967000", "101225.970000", "101225.972000", "101225.975000", "101225.977000", "101225.980000", "101305.933000", "101305.936000", "101305.938000", "101305.946000", "101305.948000", "101305.951000", "101305.954000", "101305.956000", "101305.959000", "101305.961000", "101305.964000", "101305.966000", "101305.969000", "101305.971000", "101305.974000", "101305.976000", "101305.979000", "101305.981000", "101305.984000", "101305.987000", "101345.933000", "101345.935000", "101345.938000", "101345.941000", "101345.943000", "101345.946000", "101345.948000", "101345.951000", "101345.953000", "101345.956000", "101345.958000", "101345.968000", "101345.971000", "101345.973000", "101345.976000", "101345.978000", "101345.981000", "101345.983000", "101345.986000", "101345.988000", "101425.932000", "101425.934000", "101425.937000", "101425.939000", "101425.942000", "101425.945000", "101425.947000", "101425.950000", "101425.952000", "101425.955000", "101425.957000", "101425.960000", "101425.962000", "101425.965000", "101425.967000", "101425.970000", "101425.972000", "101425.975000", "101425.978000", "101425.980000", "101505.933000", "101505.935000", "101505.938000", "101505.940000", "101505.943000", "101505.946000", "101505.948000", "101505.951000", "101505.953000", "101505.956000", "101505.958000", "101505.961000", "101505.963000", "101505.966000", "101505.968000", "101505.971000", "101505.973000", "101505.976000", "101505.979000", "101505.981000", "101545.932000", "101545.935000", "101545.938000", "101545.940000", "101545.943000", "101545.946000", "101545.948000", "101545.951000", "101545.953000", "101545.956000", "101545.958000", "101545.961000", "101545.963000", "101545.966000", "101545.968000", "101545.971000", "101545.973000", "101545.976000", "101545.979000", "101545.981000", "101607.024000", "101607.027000", "101607.030000", "101607.033000", "101607.036000", "101607.038000", "101607.041000", "101607.044000", "101607.046000", "101607.049000", "101607.051000"],
      "InstanceNumber": [1, 2, 3, 4, 5, 6, 7, 8, 9, 10, 11, 12, 13, 14, 15, 16, 17, 18, 19, 20, 21, 22, 23, 24, 25, 26, 27, 28, 29, 30, 31, 32, 33, 34, 35, 36, 37, 38, 39, 40, 41, 42, 43, 44, 45, 46, 47, 48, 49, 50, 51, 52, 53, 54, 55, 56, 57, 58, 59, 60, 61, 62, 63, 64, 65, 66, 67, 68, 69, 70, 71, 72, 73, 74, 75, 76, 77, 78, 79, 80, 81, 82, 83, 84, 85, 86, 87, 88, 89, 90, 91, 92, 93, 94, 95, 96, 97, 98, 99, 100, 101, 102, 103, 104, 105, 106, 107, 108, 109, 110, 111, 112, 113, 114, 115, 116, 117, 118, 119, 120, 121, 122, 123, 124, 125, 126, 127, 128, 129, 130, 131, 132, 133, 134, 135, 136, 137, 138, 139, 140, 141, 142, 143, 144, 145, 146, 147, 148, 149, 150, 151, 152, 153, 154, 155, 156, 157, 158, 159, 160, 161, 162, 163, 164, 165, 166, 167, 168, 169, 170, 171, 172, 173, 174, 175, 176, 177, 178, 179, 180, 181, 182, 183, 184, 185, 186, 187, 188, 189, 190, 191, 192, 193, 194, 195, 196, 197, 198, 199, 200],
      "LargestImagePixelValue": [1931, 1933, 1932, 1933, 1932, 1930, 1931, 1930, 1931, 1932, 1931, 1931, 1930, 1931, 1931, 1932, 1932, 1932, 1931, 1932, 1932, 1931, 1931, 1932, 1933, 1932, 1931, 1932, 1932, 1932, 1932, 1932, 1931, 1933, 1932, 1930, 1932, 1931, 1933, 1930, 1930, 1930, 1932, 1932, 1931, 1933, 1933, 1931, 1932, 1929, 1929, 1934, 1932, 1933, 1932, 1932, 1931, 1933, 1931, 1931, 1931, 1933, 1931, 1933, 1932, 1932, 1934, 1932, 1933, 1932, 1932, 1931, 1933, 1931, 1934, 1931, 1933, 1932, 1931, 1932, 1932, 1933, 1931, 1933, 1932, 1932, 1933, 1933, 1931, 1932, 1931, 1932, 1932, 1934, 1933, 1932, 1931, 1930, 1931, 1931, 1931, 1933, 1932, 1932, 1930, 1931, 1933, 1933, 1931, 1931, 1933, 1931, 1932, 1932, 1933, 1931, 1932, 1931, 1931, 1933, 1930, 1932, 1930, 1931, 1931, 1931, 1930, 1933, 1931, 1932, 1932, 1930, 1931, 1932, 1931, 1929, 1931, 1930, 1931, 1930, 1933, 1931, 1931, 1930, 1932, 1930, 1932, 1933, 1931, 1931, 1933, 1931, 1932, 1931, 1931, 1932, 1931, 1932, 1935, 1933, 1931, 1932, 1931, 1930, 1931, 1931, 1932, 1930, 1932, 1932, 1931, 1929, 1932, 1930, 1930, 1932, 1931, 1931, 1931, 1932, 1932, 1932, 1931, 1932, 1931, 1932, 1931, 1932, 1931, 1933, 1932, 1933, 1931, 1930, 1932, 1930, 1929, 1931, 1931, 1933],
      "WindowCenter": [969.0, 968.0, 968.0, 969.0, 969.0, 969.0, 969.0, 968.0, 969.0, 969.0, 967.0, 968.0, 969.0, 969.0, 969.0, 969.0, 969.0, 969.0, 968.0, 969.0, 969.0, 968.0, 969.0, 969.0, 969.0, 969.0, 968.0, 968.0, 969.0, 968.0, 968.0, 969.0, 968.0, 969.0, 968.0, 968.0, 968.0, 968.0, 968.0, 968.0, 968.0, 968.0, 968.0, 968.0, 968.0, 968.0, 968.0, 968.0, 968.0, 968.0, 967.0, 968.0, 968.0, 968.0, 968.0, 968.0, 967.0, 967.0, 967.0, 967.0, 968.0, 969.0, 968.0, 967.0, 967.0, 968.0, 968.0, 968.0, 968.0, 968.0, 967.0, 967.0, 967.0, 968.0, 967.0, 968.0, 968.0, 968.0, 968.0, 968.0, 968.0, 968.0, 968.0, 968.0, 968.0, 967.0, 967.0, 967.0, 968.0, 968.0, 967.0, 969.0, 968.0, 968.0, 968.0, 968.0, 969.0, 968.0, 968.0, 968.0, 968.0, 968.0, 968.0, 969.0, 967.0, 968.0, 968.0, 968.0, 968.0, 966.0, 968.0, 968.0, 967.0, 968.0, 967.0, 968.0, 968.0, 968.0, 968.0, 968.0, 967.0, 968.0, 969.0, 969.0, 968.0, 968.0, 968.0, 968.0, 968.0, 968.0, 967.0, 968.0, 968.0, 967.0, 967.0, 967.0, 967.0, 967.0, 967.0, 967.0, 966.0, 967.0, 967.0, 967.0, 966.0, 967.0, 967.0, 967.0, 967.0, 967.0, 967.0, 967.0, 967.0, 967.0, 966.0, 967.0, 967.0, 967.0, 966.0, 967.0, 967.0, 967.0, 967.0, 967.0, 967.0, 967.0, 967.0, 967.0, 967.0, 967.0, 967.0, 967.0, 967.0, 967.0, 967.0, 967.0, 966.0, 967.0, 967.0, 967.0, 966.0, 968.0, 967.0, 967.0, 967.0, 967.0, 967.0, 967.0, 966.0, 967.0, 966.0, 966.0, 967.0, 967.0, 967.0, 967.0, 967.0, 967.0, 968.0, 968.0],
      "WindowWidth": [2116.0, 2116.0, 2116.0, 2116.0, 2116.0, 2116.0, 2116.0, 2116.0, 2116.0, 2116.0, 2115.0, 2115.0, 2116.0, 2116.0, 2116.0, 2117.0, 2117.0, 2116.0, 2115.0, 2116.0, 2115.0, 2115.0, 2115.0, 2115.0, 2115.0, 2115.0, 2115.0, 2115.0, 2115.0, 2115.0, 2115.0, 2116.0, 2115.0, 2116.0, 2115.0, 2115.0, 2115.0, 2115.0, 2115.0, 2115.0, 2115.0, 2115.0, 2115.0, 2115.0, 2115.0, 2114.0, 2115.0, 2115.0, 2115.0, 2115.0, 2114.0, 2115.0, 2115.0, 2116.0, 2115.0, 2115.0, 2114.0, 2114.0, 2114.0, 2114.0, 2115.0, 2116.0, 2115.0, 2114.0, 2114.0, 2114.0, 2115.0, 2115.0, 2115.0, 2115.0, 2114.0, 2114.0, 2114.0, 2115.0, 2114.0, 2115.0, 2114.0, 2115.0, 2115.0, 2114.0, 2115.0, 2115.0, 2115.0, 2115.0, 2115.0, 2114.0, 2114.0, 2114.0, 2115.0, 2115.0, 2113.0, 2115.0, 2114.0, 2115.0, 2115.0, 2115.0, 2116.0, 2115.0, 2115.0, 2115.0, 2115.0, 2115.0, 2115.0, 2115.0, 2114.0, 2115.0, 2115.0, 2115.0, 2115.0, 2113.0, 2114.0, 2114.0, 2113.0, 2114.0, 2114.0, 2114.0, 2114.0, 2114.0, 2114.0, 2114.0, 2114.0, 2115.0, 2115.0, 2115.0, 2115.0, 2115.0, 2115.0, 2115.0, 2115.0, 2115.0, 2114.0, 2115.0, 2115.0, 2114.0, 2114.0, 2114.0, 2114.0, 2113.0, 2113.0, 2113.0, 2112.0, 2113.0, 2113.0, 2113.0, 2112.0, 2113.0, 2113.0, 2113.0, 2113.0, 2113.0, 2113.0, 2113.0, 2113.0, 2113.0, 2112.0, 2113.0, 2113.0, 2113.0, 2112.0, 2113.0, 2113.0, 2112.0, 2113.0, 2113.0, 2113.0, 2113.0, 2113.0, 2113.0, 2113.0, 2113.0, 2113.0, 2113.0, 2113.0, 2113.0, 2113.0, 2113.0, 2112.0, 2113.0, 2113.0, 2113.0, 2111.0, 2113.0, 2113.0, 2113.0, 2113.0, 2113.0, 2113.0, 2113.0, 2112.0, 2113.0, 2112.0, 2113.0, 2113.0, 2113.0, 2113.0, 2113.0, 2113.0, 2113.0, 2113.0, 2114.0]
    },
    "slices": {}
  }
}