{
  "AcquisitionMatrixPE": 80,
  "AcquisitionNumber": 1,
  "AcquisitionTime": "09:45:56.460000",
  "BandwidthPerPixelPhaseEncode": 25,
  "BaseResolution": 80,
  "BodyPartExamined": "BRAIN",
  "CoilCombinationMethod": "Sum of Squares",
  "ConsistencyInfo": "N4_VE11E_LATEST_20181129",
  "ConversionSoftware": "dcm2niix",
  "ConversionSoftwareVersion": "v1.0.20220720",
  "DerivedVendorReportedEchoSpacing": 0.0005,
  "DeviceSerialNumber": "66112",
  "DwellTime": 2.7e-06,
  "EchoTime": 0.03,
  "EchoTrainLength": 80,
  "EffectiveEchoSpacing": 0.0005,
  "FlipAngle": 10,
  "HeudiconvVersion": "0.13.1",
  "ImageOrientationPatientDICOM": [0.999976, 0.00605308, 0.00349582, -0.00680672, 0.957011, 0.289972],
  "ImageOrientationText": "Tra>Cor(16.9)>Sag(0.1)",
  "ImageType": [
    "ORIGINAL",
    "PRIMARY",
    "M",
    "ND",
    "NORM",
    "MOSAIC"
],
  "ImagingFrequency": 123.259,
  "InPlanePhaseEncodingDirectionDICOM": "COL",
  "InstitutionAddress": "Maynard 3,Hanover,NH,US,03755",
  "InstitutionName": "Dartmouth College - PBS",
  "InstitutionalDepartmentName": "Department",
  "MRAcquisitionType": "2D",
  "MagneticFieldStrength": 3,
  "Manufacturer": "Siemens",
  "ManufacturersModelName": "Prisma",
  "MatrixCoilMode": "SENSE",
  "Modality": "MR",
  "NonlinearGradientCorrection": false,
  "PartialFourier": 1,
  "PatientPosition": "HFS",
  "PercentPhaseFOV": 100,
  "PercentSampling": 100,
  "PhaseEncodingDirection": "j-",
  "PhaseEncodingSteps": 80,
  "PhaseResolution": 1,
  "PixelBandwidth": 2315,
  "ProcedureStepDescription": "dbic^QA",
  "ProtocolName": "func-bold_fa-10",
  "PulseSequenceDetails": "%SiemensSeq%\\ep2d_bold",
  "ReceiveCoilActiveElements": "HEA;HEP",
  "ReceiveCoilName": "Head_32",
  "ReconMatrixPE": 80,
  "RepetitionTime": 2,
  "SAR": 0.00991057,
  "ScanOptions": "FS",
  "ScanningSequence": "EP",
  "SequenceName": "*epfid2d1_80",
  "SequenceVariant": "SK",
  "SeriesDescription": "func-bold_fa-10",
  "SeriesNumber": 8,
  "ShimSetting": [4218, -7745, -7507, -32, -133, -13, 38, 72],
  "SliceThickness": 3.5,
  "SliceTiming": [0.99, 0, 1.055, 0.065, 1.12, 0.13, 1.1875, 0.1975, 1.2525, 0.2625, 1.32, 0.33, 1.385, 0.395, 1.45, 0.46, 1.5175, 0.5275, 1.5825, 0.5925, 1.6475, 0.66, 1.715, 0.725, 1.78, 0.79, 1.8475, 0.8575, 1.9125, 0.9225],
  "SoftwareVersions": "syngo MR E11",
  "SpacingBetweenSlices": 3.99,
  "StationName": "AWP66112",
  "TotalReadoutTime": 0.0395,
  "TxRefAmp": 224.551,
  "dcmmeta_affine": [
    [-2.999926805496216, -0.020420150831341743, 0.006345370784401894, 120.47822570800781],
    [-0.018159227445721626, 2.871032953262329, 1.1570546627044678, -130.19598388671875],
    [0.010487467981874943, -0.869915783405304, 3.818544864654541, -19.972455978393555],
    [0.0, 0.0, 0.0, 1.0]
],
  "dcmmeta_reorient_transform": [
    [0.0, -1.0, 0.0, 79.0],
    [1.0, 0.0, 0.0, 0.0],
    [0.0, 0.0, 1.0, 0.0],
    [0.0, 0.0, 0.0, 1.0]
],
  "dcmmeta_shape": [80, 80, 30, 200],
  "dcmmeta_slice_dim": 2,
  "dcmmeta_version": 0.6,
  "global": {
    "const": {
      "AccessionNumber": "qa",
      "AcquisitionMatrix": [80, 0, 0, 80],
      "AngioFlag": "N",
      "BitsAllocated": 16,
      "BitsStored": 12,
      "BodyPartExamined": "BRAIN",
      "Columns": 480,
      "EchoNumbers": 1,
      "EchoTime": 30.0,
      "EchoTrainLength": 80,
      "FlipAngle": 10.0,
      "HighBit": 11,
      "ImageOrientationPatient": [0.99997556944833, 0.00605307607706, 0.0034958227204, -0.0068067167971, 0.95701094681862, 0.28997192325424],
      "ImagePositionPatient": [-714.76634496982, -674.45401671194, -264.77644858002],
      "ImageType": [
        "ORIGINAL",
        "PRIMARY",
        "M",
        "ND",
        "NORM",
        "MOSAIC"
],
      "ImagedNucleus": "1H",
      "ImagingFrequency": 123.259108,
      "InPlanePhaseEncodingDirection": "COL",
      "MRAcquisitionType": "2D",
      "MagneticFieldStrength": 3.0,
      "Manufacturer": "SIEMENS",
      "ManufacturerModelName": "Prisma",
      "Modality": "MR",
      "NumberOfAverages": 1.0,
      "NumberOfPhaseEncodingSteps": 80,
      "PercentPhaseFieldOfView": 100.0,
      "PercentSampling": 100.0,
      "PerformedProcedureStepStartTime": "091910.951000",
      "PhotometricInterpretation": "MONOCHROME2",
      "PixelBandwidth": 2315.0,
      "PixelRepresentation": 0,
      "PixelSpacing": [3.0, 3.0],
      "ProtocolName": "func-bold_fa-10",
      "RepetitionTime": 2000.0,
      "Rows": 480,
      "SAR": 0.0099105675331,
      "SamplesPerPixel": 1,
      "ScanOptions": "FS",
      "ScanningSequence": "EP",
      "SequenceName": "*epfid2d1_80",
      "SequenceVariant": "SK",
      "SeriesDescription": "func-bold_fa-10",
      "SeriesNumber": 8,
      "SeriesTime": "094647.132000",
      "SliceLocation": -56.677973154769,
      "SliceThickness": 3.5,
      "SmallestImagePixelValue": 0,
      "SoftwareVersions": "syngo MR E11",
      "SpacingBetweenSlices": 3.9900000477316,
      "SpecificCharacterSet": "ISO_IR 100",
      "StudyID": "26",
      "StudyTime": "091910.904000",
      "TransmitCoilName": "Body",
      "VariableFlipAngleFlag": "N",
      "WindowCenterWidthExplanation": "Algo1"
    },
    "slices": {}
  },
  "time": {
    "samples": {
      "AcquisitionNumber": [1, 2, 3, 4, 5, 6, 7, 8, 9, 10, 11, 12, 13, 14, 15, 16, 17, 18, 19, 20, 21, 22, 23, 24, 25, 26, 27, 28, 29, 30, 31, 32, 33, 34, 35, 36, 37, 38, 39, 40, 41, 42, 43, 44, 45, 46, 47, 48, 49, 50, 51, 52, 53, 54, 55, 56, 57, 58, 59, 60, 61, 62, 63, 64, 65, 66, 67, 68, 69, 70, 71, 72, 73, 74, 75, 76, 77, 78, 79, 80, 81, 82, 83, 84, 85, 86, 87, 88, 89, 90, 91, 92, 93, 94, 95, 96, 97, 98, 99, 100, 101, 102, 103, 104, 105, 106, 107, 108, 109, 110, 111, 112, 113, 114, 115, 116, 117, 118, 119, 120, 121, 122, 123, 124, 125, 126, 127, 128, 129, 130, 131, 132, 133, 134, 135, 136, 137, 138, 139, 140, 141, 142, 143, 144, 145, 146, 147, 148, 149, 150, 151, 152, 153, 154, 155, 156, 157, 158, 159, 160, 161, 162, 163, 164, 165, 166, 167, 168, 169, 170, 171, 172, 173, 174, 175, 176, 177, 178, 179, 180, 181, 182, 183, 184, 185, 186, 187, 188, 189, 190, 191, 192, 193, 194, 195, 196, 197, 198, 199, 200],
      "AcquisitionTime": ["094556.460000", "094558.460000", "094600.460000", "094602.460000", "094604.460000", "094606.460000", "094608.460000", "094610.460000", "094612.460000", "094614.460000", "094616.460000", "094618.460000", "094620.460000", "094622.460000", "094624.460000", "094626.460000", "094628.460000", "094630.460000", "094632.460000", "094634.460000", "094636.460000", "094638.460000", "094640.460000", "094642.460000", "094644.460000", "094646.460000", "094648.460000", "094650.460000", "094652.460000", "094654.460000", "094656.460000", "094658.460000", "094700.460000", "094702.460000", "094704.460000", "094706.460000", "094708.460000", "094710.460000", "094712.460000", "094714.460000", "094716.460000", "094718.460000", "094720.460000", "094722.460000", "094724.460000", "094726.460000", "094728.460000", "094730.460000", "094732.460000", "094734.460000", "094736.460000", "094738.460000", "094740.460000", "094742.460000", "094744.460000", "094746.460000", "094748.460000", "094750.460000", "094752.460000", "094754.460000", "094756.460000", "094758.460000", "094800.460000", "094802.460000", "094804.460000", "094806.460000", "094808.460000", "094810.460000", "094812.460000", "094814.460000", "094816.460000", "094818.460000", "094820.460000", "094822.460000", "094824.460000", "094826.460000", "094828.460000", "094830.460000", "094832.460000", "094834.460000", "094836.460000", "094838.460000", "094840.460000", "094842.460000", "094844.460000", "094846.460000", "094848.460000", "094850.460000", "094852.460000", "094854.460000", "094856.460000", "094858.460000", "094900.460000", "094902.460000", "094904.460000", "094906.460000", "094908.460000", "094910.460000", "094912.460000", "094914.460000", "094916.460000", "094918.460000", "094920.460000", "094922.460000", "094924.460000", "094926.460000", "094928.460000", "094930.460000", "094932.460000", "094934.460000", "094936.460000", "094938.460000", "094940.460000", "094942.460000", "094944.460000", "094946.460000", "094948.460000", "094950.460000", "094952.460000", "094954.460000", "094956.460000", "094958.460000", "095000.460000", "095002.460000", "095004.460000", "095006.460000", "095008.460000", "095010.460000", "095012.460000", "095014.460000", "095016.460000", "095018.460000", "095020.460000", "095022.460000", "095024.460000", "095026.460000", "095028.460000", "095030.460000", "095032.460000", "095034.460000", "095036.460000", "095038.460000", "095040.460000", "095042.460000", "095044.460000", "095046.460000", "095048.460000", "095050.460000", "095052.460000", "095054.460000", "095056.460000", "095058.460000", "095100.460000", "095102.460000", "095104.460000", "095106.460000", "095108.460000", "095110.460000", "095112.460000", "095114.460000", "095116.460000", "095118.460000", "095120.460000", "095122.460000", "095124.460000", "095126.460000", "095128.460000", "095130.460000", "095132.460000", "095134.460000", "095136.460000", "095138.460000", "095140.460000", "095142.460000", "095144.460000", "095146.460000", "095148.460000", "095150.460000", "095152.460000", "095154.460000", "095156.460000", "095158.460000", "095200.460000", "095202.460000", "095204.460000", "095206.460000", "095208.460000", "095210.460000", "095212.460000", "095214.460000", "095216.460000", "095218.460000", "095220.460000", "095222.460000", "095224.460000", "095226.460000", "095228.460000", "095230.460000", "095232.460000", "095234.460000"],
      "ContentTime": ["094647.136000", "094647.139000", "094647.141000", "094647.143000", "094647.145000", "094647.148000", "094647.150000", "094647.152000", "094647.155000", "094647.157000", "094647.159000", "094647.162000", "094647.164000", "094647.166000", "094647.168000", "094647.177000", "094647.179000", "094647.181000", "094647.189000", "094647.191000", "094647.200000", "094647.202000", "094647.204000", "094647.206000", "094647.209000", "094727.130000", "094727.132000", "094727.135000", "094727.137000", "094727.139000", "094727.141000", "094727.144000", "094727.146000", "094727.148000", "094727.150000", "094727.153000", "094727.155000", "094727.157000", "094727.160000", "094727.162000", "094727.164000", "094727.166000", "094727.169000", "094727.171000", "094727.173000", "094807.130000", "094807.133000", "094807.135000", "094807.144000", "094807.146000", "094807.149000", "094807.151000", "094807.153000", "094807.155000", "094807.158000", "094807.160000", "094807.162000", "094807.164000", "094807.167000", "094807.169000", "094807.171000", "094807.184000", "094807.187000", "094807.189000", "094807.191000", "094847.130000", "094847.147000", "094847.149000", "094847.151000", "094847.153000", "094847.156000", "094847.158000", "094847.160000", "094847.163000", "094847.165000", "094847.167000", "094847.169000", "094847.172000", "094847.174000", "094847.176000", "094847.179000", "094847.181000", "094847.183000", "094847.185000", "094847.188000", "094927.131000", "094927.134000", "094927.136000", "094927.138000", "094927.140000", "094927.143000", "094927.145000", "094927.147000", "094927.150000", "094927.152000", "094927.154000", "094927.156000", "094927.159000", "094927.161000", "094927.163000", "094927.165000", "094927.167000", "094927.170000", "094927.172000", "094927.174000", "095007.130000", "095007.138000", "095007.140000", "095007.142000", "095007.144000", "095007.147000", "095007.149000", "095007.151000", "095007.154000", "095007.156000", "095007.158000", "095007.160000", "095007.163000", "095007.165000", "095007.167000", "095007.169000", "095007.171000", "095007.174000", "095007.176000", "095007.178000", "095047.130000", "095047.133000", "095047.135000", "095047.137000", "095047.139000", "095047.142000", "095047.144000", "095047.146000", "095047.149000", "095047.151000", "095047.153000", "095047.155000", "095047.158000", "095047.160000", "095047.162000", "095047.165000", "095047.167000", "095047.169000", "095047.171000", "095047.174000", "095127.131000", "095127.134000", "095127.136000", "095127.138000", "095127.140000", "095127.143000", "095127.145000", "095127.147000", "095127.149000", "095127.152000", "095127.154000", "095127.156000", "095127.159000", "095127.161000", "095127.163000", "095127.176000", "095127.178000", "095127.180000", "095127.182000", "095127.185000", "095207.130000", "095207.133000", "095207.135000", "095207.137000", "095207.139000", "095207.142000", "095207.144000", "095207.146000", "095207.149000", "095207.151000", "095207.153000", "095207.156000", "095207.158000", "095207.160000", "095207.162000", "095207.165000", "095207.167000", "095207.169000", "095207.171000", "095207.174000", "095236.226000", "095236.229000", "095236.231000", "095236.234000", "095236.236000", "095236.238000", "095236.241000", "095236.243000", "095236.245000", "095236.248000", "095236.250000", "095236.252000", "095236.255000", "095236.257000", "095236.261000"],
      "InstanceCreationTime": ["094647.136000", "094647.139000", "094647.141000", "094647.143000", "094647.145000", "094647.148000", "094647.150000", "094647.152000", "094647.155000", "094647.157000", "094647.159000", "094647.162000", "094647.164000", "094647.166000", "094647.168000", "094647.177000", "094647.179000", "094647.181000", "094647.189000", "094647.191000", "094647.200000", "094647.202000", "094647.204000", "094647.206000", "094647.209000", "094727.130000", "094727.132000", "094727.135000", "094727.137000", "094727.139000", "094727.141000", "094727.144000", "094727.146000", "094727.148000", "094727.150000", "094727.153000", "094727.155000", "094727.157000", "094727.160000", "094727.162000", "094727.164000", "094727.166000", "094727.169000", "094727.171000", "094727.173000", "094807.130000", "094807.133000", "094807.135000", "094807.144000", "094807.146000", "094807.149000", "094807.151000", "094807.153000", "094807.155000", "094807.158000", "094807.160000", "094807.162000", "094807.164000", "094807.167000", "094807.169000", "094807.171000", "094807.184000", "094807.187000", "094807.189000", "094807.191000", "094847.130000", "094847.147000", "094847.149000", "094847.151000", "094847.153000", "094847.156000", "094847.158000", "094847.160000", "094847.163000", "094847.165000", "094847.167000", "094847.169000", "094847.172000", "094847.174000", "094847.176000", "094847.179000", "094847.181000", "094847.183000", "094847.185000", "094847.188000", "094927.131000", "094927.134000", "094927.136000", "094927.138000", "094927.140000", "094927.143000", "094927.145000", "094927.147000", "094927.150000", "094927.152000", "094927.154000", "094927.156000", "094927.159000", "094927.161000", "094927.163000", "094927.165000", "094927.167000", "094927.170000", "094927.172000", "094927.174000", "095007.130000", "095007.138000", "095007.140000", "095007.142000", "095007.144000", "095007.147000", "095007.149000", "095007.151000", "095007.154000", "095007.156000", "095007.158000", "095007.160000", "095007.163000", "095007.165000", "095007.167000", "095007.169000", "095007.171000", "095007.174000", "095007.176000", "095007.178000", "095047.130000", "095047.133000", "095047.135000", "095047.137000", "095047.139000", "095047.142000", "095047.144000", "095047.146000", "095047.149000", "095047.151000", "095047.153000", "095047.155000", "095047.158000", "095047.160000", "095047.162000", "095047.165000", "095047.167000", "095047.169000", "095047.171000", "095047.174000", "095127.131000", "095127.134000", "095127.136000", "095127.138000", "095127.140000", "095127.143000", "095127.145000", "095127.147000", "095127.149000", "095127.152000", "095127.154000", "095127.156000", "095127.159000", "095127.161000", "095127.163000", "095127.176000", "095127.178000", "095127.180000", "095127.182000", "095127.185000", "095207.130000", "095207.133000", "095207.135000", "095207.137000", "095207.139000", "095207.142000", "095207.144000", "095207.146000", "095207.149000", "095207.151000", "095207.153000", "095207.156000", "095207.158000", "095207.160000", "095207.162000", "095207.165000", "095207.167000", "095207.169000", "095207.171000", "095207.174000", "095236.226000", "095236.229000", "095236.231000", "095236.234000", "095236.236000", "095236.238000", "095236.241000", "095236.243000", "095236.245000", "095236.248000", "095236.250000", "095236.252000", "095236.255000", "095236.257000", "095236.261000"],
      "InstanceNumber": [1, 2, 3, 4, 5, 6, 7, 8, 9, 10, 11, 12, 13, 14, 15, 16, 17, 18, 19, 20, 21, 22, 23, 24, 25, 26, 27, 28, 29, 30, 31, 32, 33, 34, 35, 36, 37, 38, 39, 40, 41, 42, 43, 44, 45, 46, 47, 48, 49, 50, 51, 52, 53, 54, 55, 56, 57, 58, 59, 60, 61, 62, 63, 64, 65, 66, 67, 68, 69, 70, 71, 72, 73, 74, 75, 76, 77, 78, 79, 80, 81, 82, 83, 84, 85, 86, 87, 88, 89, 90, 91, 92, 93, 94, 95, 96, 97, 98, 99, 100, 101, 102, 103, 104, 105, 106, 107, 108, 109, 110, 111, 112, 113, 114, 115, 116, 117, 118, 119, 120, 121, 122, 123, 124, 125, 126, 127, 128, 129, 130, 131, 132, 133, 134, 135, 136, 137, 138, 139, 140, 141, 142, 143, 144, 145, 146, 147, 148, 149, 150, 151, 152, 153, 154, 155, 156, 157, 158, 159, 160, 161, 162, 163, 164, 165, 166, 167, 168, 169, 170, 171, 172, 173, 174, 175, 176, 177, 178, 179, 180, 181, 182, 183, 184, 185, 186, 187, 188, 189, 190, 191, 192, 193, 194, 195, 196, 197, 198, 199, 200],
      "LargestImagePixelValue": [415, 416, 419, 417, 415, 417, 418, 417, 416, 415, 418, 416, 416, 417, 418, 417, 417, 416, 417, 417, 416, 415, 418, 417, 417, 416, 416, 417, 416, 417, 416, 419, 413, 417, 416, 417, 416, 417, 417, 417, 415, 416, 417, 416, 416, 415, 417, 417, 416, 415, 418, 417, 415, 415, 419, 418, 416, 413, 419, 416, 415, 417, 416, 419, 416, 415, 416, 415, 416, 417, 416, 417, 416, 414, 417, 418, 416, 415, 417, 417, 416, 416, 415, 417, 416, 415, 418, 417, 416, 415, 416, 417, 417, 415, 416, 417, 416, 415, 416, 419, 416, 416, 416, 419, 416, 416, 416, 417, 418, 416, 417, 416, 418, 415, 417, 416, 415, 416, 417, 417, 415, 415, 416, 416, 417, 416, 418, 417, 416, 415, 417, 416, 416, 416, 418, 417, 416, 415, 416, 417, 416, 416, 417, 417, 415, 416, 416, 418, 416, 415, 416, 417, 415, 416, 417, 417, 414, 415, 416, 417, 416, 416, 415, 415, 416, 414, 417, 415, 415, 416, 416, 415, 415, 417, 417, 417, 415, 415, 418, 417, 414, 414, 415, 416, 415, 416, 417, 416, 415, 415, 417, 415, 415, 413, 415, 417, 414, 416, 416, 416],
      "WindowCenter": [328.0, 328.0, 328.0, 328.0, 328.0, 328.0, 328.0, 328.0, 328.0, 328.0, 328.0, 328.0, 328.0, 328.0, 328.0, 328.0, 328.0, 328.0, 328.0, 328.0, 328.0, 328.0, 328.0, 328.0, 328.0, 328.0, 328.0, 328.0, 328.0, 328.0, 328.0, 328.0, 328.0, 328.0, 328.0, 328.0, 328.0, 328.0, 328.0, 328.0, 328.0, 328.0, 328.0, 328.0, 328.0, 328.0, 328.0, 328.0, 328.0, 328.0, 328.0, 328.0, 328.0, 328.0, 328.0, 328.0, 328.0, 328.0, 328.0, 328.0, 328.0, 328.0, 328.0, 328.0, 328.0, 328.0, 328.0, 328.0, 328.0, 328.0, 328.0, 328.0, 328.0, 328.0, 328.0, 328.0, 328.0, 328.0, 328.0, 328.0, 328.0, 328.0, 328.0, 328.0, 328.0, 328.0, 328.0, 328.0, 328.0, 327.0, 328.0, 328.0, 328.0, 327.0, 328.0, 328.0, 327.0, 328.0, 328.0, 328.0, 327.0, 327.0, 328.0, 328.0, 327.0, 327.0, 327.0, 328.0, 327.0, 327.0, 328.0, 328.0, 327.0, 327.0, 327.0, 327.0, 328.0, 327.0, 328.0, 327.0, 327.0, 327.0, 327.0, 328.0, 327.0, 327.0, 328.0, 327.0, 327.0, 327.0, 327.0, 327.0, 327.0, 327.0, 327.0, 327.0, 328.0, 327.0, 327.0, 327.0, 327.0, 327.0, 328.0, 328.0, 327.0, 327.0, 327.0, 327.0, 327.0, 327.0, 327.0, 327.0, 327.0, 327.0, 328.0, 327.0, 327.0, 327.0, 327.0, 327.0, 327.0, 327.0, 327.0, 327.0, 327.0, 327.0, 327.0, 327.0, 328.0, 327.0, 327.0, 327.0, 327.0, 327.0, 327.0, 327.0, 327.0, 327.0, 327.0, 327.0, 327.0, 327.0, 327.0, 327.0, 327.0, 327.0, 327.0, 327.0, 327.0, 327.0, 327.0, 327.0, 327.0, 327.0, 327.0, 327.0, 327.0, 327.0, 327.0, 327.0],
      "WindowWidth": [703.0, 703.0, 703.0, 703.0, 703.0, 703.0, 703.0, 704.0, 703.0, 703.0, 703.0, 703.0, 703.0, 703.0, 704.0, 703.0, 703.0, 704.0, 703.0, 703.0, 703.0, 703.0, 703.0, 703.0, 703.0, 703.0, 703.0, 703.0, 703.0, 703.0, 703.0, 703.0, 703.0, 703.0, 704.0, 703.0, 703.0, 703.0, 703.0, 703.0, 703.0, 703.0, 703.0, 703.0, 703.0, 703.0, 703.0, 703.0, 703.0, 703.0, 703.0, 703.0, 703.0, 703.0, 703.0, 703.0, 703.0, 703.0, 703.0, 703.0, 703.0, 703.0, 703.0, 703.0, 703.0, 702.0, 703.0, 703.0, 703.0, 702.0, 703.0, 703.0, 703.0, 703.0, 703.0, 703.0, 702.0, 703.0, 703.0, 703.0, 703.0, 703.0, 703.0, 703.0, 703.0, 703.0, 703.0, 703.0, 703.0, 702.0, 703.0, 703.0, 703.0, 702.0, 703.0, 703.0, 702.0, 703.0, 703.0, 703.0, 702.0, 702.0, 703.0, 703.0, 702.0, 702.0, 702.0, 703.0, 702.0, 702.0, 702.0, 702.0, 702.0, 702.0, 702.0, 702.0, 702.0, 702.0, 703.0, 702.0, 702.0, 702.0, 702.0, 703.0, 702.0, 702.0, 703.0, 702.0, 702.0, 702.0, 702.0, 702.0, 702.0, 702.0, 702.0, 702.0, 702.0, 702.0, 702.0, 702.0, 702.0, 702.0, 703.0, 703.0, 702.0, 702.0, 702.0, 702.0, 702.0, 701.0, 702.0, 702.0, 702.0, 702.0, 702.0, 702.0, 701.0, 702.0, 702.0, 702.0, 702.0, 701.0, 702.0, 702.0, 702.0, 702.0, 702.0, 702.0, 702.0, 701.0, 702.0, 702.0, 702.0, 701.0, 702.0, 702.0, 702.0, 702.0, 702.0, 702.0, 701.0, 701.0, 702.0, 701.0, 702.0, 702.0, 702.0, 702.0, 701.0, 701.0, 701.0, 701.0, 701.0, 701.0, 701.0, 701.0, 702.0, 702.0, 702.0, 702.0]
    },
    "slices": {}
  }
}