{
  "AcquisitionMatrixPE": 80,
  "AcquisitionNumber": 1,
  "AcquisitionTime": "09:39:10.412500",
  "BandwidthPerPixelPhaseEncode": 25,
  "BaseResolution": 80,
  "BodyPartExamined": "BRAIN",
  "CoilCombinationMethod": "Sum of Squares",
  "ConsistencyInfo": "N4_VE11E_LATEST_20181129",
  "ConversionSoftware": "dcm2niix",
  "ConversionSoftwareVersion": "v1.0.20220720",
  "DerivedVendorReportedEchoSpacing": 0.0005,
  "DeviceSerialNumber": "66112",
  "DwellTime": 2.7e-06,
  "EchoTime": 0.03,
  "EchoTrainLength": 80,
  "EffectiveEchoSpacing": 0.0005,
  "FlipAngle": 77,
  "HeudiconvVersion": "0.13.1",
  "ImageOrientationPatientDICOM": [0.999976, 0.00605308, 0.00349582, -0.00680672, 0.957011, 0.289972],
  "ImageOrientationText": "Tra>Cor(16.9)>Sag(0.1)",
  "ImageType": [
    "ORIGINAL",
    "PRIMARY",
    "M",
    "ND",
    "NORM",
    "MOSAIC"
],
  "ImagingFrequency": 123.259,
  "InPlanePhaseEncodingDirectionDICOM": "COL",
  "InstitutionAddress": "Maynard 3,Hanover,NH,US,03755",
  "InstitutionName": "Dartmouth College - PBS",
  "InstitutionalDepartmentName": "Department",
  "MRAcquisitionType": "2D",
  "MagneticFieldStrength": 3,
  "Manufacturer": "Siemens",
  "ManufacturersModelName": "Prisma",
  "MatrixCoilMode": "SENSE",
  "Modality": "MR",
  "NonlinearGradientCorrection": false,
  "PartialFourier": 1,
  "PatientPosition": "HFS",
  "PercentPhaseFOV": 100,
  "PercentSampling": 100,
  "PhaseEncodingDirection": "j-",
  "PhaseEncodingSteps": 80,
  "PhaseResolution": 1,
  "PixelBandwidth": 2315,
  "ProcedureStepDescription": "dbic^QA",
  "ProtocolName": "func-bold_fa-77",
  "PulseSequenceDetails": "%SiemensSeq%\\ep2d_bold",
  "ReceiveCoilActiveElements": "HEA;HEP",
  "ReceiveCoilName": "Head_32",
  "ReconMatrixPE": 80,
  "RepetitionTime": 2,
  "SAR": 0.0369454,
  "ScanOptions": "FS",
  "ScanningSequence": "EP",
  "SequenceName": "*epfid2d1_80",
  "SequenceVariant": "SK",
  "SeriesDescription": "func-bold_fa-77",
  "SeriesNumber": 7,
  "ShimSetting": [4218, -7745, -7507, -32, -133, -13, 38, 72],
  "SliceThickness": 3.5,
  "SliceTiming": [0.99, 0, 1.055, 0.065, 1.1225, 0.1325, 1.1875, 0.1975, 1.2525, 0.2625, 1.32, 0.33, 1.385, 0.395, 1.4525, 0.4625, 1.5175, 0.5275, 1.5825, 0.5925, 1.65, 0.66, 1.715, 0.725, 1.7825, 0.7925, 1.8475, 0.8575, 1.9125, 0.9225],
  "SoftwareVersions": "syngo MR E11",
  "SpacingBetweenSlices": 3.99,
  "StationName": "AWP66112",
  "TotalReadoutTime": 0.0395,
  "TxRefAmp": 224.551,
  "dcmmeta_affine": [
    [-2.999926805496216, -0.020420150831341743, 0.006345370784401894, 120.47822570800781],
    [-0.018159227445721626, 2.871032953262329, 1.1570546627044678, -130.19598388671875],
    [0.010487467981874943, -0.869915783405304, 3.818544864654541, -19.972455978393555],
    [0.0, 0.0, 0.0, 1.0]
],
  "dcmmeta_reorient_transform": [
    [0.0, -1.0, 0.0, 79.0],
    [1.0, 0.0, 0.0, 0.0],
    [0.0, 0.0, 1.0, 0.0],
    [0.0, 0.0, 0.0, 1.0]
],
  "dcmmeta_shape": [80, 80, 30, 200],
  "dcmmeta_slice_dim": 2,
  "dcmmeta_version": 0.6,
  "global": {
    "const": {
      "AccessionNumber": "qa",
      "AcquisitionMatrix": [80, 0, 0, 80],
      "AngioFlag": "N",
      "BitsAllocated": 16,
      "BitsStored": 12,
      "BodyPartExamined": "BRAIN",
      "Columns": 480,
      "EchoNumbers": 1,
      "EchoTime": 30.0,
      "EchoTrainLength": 80,
      "FlipAngle": 77.0,
      "HighBit": 11,
      "ImageOrientationPatient": [0.99997556944833, 0.00605307607706, 0.0034958227204, -0.0068067167971, 0.95701094681862, 0.28997192325424],
      "ImagePositionPatient": [-714.76634496982, -674.45401671194, -264.77644858002],
      "ImageType": [
        "ORIGINAL",
        "PRIMARY",
        "M",
        "ND",
        "NORM",
        "MOSAIC"
],
      "ImagedNucleus": "1H",
      "ImagingFrequency": 123.259107,
      "InPlanePhaseEncodingDirection": "COL",
      "MRAcquisitionType": "2D",
      "MagneticFieldStrength": 3.0,
      "Manufacturer": "SIEMENS",
      "ManufacturerModelName": "Prisma",
      "Modality": "MR",
      "NumberOfAverages": 1.0,
      "NumberOfPhaseEncodingSteps": 80,
      "PercentPhaseFieldOfView": 100.0,
      "PercentSampling": 100.0,
      "PerformedProcedureStepStartTime": "091910.951000",
      "PhotometricInterpretation": "MONOCHROME2",
      "PixelBandwidth": 2315.0,
      "PixelRepresentation": 0,
      "PixelSpacing": [3.0, 3.0],
      "ProtocolName": "func-bold_fa-77",
      "RepetitionTime": 2000.0,
      "Rows": 480,
      "SAR": 0.03694539037051,
      "SamplesPerPixel": 1,
      "ScanOptions": "FS",
      "ScanningSequence": "EP",
      "SequenceName": "*epfid2d1_80",
      "SequenceVariant": "SK",
      "SeriesDescription": "func-bold_fa-77",
      "SeriesNumber": 7,
      "SeriesTime": "094007.048000",
      "SliceLocation": -56.677973154769,
      "SliceThickness": 3.5,
      "SmallestImagePixelValue": 0,
      "SoftwareVersions": "syngo MR E11",
      "SpacingBetweenSlices": 3.9900000477316,
      "SpecificCharacterSet": "ISO_IR 100",
      "StudyID": "26",
      "StudyTime": "091910.904000",
      "TransmitCoilName": "Body",
      "VariableFlipAngleFlag": "N",
      "WindowCenterWidthExplanation": "Algo1"
    },
    "slices": {}
  },
  "time": {
    "samples": {
      "AcquisitionNumber": [1, 2, 3, 4, 5, 6, 7, 8, 9, 10, 11, 12, 13, 14, 15, 16, 17, 18, 19, 20, 21, 22, 23, 24, 25, 26, 27, 28, 29, 30, 31, 32, 33, 34, 35, 36, 37, 38, 39, 40, 41, 42, 43, 44, 45, 46, 47, 48, 49, 50, 51, 52, 53, 54, 55, 56, 57, 58, 59, 60, 61, 62, 63, 64, 65, 66, 67, 68, 69, 70, 71, 72, 73, 74, 75, 76, 77, 78, 79, 80, 81, 82, 83, 84, 85, 86, 87, 88, 89, 90, 91, 92, 93, 94, 95, 96, 97, 98, 99, 100, 101, 102, 103, 104, 105, 106, 107, 108, 109, 110, 111, 112, 113, 114, 115, 116, 117, 118, 119, 120, 121, 122, 123, 124, 125, 126, 127, 128, 129, 130, 131, 132, 133, 134, 135, 136, 137, 138, 139, 140, 141, 142, 143, 144, 145, 146, 147, 148, 149, 150, 151, 152, 153, 154, 155, 156, 157, 158, 159, 160, 161, 162, 163, 164, 165, 166, 167, 168, 169, 170, 171, 172, 173, 174, 175, 176, 177, 178, 179, 180, 181, 182, 183, 184, 185, 186, 187, 188, 189, 190, 191, 192, 193, 194, 195, 196, 197, 198, 199, 200],
      "AcquisitionTime": ["093910.412500", "093912.412500", "093914.412500", "093916.412500", "093918.412500", "093920.412500", "093922.412500", "093924.412500", "093926.412500", "093928.412500", "093930.412500", "093932.412500", "093934.412500", "093936.412500", "093938.412500", "093940.412500", "093942.412500", "093944.412500", "093946.412500", "093948.412500", "093950.412500", "093952.412500", "093954.412500", "093956.412500", "093958.412500", "094000.412500", "094002.412500", "094004.412500", "094006.412500", "094008.412500", "094010.412500", "094012.412500", "094014.412500", "094016.412500", "094018.412500", "094020.412500", "094022.412500", "094024.412500", "094026.412500", "094028.412500", "094030.412500", "094032.412500", "094034.412500", "094036.412500", "094038.412500", "094040.412500", "094042.412500", "094044.412500", "094046.412500", "094048.412500", "094050.412500", "094052.412500", "094054.412500", "094056.412500", "094058.412500", "094100.412500", "094102.412500", "094104.412500", "094106.412500", "094108.412500", "094110.412500", "094112.412500", "094114.412500", "094116.412500", "094118.412500", "094120.412500", "094122.412500", "094124.412500", "094126.412500", "094128.412500", "094130.412500", "094132.412500", "094134.412500", "094136.412500", "094138.412500", "094140.412500", "094142.412500", "094144.412500", "094146.412500", "094148.412500", "094150.412500", "094152.412500", "094154.412500", "094156.412500", "094158.412500", "094200.412500", "094202.412500", "094204.412500", "094206.412500", "094208.412500", "094210.412500", "094212.412500", "094214.412500", "094216.412500", "094218.412500", "094220.412500", "094222.412500", "094224.412500", "094226.412500", "094228.412500", "094230.412500", "094232.412500", "094234.412500", "094236.412500", "094238.412500", "094240.412500", "094242.412500", "094244.412500", "094246.412500", "094248.412500", "094250.412500", "094252.412500", "094254.412500", "094256.412500", "094258.412500", "094300.412500", "094302.412500", "094304.412500", "094306.412500", "094308.412500", "094310.412500", "094312.412500", "094314.412500", "094316.412500", "094318.412500", "094320.412500", "094322.412500", "094324.412500", "094326.412500", "094328.412500", "094330.412500", "094332.412500", "094334.412500", "094336.412500", "094338.412500", "094340.412500", "094342.412500", "094344.412500", "094346.412500", "094348.412500", "094350.412500", "094352.412500", "094354.412500", "094356.412500", "094358.412500", "094400.412500", "094402.412500", "094404.412500", "094406.412500", "094408.412500", "094410.412500", "094412.412500", "094414.412500", "094416.412500", "094418.412500", "094420.412500", "094422.412500", "094424.412500", "094426.412500", "094428.412500", "094430.412500", "094432.412500", "094434.412500", "094436.412500", "094438.412500", "094440.412500", "094442.412500", "094444.412500", "094446.412500", "094448.412500", "094450.412500", "094452.412500", "094454.412500", "094456.412500", "094458.412500", "094500.412500", "094502.412500", "094504.412500", "094506.412500", "094508.412500", "094510.412500", "094512.412500", "094514.412500", "094516.412500", "094518.412500", "094520.412500", "094522.412500", "094524.412500", "094526.412500", "094528.412500", "094530.412500", "094532.412500", "094534.412500", "094536.412500", "094538.412500", "094540.412500", "094542.412500", "094544.412500", "094546.412500", "094548.412500"],
      "ContentTime": ["094007.051000", "094007.054000", "094007.067000", "094007.069000", "094007.072000", "094007.074000", "094007.076000", "094007.078000", "094007.081000", "094007.083000", "094007.085000", "094007.087000", "094007.090000", "094007.092000", "094007.094000", "094007.097000", "094007.099000", "094007.109000", "094007.111000", "094007.114000", "094007.116000", "094007.118000", "094007.121000", "094007.123000", "094007.125000", "094007.127000", "094007.130000", "094007.132000", "094047.045000", "094047.048000", "094047.050000", "094047.052000", "094047.055000", "094047.057000", "094047.059000", "094047.061000", "094047.064000", "094047.066000", "094047.068000", "094047.070000", "094047.073000", "094047.075000", "094047.084000", "094047.086000", "094047.088000", "094047.090000", "094047.093000", "094047.095000", "094127.045000", "094127.048000", "094127.050000", "094127.052000", "094127.054000", "094127.057000", "094127.059000", "094127.061000", "094127.063000", "094127.066000", "094127.068000", "094127.070000", "094127.073000", "094127.075000", "094127.077000", "094127.080000", "094127.082000", "094127.084000", "094127.086000", "094127.089000", "094207.046000", "094207.049000", "094207.051000", "094207.053000", "094207.055000", "094207.058000", "094207.060000", "094207.062000", "094207.064000", "094207.067000", "094207.077000", "094207.080000", "094207.082000", "094207.084000", "094207.087000", "094207.089000", "094207.091000", "094207.093000", "094207.096000", "094207.098000", "094247.045000", "094247.048000", "094247.050000", "094247.052000", "094247.054000", "094247.057000", "094247.059000", "094247.061000", "094247.064000", "094247.066000", "094247.068000", "094247.070000", "094247.073000", "094247.075000", "094247.077000", "094247.079000", "094247.082000", "094247.084000", "094247.086000", "094247.088000", "094327.045000", "094327.047000", "094327.050000", "094327.052000", "094327.054000", "094327.057000", "094327.059000", "094327.061000", "094327.063000", "094327.066000", "094327.068000", "094327.070000", "094327.072000", "094327.075000", "094327.077000", "094327.079000", "094327.081000", "094327.084000", "094327.086000", "094327.088000", "094407.045000", "094407.048000", "094407.050000", "094407.052000", "094407.055000", "094407.057000", "094407.059000", "094407.062000", "094407.064000", "094407.066000", "094407.068000", "094407.071000", "094407.073000", "094407.075000", "094407.077000", "094407.080000", "094407.082000", "094407.084000", "094407.087000", "094407.089000", "094447.046000", "094447.049000", "094447.051000", "094447.053000", "094447.056000", "094447.058000", "094447.060000", "094447.062000", "094447.065000", "094447.067000", "094447.069000", "094447.072000", "094447.074000", "094447.076000", "094447.078000", "094447.081000", "094447.083000", "094447.085000", "094447.088000", "094447.090000", "094527.045000", "094527.048000", "094527.050000", "094527.052000", "094527.054000", "094527.057000", "094527.059000", "094527.061000", "094527.063000", "094527.066000", "094527.068000", "094527.070000", "094527.073000", "094527.075000", "094527.077000", "094527.079000", "094527.082000", "094527.084000", "094527.086000", "094527.088000", "094547.045000", "094547.048000", "094547.057000", "094547.059000", "094547.062000", "094547.064000", "094547.066000", "094547.069000", "094547.071000", "094547.073000", "094549.847000", "094549.850000"],
      "InstanceCreationTime": ["094007.051000", "094007.054000", "094007.067000", "094007.069000", "094007.072000", "094007.074000", "094007.076000", "094007.078000", "094007.081000", "094007.083000", "094007.085000", "094007.087000", "094007.090000", "094007.092000", "094007.094000", "094007.097000", "094007.099000", "094007.109000", "094007.111000", "094007.114000", "094007.116000", "094007.118000", "094007.121000", "094007.123000", "094007.125000", "094007.127000", "094007.130000", "094007.132000", "094047.045000", "094047.048000", "094047.050000", "094047.052000", "094047.055000", "094047.057000", "094047.059000", "094047.061000", "094047.064000", "094047.066000", "094047.068000", "094047.070000", "094047.073000", "094047.075000", "094047.084000", "094047.086000", "094047.088000", "094047.090000", "094047.093000", "094047.095000", "094127.045000", "094127.048000", "094127.050000", "094127.052000", "094127.054000", "094127.057000", "094127.059000", "094127.061000", "094127.063000", "094127.066000", "094127.068000", "094127.070000", "094127.073000", "094127.075000", "094127.077000", "094127.080000", "094127.082000", "094127.084000", "094127.086000", "094127.089000", "094207.046000", "094207.049000", "094207.051000", "094207.053000", "094207.055000", "094207.058000", "094207.060000", "094207.062000", "094207.064000", "094207.067000", "094207.077000", "094207.080000", "094207.082000", "094207.084000", "094207.087000", "094207.089000", "094207.091000", "094207.093000", "094207.096000", "094207.098000", "094247.045000", "094247.048000", "094247.050000", "094247.052000", "094247.054000", "094247.057000", "094247.059000", "094247.061000", "094247.064000", "094247.066000", "094247.068000", "094247.070000", "094247.073000", "094247.075000", "094247.077000", "094247.079000", "094247.082000", "094247.084000", "094247.086000", "094247.088000", "094327.045000", "094327.047000", "094327.050000", "094327.052000", "094327.054000", "094327.057000", "094327.059000", "094327.061000", "094327.063000", "094327.066000", "094327.068000", "094327.070000", "094327.072000", "094327.075000", "094327.077000", "094327.079000", "094327.081000", "094327.084000", "094327.086000", "094327.088000", "094407.045000", "094407.048000", "094407.050000", "094407.052000", "094407.055000", "094407.057000", "094407.059000", "094407.062000", "094407.064000", "094407.066000", "094407.068000", "094407.071000", "094407.073000", "094407.075000", "094407.077000", "094407.080000", "094407.082000", "094407.084000", "094407.087000", "094407.089000", "094447.046000", "094447.049000", "094447.051000", "094447.053000", "094447.056000", "094447.058000", "094447.060000", "094447.062000", "094447.065000", "094447.067000", "094447.069000", "094447.072000", "094447.074000", "094447.076000", "094447.078000", "094447.081000", "094447.083000", "094447.085000", "094447.088000", "094447.090000", "094527.045000", "094527.048000", "094527.050000", "094527.052000", "094527.054000", "094527.057000", "094527.059000", "094527.061000", "094527.063000", "094527.066000", "094527.068000", "094527.070000", "094527.073000", "094527.075000", "094527.077000", "094527.079000", "094527.082000", "094527.084000", "094527.086000", "094527.088000", "094547.045000", "094547.048000", "094547.057000", "094547.059000", "094547.062000", "094547.064000", "094547.066000", "094547.069000", "094547.071000", "094547.073000", "094549.847000", "094549.850000"],
      "InstanceNumber": [1, 2, 3, 4, 5, 6, 7, 8, 9, 10, 11, 12, 13, 14, 15, 16, 17, 18, 19, 20, 21, 22, 23, 24, 25, 26, 27, 28, 29, 30, 31, 32, 33, 34, 35, 36, 37, 38, 39, 40, 41, 42, 43, 44, 45, 46, 47, 48, 49, 50, 51, 52, 53, 54, 55, 56, 57, 58, 59, 60, 61, 62, 63, 64, 65, 66, 67, 68, 69, 70, 71, 72, 73, 74, 75, 76, 77, 78, 79, 80, 81, 82, 83, 84, 85, 86, 87, 88, 89, 90, 91, 92, 93, 94, 95, 96, 97, 98, 99, 100, 101, 102, 103, 104, 105, 106, 107, 108, 109, 110, 111, 112, 113, 114, 115, 116, 117, 118, 119, 120, 121, 122, 123, 124, 125, 126, 127, 128, 129, 130, 131, 132, 133, 134, 135, 136, 137, 138, 139, 140, 141, 142, 143, 144, 145, 146, 147, 148, 149, 150, 151, 152, 153, 154, 155, 156, 157, 158, 159, 160, 161, 162, 163, 164, 165, 166, 167, 168, 169, 170, 171, 172, 173, 174, 175, 176, 177, 178, 179, 180, 181, 182, 183, 184, 185, 186, 187, 188, 189, 190, 191, 192, 193, 194, 195, 196, 197, 198, 199, 200],
      "LargestImagePixelValue": [2443, 2444, 2445, 2443, 2441, 2447, 2443, 2447, 2444, 2443, 2446, 2445, 2445, 2442, 2445, 2447, 2447, 2444, 2447, 2444, 2446, 2443, 2444, 2443, 2442, 2445, 2442, 2445, 2443, 2442, 2442, 2446, 2447, 2441, 2445, 2443, 2444, 2441, 2440, 2445, 2445, 2443, 2442, 2444, 2446, 2446, 2446, 2441, 2443, 2448, 2445, 2444, 2441, 2446, 2442, 2445, 2443, 2442, 2442, 2443, 2442, 2441, 2442, 2445, 2444, 2439, 2443, 2443, 2441, 2442, 2443, 2442, 2440, 2444, 2442, 2442, 2442, 2446, 2445, 2443, 2443, 2444, 2447, 2445, 2444, 2442, 2443, 2443, 2444, 2446, 2446, 2445, 2445, 2443, 2444, 2443, 2443, 2445, 2445, 2444, 2444, 2446, 2445, 2445, 2445, 2444, 2442, 2444, 2446, 2445, 2446, 2445, 2444, 2444, 2445, 2444, 2443, 2443, 2442, 2444, 2446, 2446, 2444, 2445, 2444, 2442, 2444, 2443, 2444, 2441, 2440, 2442, 2444, 2441, 2443, 2441, 2442, 2439, 2442, 2441, 2439, 2442, 2444, 2443, 2440, 2442, 2442, 2444, 2443, 2443, 2443, 2443, 2444, 2442, 2445, 2443, 2443, 2445, 2443, 2443, 2442, 2442, 2444, 2442, 2444, 2442, 2441, 2443, 2443, 2441, 2441, 2443, 2442, 2439, 2441, 2443, 2442, 2440, 2441, 2443, 2442, 2442, 2446, 2444, 2444, 2443, 2444, 2443, 2444, 2443, 2444, 2444, 2442, 2446, 2447, 2443, 2442, 2445, 2446, 2443],
      "WindowCenter": [1067.0, 1067.0, 1067.0, 1067.0, 1067.0, 1067.0, 1067.0, 1067.0, 1066.0, 1066.0, 1066.0, 1067.0, 1066.0, 1066.0, 1066.0, 1066.0, 1066.0, 1066.0, 1066.0, 1066.0, 1066.0, 1066.0, 1066.0, 1066.0, 1066.0, 1066.0, 1066.0, 1067.0, 1066.0, 1066.0, 1066.0, 1066.0, 1066.0, 1066.0, 1066.0, 1066.0, 1066.0, 1066.0, 1066.0, 1066.0, 1066.0, 1066.0, 1066.0, 1066.0, 1066.0, 1066.0, 1066.0, 1066.0, 1066.0, 1066.0, 1066.0, 1066.0, 1066.0, 1066.0, 1066.0, 1066.0, 1066.0, 1066.0, 1066.0, 1066.0, 1066.0, 1065.0, 1066.0, 1066.0, 1066.0, 1066.0, 1066.0, 1065.0, 1066.0, 1066.0, 1066.0, 1066.0, 1066.0, 1066.0, 1066.0, 1065.0, 1066.0, 1065.0, 1066.0, 1065.0, 1065.0, 1065.0, 1065.0, 1065.0, 1065.0, 1065.0, 1065.0, 1065.0, 1065.0, 1065.0, 1065.0, 1065.0, 1065.0, 1065.0, 1065.0, 1065.0, 1065.0, 1065.0, 1065.0, 1065.0, 1065.0, 1065.0, 1065.0, 1065.0, 1065.0, 1065.0, 1066.0, 1065.0, 1065.0, 1065.0, 1065.0, 1065.0, 1065.0, 1065.0, 1065.0, 1065.0, 1065.0, 1065.0, 1065.0, 1065.0, 1065.0, 1065.0, 1065.0, 1065.0, 1065.0, 1065.0, 1065.0, 1065.0, 1065.0, 1065.0, 1065.0, 1065.0, 1065.0, 1065.0, 1065.0, 1065.0, 1065.0, 1065.0, 1065.0, 1065.0, 1065.0, 1065.0, 1065.0, 1065.0, 1065.0, 1065.0, 1065.0, 1065.0, 1065.0, 1065.0, 1065.0, 1065.0, 1065.0, 1065.0, 1065.0, 1065.0, 1065.0, 1065.0, 1065.0, 1065.0, 1065.0, 1065.0, 1065.0, 1065.0, 1065.0, 1065.0, 1065.0, 1065.0, 1065.0, 1065.0, 1065.0, 1065.0, 1065.0, 1065.0, 1065.0, 1065.0, 1065.0, 1065.0, 1065.0, 1065.0, 1064.0, 1064.0, 1065.0, 1065.0, 1064.0, 1064.0, 1064.0, 1064.0, 1064.0, 1064.0, 1064.0, 1064.0, 1064.0, 1064.0, 1064.0, 1064.0, 1064.0, 1064.0, 1064.0, 1064.0],
      "WindowWidth": [2439.0, 2439.0, 2439.0, 2439.0, 2439.0, 2439.0, 2438.0, 2439.0, 2439.0, 2438.0, 2438.0, 2438.0, 2439.0, 2438.0, 2438.0, 2439.0, 2439.0, 2439.0, 2439.0, 2439.0, 2439.0, 2438.0, 2438.0, 2439.0, 2438.0, 2438.0, 2438.0, 2438.0, 2438.0, 2438.0, 2438.0, 2438.0, 2437.0, 2438.0, 2438.0, 2438.0, 2438.0, 2437.0, 2437.0, 2437.0, 2437.0, 2437.0, 2437.0, 2437.0, 2437.0, 2437.0, 2437.0, 2437.0, 2437.0, 2437.0, 2437.0, 2437.0, 2437.0, 2437.0, 2437.0, 2437.0, 2437.0, 2437.0, 2437.0, 2437.0, 2437.0, 2437.0, 2437.0, 2437.0, 2437.0, 2437.0, 2437.0, 2437.0, 2436.0, 2436.0, 2436.0, 2436.0, 2436.0, 2436.0, 2436.0, 2436.0, 2436.0, 2436.0, 2436.0, 2436.0, 2436.0, 2436.0, 2436.0, 2436.0, 2436.0, 2436.0, 2436.0, 2436.0, 2436.0, 2436.0, 2436.0, 2436.0, 2436.0, 2436.0, 2436.0, 2436.0, 2436.0, 2436.0, 2436.0, 2436.0, 2436.0, 2436.0, 2436.0, 2436.0, 2436.0, 2436.0, 2437.0, 2436.0, 2436.0, 2436.0, 2436.0, 2436.0, 2436.0, 2436.0, 2436.0, 2436.0, 2436.0, 2436.0, 2436.0, 2436.0, 2436.0, 2436.0, 2436.0, 2435.0, 2436.0, 2436.0, 2435.0, 2436.0, 2436.0, 2436.0, 2436.0, 2436.0, 2435.0, 2435.0, 2436.0, 2435.0, 2436.0, 2435.0, 2435.0, 2435.0, 2435.0, 2435.0, 2435.0, 2436.0, 2436.0, 2436.0, 2435.0, 2435.0, 2435.0, 2436.0, 2435.0, 2436.0, 2435.0, 2435.0, 2435.0, 2435.0, 2435.0, 2435.0, 2435.0, 2435.0, 2435.0, 2435.0, 2435.0, 2435.0, 2435.0, 2435.0, 2435.0, 2435.0, 2435.0, 2435.0, 2435.0, 2435.0, 2435.0, 2435.0, 2435.0, 2435.0, 2435.0, 2435.0, 2435.0, 2435.0, 2435.0, 2435.0, 2435.0, 2435.0, 2435.0, 2435.0, 2435.0, 2435.0, 2435.0, 2435.0, 2435.0, 2435.0, 2435.0, 2435.0, 2435.0, 2435.0, 2435.0, 2435.0, 2435.0, 2435.0]
    },
    "slices": {}
  }
}