{
  "AcquisitionMatrixPE": 80,
  "AcquisitionNumber": 1,
  "AcquisitionTime": "10:05:37.602500",
  "BandwidthPerPixelPhaseEncode": 48.077,
  "BaseResolution": 80,
  "BodyPartExamined": "BRAIN",
  "CoilCombinationMethod": "Sum of Squares",
  "ConsistencyInfo": "N4_VE11C_LATEST_20160120",
  "ConversionSoftware": "dcm2niix",
  "ConversionSoftwareVersion": "v1.0.20220720",
  "DerivedVendorReportedEchoSpacing": 0.000519999,
  "DeviceSerialNumber": "66112",
  "DwellTime": 2.7e-06,
  "EchoTime": 0.035,
  "EchoTrainLength": 39,
  "EffectiveEchoSpacing": 0.00026,
  "FlipAngle": 90,
  "HeudiconvVersion": "0.13.1",
  "ImageOrientationPatientDICOM": [0.984406, -0.175862, 0.00416923, 0.166323, 0.938204, 0.303496],
  "ImageOrientationText": "Tra>Cor(17.4)>Sag(3.3)",
  "ImageType": [
    "ORIGINAL",
    "PRIMARY",
    "M",
    "ND",
    "NORM",
    "MOSAIC"
],
  "ImagingFrequency": 123.252,
  "InPlanePhaseEncodingDirectionDICOM": "COL",
  "InstitutionAddress": "Maynard 3,Hanover,NH,US,03755",
  "InstitutionName": "Dartmouth College - PBS",
  "InstitutionalDepartmentName": "Department",
  "MRAcquisitionType": "2D",
  "MagneticFieldStrength": 3,
  "Manufacturer": "Siemens",
  "ManufacturersModelName": "Prisma",
  "MatrixCoilMode": "GRAPPA",
  "Modality": "MR",
  "NonlinearGradientCorrection": false,
  "ParallelReductionFactorInPlane": 2,
  "PartialFourier": 1,
  "PatientPosition": "HFS",
  "PercentPhaseFOV": 100,
  "PercentSampling": 100,
  "PhaseEncodingDirection": "j-",
  "PhaseEncodingSteps": 79,
  "PhaseResolution": 1,
  "PixelBandwidth": 2315,
  "ProcedureStepDescription": "dbic^QA",
  "ProtocolName": "func-bold_task-rest_acq-p2",
  "PulseSequenceDetails": "%SiemensSeq%\\ep2d_bold",
  "ReceiveCoilActiveElements": "HEA;HEP",
  "ReceiveCoilName": "Head_32",
  "ReconMatrixPE": 80,
  "RefLinesPE": 24,
  "RepetitionTime": 2,
  "SAR": 0.0553191,
  "ScanOptions": "FS",
  "ScanningSequence": "EP",
  "SequenceName": "*epfid2d1_80",
  "SequenceVariant": "SK",
  "SeriesDescription": "func-bold_task-rest_acq-p2",
  "SeriesNumber": 5,
  "ShimSetting": [4156, -7692, -7510, 299, -30, -147, -51, 110],
  "SliceThickness": 3.5,
  "SliceTiming": [0.99, 0, 1.0575, 0.0675, 1.1225, 0.1325, 1.1875, 0.1975, 1.255, 0.265, 1.32, 0.33, 1.3875, 0.3975, 1.4525, 0.4625, 1.5175, 0.5275, 1.585, 0.595, 1.65, 0.66, 1.7175, 0.7275, 1.7825, 0.7925, 1.8475, 0.8575, 1.915, 0.925],
  "SoftwareVersions": "syngo MR E11",
  "SpacingBetweenSlices": 3.99,
  "StationName": "AWP66112",
  "TaskName": "rest",
  "TotalReadoutTime": 0.02054,
  "TxRefAmp": 225.629,
  "dcmmeta_affine": [
    [-2.9532177448272705, 0.49896910786628723, 0.22856739163398743, 93.47689819335938],
    [0.5275868773460388, 2.81461238861084, 1.1892979145050049, -141.4643096923828],
    [0.012507688254117966, -0.9104874730110168, 3.8017663955688477, -21.190805435180664],
    [0.0, 0.0, 0.0, 1.0]
],
  "dcmmeta_reorient_transform": [
    [0.0, -1.0, 0.0, 79.0],
    [1.0, 0.0, 0.0, 0.0],
    [0.0, 0.0, 1.0, 0.0],
    [0.0, 0.0, 0.0, 1.0]
],
  "dcmmeta_shape": [80, 80, 30, 200],
  "dcmmeta_slice_dim": 2,
  "dcmmeta_version": 0.6,
  "global": {
    "const": {
      "AccessionNumber": "qa",
      "AcquisitionMatrix": [80, 0, 0, 80],
      "AngioFlag": "N",
      "BitsAllocated": 16,
      "BitsStored": 12,
      "BodyPartExamined": "BRAIN",
      "Columns": 480,
      "EchoNumbers": 1,
      "EchoTime": 35.0,
      "EchoTrainLength": 39,
      "FlipAngle": 90.0,
      "HighBit": 11,
      "ImageOrientationPatient": [0.98440594682886, -0.1758623023091, 0.00416922948621, 0.1663230395809, 0.93820409958296, 0.30349582209694],
      "ImagePositionPatient": [-823.33284884509, -538.2951383029, -277.71834580686],
      "ImageType": [
        "ORIGINAL",
        "PRIMARY",
        "M",
        "ND",
        "NORM",
        "MOSAIC"
],
      "ImagedNucleus": "1H",
      "ImagingFrequency": 123.252464,
      "InPlanePhaseEncodingDirection": "COL",
      "MRAcquisitionType": "2D",
      "MagneticFieldStrength": 3.0,
      "Manufacturer": "SIEMENS",
      "ManufacturerModelName": "Prisma",
      "Modality": "MR",
      "NumberOfAverages": 1.0,
      "NumberOfPhaseEncodingSteps": 79,
      "PercentPhaseFieldOfView": 100.0,
      "PercentSampling": 100.0,
      "PerformedProcedureStepStartTime": "094200.109000",
      "PhotometricInterpretation": "MONOCHROME2",
      "PixelBandwidth": 2315.0,
      "PixelRepresentation": 0,
      "PixelSpacing": [3.0, 3.0],
      "ProtocolName": "func-bold_task-rest_acq-p2",
      "RepetitionTime": 2000.0,
      "Rows": 480,
      "SAR": 0.0553190817033,
      "SamplesPerPixel": 1,
      "ScanOptions": "FS",
      "ScanningSequence": "EP",
      "SequenceName": "*epfid2d1_80",
      "SequenceVariant": "SK",
      "SeriesDescription": "func-bold_task-rest_acq-p2",
      "SeriesNumber": 5,
      "SeriesTime": "100626.140000",
      "SliceLocation": -57.002488613287,
      "SliceThickness": 3.5,
      "SmallestImagePixelValue": 0,
      "SoftwareVersions": "syngo MR E11",
      "SpacingBetweenSlices": 3.9899999863816,
      "SpecificCharacterSet": "ISO_IR 100",
      "StudyID": "85",
      "StudyTime": "094200.040000",
      "TransmitCoilName": "Body",
      "VariableFlipAngleFlag": "N",
      "WindowCenterWidthExplanation": "Algo1",
      "dBdt": 0.0},
    "slices": {}
  },
  "time": {
    "samples": {
      "AcquisitionNumber": [1, 2, 3, 4, 5, 6, 7, 8, 9, 10, 11, 12, 13, 14, 15, 16, 17, 18, 19, 20, 21, 22, 23, 24, 25, 26, 27, 28, 29, 30, 31, 32, 33, 34, 35, 36, 37, 38, 39, 40, 41, 42, 43, 44, 45, 46, 47, 48, 49, 50, 51, 52, 53, 54, 55, 56, 57, 58, 59, 60, 61, 62, 63, 64, 65, 66, 67, 68, 69, 70, 71, 72, 73, 74, 75, 76, 77, 78, 79, 80, 81, 82, 83, 84, 85, 86, 87, 88, 89, 90, 91, 92, 93, 94, 95, 96, 97, 98, 99, 100, 101, 102, 103, 104, 105, 106, 107, 108, 109, 110, 111, 112, 113, 114, 115, 116, 117, 118, 119, 120, 121, 122, 123, 124, 125, 126, 127, 128, 129, 130, 131, 132, 133, 134, 135, 136, 137, 138, 139, 140, 141, 142, 143, 144, 145, 146, 147, 148, 149, 150, 151, 152, 153, 154, 155, 156, 157, 158, 159, 160, 161, 162, 163, 164, 165, 166, 167, 168, 169, 170, 171, 172, 173, 174, 175, 176, 177, 178, 179, 180, 181, 182, 183, 184, 185, 186, 187, 188, 189, 190, 191, 192, 193, 194, 195, 196, 197, 198, 199, 200],
      "AcquisitionTime": ["100537.602500", "100539.602500", "100541.602500", "100543.602500", "100545.602500", "100547.602500", "100549.602500", "100551.602500", "100553.602500", "100555.602500", "100557.602500", "100559.602500", "100601.602500", "100603.602500", "100605.602500", "100607.602500", "100609.602500", "100611.602500", "100613.602500", "100615.602500", "100617.602500", "100619.602500", "100621.602500", "100623.602500", "100625.602500", "100627.602500", "100629.602500", "100631.602500", "100633.602500", "100635.602500", "100637.602500", "100639.602500", "100641.602500", "100643.602500", "100645.602500", "100647.602500", "100649.602500", "100651.602500", "100653.602500", "100655.602500", "100657.602500", "100659.602500", "100701.602500", "100703.602500", "100705.602500", "100707.602500", "100709.602500", "100711.602500", "100713.602500", "100715.602500", "100717.602500", "100719.602500", "100721.602500", "100723.602500", "100725.602500", "100727.602500", "100729.602500", "100731.602500", "100733.602500", "100735.602500", "100737.602500", "100739.602500", "100741.602500", "100743.602500", "100745.602500", "100747.602500", "100749.602500", "100751.602500", "100753.602500", "100755.602500", "100757.602500", "100759.602500", "100801.602500", "100803.602500", "100805.602500", "100807.602500", "100809.602500", "100811.602500", "100813.602500", "100815.602500", "100817.602500", "100819.602500", "100821.602500", "100823.602500", "100825.602500", "100827.602500", "100829.602500", "100831.602500", "100833.602500", "100835.602500", "100837.602500", "100839.602500", "100841.602500", "100843.602500", "100845.602500", "100847.602500", "100849.602500", "100851.602500", "100853.602500", "100855.602500", "100857.602500", "100859.602500", "100901.602500", "100903.602500", "100905.602500", "100907.602500", "100909.602500", "100911.602500", "100913.602500", "100915.602500", "100917.602500", "100919.602500", "100921.602500", "100923.602500", "100925.602500", "100927.602500", "100929.602500", "100931.602500", "100933.602500", "100935.602500", "100937.602500", "100939.602500", "100941.602500", "100943.602500", "100945.602500", "100947.602500", "100949.602500", "100951.602500", "100953.602500", "100955.602500", "100957.602500", "100959.602500", "101001.602500", "101003.602500", "101005.602500", "101007.602500", "101009.602500", "101011.602500", "101013.602500", "101015.602500", "101017.602500", "101019.602500", "101021.602500", "101023.602500", "101025.602500", "101027.602500", "101029.602500", "101031.602500", "101033.602500", "101035.602500", "101037.602500", "101039.602500", "101041.602500", "101043.602500", "101045.602500", "101047.602500", "101049.602500", "101051.602500", "101053.602500", "101055.602500", "101057.602500", "101059.602500", "101101.602500", "101103.602500", "101105.602500", "101107.602500", "101109.602500", "101111.602500", "101113.602500", "101115.602500", "101117.602500", "101119.602500", "101121.602500", "101123.602500", "101125.602500", "101127.602500", "101129.602500", "101131.602500", "101133.602500", "101135.602500", "101137.602500", "101139.602500", "101141.602500", "101143.602500", "101145.602500", "101147.602500", "101149.602500", "101151.602500", "101153.602500", "101155.602500", "101157.602500", "101159.602500", "101201.602500", "101203.602500", "101205.602500", "101207.602500", "101209.602500", "101211.602500", "101213.602500", "101215.602500"],
      "ContentTime": ["100626.144000", "100626.155000", "100626.158000", "100626.160000", "100626.163000", "100626.165000", "100626.168000", "100626.181000", "100626.183000", "100626.186000", "100626.188000", "100626.191000", "100626.194000", "100626.196000", "100626.199000", "100626.201000", "100626.207000", "100626.209000", "100626.212000", "100626.214000", "100626.217000", "100626.219000", "100626.222000", "100626.224000", "100706.093000", "100706.106000", "100706.109000", "100706.111000", "100706.114000", "100706.116000", "100706.119000", "100706.122000", "100706.124000", "100706.127000", "100706.130000", "100706.132000", "100706.134000", "100706.137000", "100706.140000", "100706.142000", "100706.145000", "100706.147000", "100706.150000", "100706.152000", "100746.094000", "100746.096000", "100746.099000", "100746.101000", "100746.104000", "100746.106000", "100746.109000", "100746.111000", "100746.114000", "100746.116000", "100746.119000", "100746.121000", "100746.124000", "100746.126000", "100746.129000", "100746.131000", "100746.134000", "100746.136000", "100746.139000", "100746.141000", "100806.094000", "100806.097000", "100806.100000", "100806.102000", "100806.105000", "100806.107000", "100806.110000", "100806.112000", "100806.115000", "100806.117000", "100846.094000", "100846.097000", "100846.100000", "100846.102000", "100846.105000", "100846.107000", "100846.110000", "100846.112000", "100846.115000", "100846.117000", "100846.120000", "100846.122000", "100846.125000", "100846.127000", "100846.130000", "100846.132000", "100846.134000", "100846.137000", "100846.139000", "100846.142000", "100926.093000", "100926.096000", "100926.099000", "100926.101000", "100926.104000", "100926.106000", "100926.109000", "100926.111000", "100926.114000", "100926.116000", "100926.119000", "100926.121000", "100926.124000", "100926.126000", "100926.129000", "100926.131000", "100926.134000", "100926.136000", "100926.139000", "100926.141000", "101006.093000", "101006.096000", "101006.099000", "101006.101000", "101006.104000", "101006.106000", "101006.109000", "101006.111000", "101006.114000", "101006.116000", "101006.119000", "101006.121000", "101006.124000", "101006.126000", "101006.129000", "101006.131000", "101006.133000", "101006.136000", "101006.138000", "101006.141000", "101046.094000", "101046.097000", "101046.100000", "101046.102000", "101046.105000", "101046.107000", "101046.110000", "101046.112000", "101046.115000", "101046.117000", "101046.120000", "101046.122000", "101046.125000", "101046.127000", "101046.130000", "101046.132000", "101046.135000", "101046.137000", "101046.140000", "101046.142000", "101126.093000", "101126.096000", "101126.099000", "101126.101000", "101126.104000", "101126.106000", "101126.109000", "101126.111000", "101126.114000", "101126.116000", "101126.119000", "101126.121000", "101126.124000", "101126.126000", "101126.129000", "101126.131000", "101126.134000", "101126.137000", "101126.139000", "101126.142000", "101206.093000", "101206.096000", "101206.099000", "101206.101000", "101206.104000", "101206.106000", "101206.109000", "101206.111000", "101206.114000", "101206.116000", "101206.119000", "101206.121000", "101206.124000", "101206.126000", "101206.129000", "101206.131000", "101206.133000", "101206.136000", "101206.139000", "101206.141000", "101216.967000", "101216.970000", "101216.973000", "101216.976000", "101216.978000", "101216.981000"],
      "InstanceCreationTime": ["100626.144000", "100626.155000", "100626.158000", "100626.160000", "100626.163000", "100626.165000", "100626.168000", "100626.181000", "100626.183000", "100626.186000", "100626.188000", "100626.191000", "100626.194000", "100626.196000", "100626.199000", "100626.201000", "100626.207000", "100626.209000", "100626.212000", "100626.214000", "100626.217000", "100626.219000", "100626.222000", "100626.224000", "100706.093000", "100706.106000", "100706.109000", "100706.111000", "100706.114000", "100706.116000", "100706.119000", "100706.122000", "100706.124000", "100706.127000", "100706.130000", "100706.132000", "100706.134000", "100706.137000", "100706.140000", "100706.142000", "100706.145000", "100706.147000", "100706.150000", "100706.152000", "100746.094000", "100746.096000", "100746.099000", "100746.101000", "100746.104000", "100746.106000", "100746.109000", "100746.111000", "100746.114000", "100746.116000", "100746.119000", "100746.121000", "100746.124000", "100746.126000", "100746.129000", "100746.131000", "100746.134000", "100746.136000", "100746.139000", "100746.141000", "100806.094000", "100806.097000", "100806.100000", "100806.102000", "100806.105000", "100806.107000", "100806.110000", "100806.112000", "100806.115000", "100806.117000", "100846.094000", "100846.097000", "100846.100000", "100846.102000", "100846.105000", "100846.107000", "100846.110000", "100846.112000", "100846.115000", "100846.117000", "100846.120000", "100846.122000", "100846.125000", "100846.127000", "100846.130000", "100846.132000", "100846.134000", "100846.137000", "100846.139000", "100846.142000", "100926.093000", "100926.096000", "100926.099000", "100926.101000", "100926.104000", "100926.106000", "100926.109000", "100926.111000", "100926.114000", "100926.116000", "100926.119000", "100926.121000", "100926.124000", "100926.126000", "100926.129000", "100926.131000", "100926.134000", "100926.136000", "100926.139000", "100926.141000", "101006.093000", "101006.096000", "101006.099000", "101006.101000", "101006.104000", "101006.106000", "101006.109000", "101006.111000", "101006.114000", "101006.116000", "101006.119000", "101006.121000", "101006.124000", "101006.126000", "101006.129000", "101006.131000", "101006.133000", "101006.136000", "101006.138000", "101006.141000", "101046.094000", "101046.097000", "101046.100000", "101046.102000", "101046.105000", "101046.107000", "101046.110000", "101046.112000", "101046.115000", "101046.117000", "101046.120000", "101046.122000", "101046.125000", "101046.127000", "101046.130000", "101046.132000", "101046.135000", "101046.137000", "101046.140000", "101046.142000", "101126.093000", "101126.096000", "101126.099000", "101126.101000", "101126.104000", "101126.106000", "101126.109000", "101126.111000", "101126.114000", "101126.116000", "101126.119000", "101126.121000", "101126.124000", "101126.126000", "101126.129000", "101126.131000", "101126.134000", "101126.137000", "101126.139000", "101126.142000", "101206.093000", "101206.096000", "101206.099000", "101206.101000", "101206.104000", "101206.106000", "101206.109000", "101206.111000", "101206.114000", "101206.116000", "101206.119000", "101206.121000", "101206.124000", "101206.126000", "101206.129000", "101206.131000", "101206.133000", "101206.136000", "101206.139000", "101206.141000", "101216.967000", "101216.970000", "101216.973000", "101216.976000", "101216.978000", "101216.981000"],
      "InstanceNumber": [1, 2, 3, 4, 5, 6, 7, 8, 9, 10, 11, 12, 13, 14, 15, 16, 17, 18, 19, 20, 21, 22, 23, 24, 25, 26, 27, 28, 29, 30, 31, 32, 33, 34, 35, 36, 37, 38, 39, 40, 41, 42, 43, 44, 45, 46, 47, 48, 49, 50, 51, 52, 53, 54, 55, 56, 57, 58, 59, 60, 61, 62, 63, 64, 65, 66, 67, 68, 69, 70, 71, 72, 73, 74, 75, 76, 77, 78, 79, 80, 81, 82, 83, 84, 85, 86, 87, 88, 89, 90, 91, 92, 93, 94, 95, 96, 97, 98, 99, 100, 101, 102, 103, 104, 105, 106, 107, 108, 109, 110, 111, 112, 113, 114, 115, 116, 117, 118, 119, 120, 121, 122, 123, 124, 125, 126, 127, 128, 129, 130, 131, 132, 133, 134, 135, 136, 137, 138, 139, 140, 141, 142, 143, 144, 145, 146, 147, 148, 149, 150, 151, 152, 153, 154, 155, 156, 157, 158, 159, 160, 161, 162, 163, 164, 165, 166, 167, 168, 169, 170, 171, 172, 173, 174, 175, 176, 177, 178, 179, 180, 181, 182, 183, 184, 185, 186, 187, 188, 189, 190, 191, 192, 193, 194, 195, 196, 197, 198, 199, 200],
      "LargestImagePixelValue": [1933, 1929, 1934, 1934, 1934, 1937, 1928, 1935, 1931, 1938, 1934, 1935, 1936, 1939, 1937, 1939, 1933, 1935, 1929, 1929, 1936, 1934, 1934, 1930, 1940, 1936, 1933, 1936, 1938, 1940, 1935, 1935, 1930, 1935, 1931, 1930, 1932, 1932, 1937, 1930, 1936, 1936, 1928, 1930, 1940, 1935, 1930, 1936, 1936, 1932, 1931, 1937, 1930, 1935, 1946, 1936, 1937, 1935, 1929, 1935, 1935, 1935, 1935, 1933, 1937, 1934, 1938, 1933, 1935, 1939, 1937, 1936, 1938, 1936, 1933, 1935, 1937, 1940, 1935, 1930, 1932, 1937, 1937, 1933, 1934, 1939, 1934, 1939, 1930, 1937, 1934, 1943, 1937, 1935, 1930, 1930, 1935, 1934, 1940, 1935, 1929, 1937, 1934, 1936, 1935, 1936, 1934, 1936, 1937, 1932, 1931, 1927, 1936, 1936, 1935, 1934, 1934, 1931, 1930, 1935, 1929, 1938, 1932, 1932, 1937, 1935, 1931, 1936, 1933, 1933, 1935, 1931, 1928, 1937, 1941, 1934, 1935, 1930, 1936, 1940, 1934, 1937, 1933, 1929, 1933, 1937, 1933, 1932, 1930, 1927, 1936, 1934, 1936, 1937, 1933, 1941, 1935, 1935, 1931, 1930, 1933, 1929, 1934, 1935, 1935, 1932, 1940, 1935, 1937, 1936, 1937, 1932, 1934, 1937, 1931, 1932, 1936, 1934, 1932, 1933, 1935, 1939, 1941, 1929, 1934, 1934, 1931, 1933, 1936, 1932, 1932, 1934, 1933, 1933, 1932, 1933, 1932, 1933, 1930, 1942],
      "WindowCenter": [955.0, 954.0, 955.0, 954.0, 954.0, 954.0, 954.0, 955.0, 954.0, 954.0, 954.0, 954.0, 954.0, 954.0, 954.0, 954.0, 955.0, 955.0, 954.0, 954.0, 954.0, 954.0, 954.0, 954.0, 954.0, 954.0, 954.0, 954.0, 954.0, 954.0, 954.0, 954.0, 954.0, 954.0, 954.0, 954.0, 954.0, 954.0, 954.0, 954.0, 954.0, 954.0, 954.0, 954.0, 954.0, 954.0, 954.0, 955.0, 955.0, 954.0, 954.0, 954.0, 955.0, 954.0, 954.0, 954.0, 954.0, 955.0, 954.0, 954.0, 954.0, 955.0, 954.0, 954.0, 954.0, 955.0, 954.0, 954.0, 955.0, 954.0, 955.0, 954.0, 954.0, 954.0, 955.0, 954.0, 954.0, 955.0, 954.0, 954.0, 954.0, 954.0, 954.0, 954.0, 954.0, 954.0, 954.0, 954.0, 954.0, 955.0, 954.0, 954.0, 954.0, 954.0, 954.0, 954.0, 954.0, 954.0, 954.0, 954.0, 954.0, 955.0, 954.0, 954.0, 954.0, 954.0, 954.0, 954.0, 955.0, 954.0, 954.0, 954.0, 954.0, 954.0, 954.0, 954.0, 954.0, 954.0, 954.0, 954.0, 954.0, 954.0, 954.0, 954.0, 954.0, 954.0, 954.0, 954.0, 955.0, 955.0, 954.0, 954.0, 954.0, 954.0, 955.0, 954.0, 954.0, 954.0, 954.0, 954.0, 955.0, 954.0, 954.0, 954.0, 954.0, 954.0, 954.0, 954.0, 954.0, 954.0, 955.0, 954.0, 954.0, 954.0, 954.0, 954.0, 954.0, 954.0, 954.0, 954.0, 954.0, 954.0, 955.0, 954.0, 955.0, 954.0, 954.0, 954.0, 954.0, 954.0, 954.0, 954.0, 954.0, 954.0, 954.0, 955.0, 954.0, 955.0, 954.0, 954.0, 954.0, 954.0, 954.0, 955.0, 954.0, 954.0, 955.0, 954.0, 954.0, 954.0, 954.0, 954.0, 954.0, 954.0, 955.0, 954.0, 954.0, 954.0, 954.0, 955.0],
      "WindowWidth": [2071.0, 2070.0, 2071.0, 2070.0, 2070.0, 2070.0, 2070.0, 2071.0, 2070.0, 2070.0, 2070.0, 2070.0, 2070.0, 2070.0, 2070.0, 2070.0, 2071.0, 2071.0, 2070.0, 2070.0, 2070.0, 2070.0, 2070.0, 2070.0, 2070.0, 2070.0, 2070.0, 2070.0, 2070.0, 2070.0, 2070.0, 2070.0, 2070.0, 2070.0, 2070.0, 2070.0, 2070.0, 2070.0, 2070.0, 2070.0, 2070.0, 2070.0, 2070.0, 2070.0, 2070.0, 2070.0, 2070.0, 2071.0, 2070.0, 2070.0, 2070.0, 2070.0, 2071.0, 2070.0, 2070.0, 2069.0, 2069.0, 2071.0, 2069.0, 2070.0, 2069.0, 2070.0, 2070.0, 2070.0, 2070.0, 2071.0, 2070.0, 2069.0, 2070.0, 2069.0, 2070.0, 2070.0, 2070.0, 2069.0, 2070.0, 2070.0, 2069.0, 2071.0, 2070.0, 2070.0, 2070.0, 2070.0, 2070.0, 2070.0, 2070.0, 2069.0, 2069.0, 2070.0, 2069.0, 2070.0, 2069.0, 2069.0, 2069.0, 2069.0, 2069.0, 2069.0, 2070.0, 2069.0, 2069.0, 2070.0, 2069.0, 2070.0, 2069.0, 2069.0, 2069.0, 2070.0, 2069.0, 2069.0, 2070.0, 2070.0, 2070.0, 2069.0, 2070.0, 2069.0, 2069.0, 2069.0, 2069.0, 2070.0, 2069.0, 2069.0, 2070.0, 2069.0, 2069.0, 2069.0, 2070.0, 2069.0, 2069.0, 2069.0, 2070.0, 2070.0, 2069.0, 2069.0, 2069.0, 2069.0, 2070.0, 2069.0, 2069.0, 2069.0, 2070.0, 2069.0, 2070.0, 2070.0, 2069.0, 2070.0, 2069.0, 2069.0, 2069.0, 2069.0, 2069.0, 2069.0, 2070.0, 2069.0, 2070.0, 2070.0, 2069.0, 2069.0, 2069.0, 2069.0, 2069.0, 2069.0, 2069.0, 2070.0, 2070.0, 2069.0, 2070.0, 2069.0, 2069.0, 2069.0, 2069.0, 2069.0, 2069.0, 2069.0, 2070.0, 2069.0, 2069.0, 2070.0, 2069.0, 2070.0, 2069.0, 2069.0, 2069.0, 2069.0, 2069.0, 2070.0, 2069.0, 2069.0, 2070.0, 2069.0, 2069.0, 2069.0, 2069.0, 2069.0, 2069.0, 2069.0, 2070.0, 2069.0, 2069.0, 2069.0, 2069.0, 2070.0]
    },
    "slices": {}
  }
}