{
  "AcquisitionMatrixPE": 80,
  "AcquisitionNumber": 1,
  "AcquisitionTime": "08:36:27.790000",
  "BandwidthPerPixelPhaseEncode": 48.077,
  "BaseResolution": 80,
  "BodyPartExamined": "BRAIN",
  "CoilCombinationMethod": "Sum of Squares",
  "ConsistencyInfo": "N4_VE11C_LATEST_20160120",
  "ConversionSoftware": "dcm2niix",
  "ConversionSoftwareVersion": "v1.0.20220720",
  "DerivedVendorReportedEchoSpacing": 0.000519999,
  "DeviceSerialNumber": "66112",
  "DwellTime": 2.7e-06,
  "EchoTime": 0.035,
  "EchoTrainLength": 39,
  "EffectiveEchoSpacing": 0.00026,
  "FlipAngle": 90,
  "HeudiconvVersion": "0.13.1",
  "ImageOrientationPatientDICOM": [0.98481, -0.17363, 0.00166411, 0.164271, 0.934745, 0.315065],
  "ImageOrientationText": "Tra>Cor(18.1)>Sag(3.2)",
  "ImageType": [
    "ORIGINAL",
    "PRIMARY",
    "M",
    "ND",
    "NORM",
    "MOSAIC"
],
  "ImagingFrequency": 123.252,
  "InPlanePhaseEncodingDirectionDICOM": "COL",
  "InstitutionAddress": "Maynard 3,Hanover,NH,US,03755",
  "InstitutionName": "Dartmouth College - PBS",
  "InstitutionalDepartmentName": "Department",
  "MRAcquisitionType": "2D",
  "MagneticFieldStrength": 3,
  "Manufacturer": "Siemens",
  "ManufacturersModelName": "Prisma",
  "MatrixCoilMode": "GRAPPA",
  "Modality": "MR",
  "NonlinearGradientCorrection": false,
  "ParallelReductionFactorInPlane": 2,
  "PartialFourier": 1,
  "PatientPosition": "HFS",
  "PercentPhaseFOV": 100,
  "PercentSampling": 100,
  "PhaseEncodingDirection": "j-",
  "PhaseEncodingSteps": 79,
  "PhaseResolution": 1,
  "PixelBandwidth": 2315,
  "ProcedureStepDescription": "dbic^QA",
  "ProtocolName": "func-bold_task-rest_acq-p2",
  "PulseSequenceDetails": "%SiemensSeq%\\ep2d_bold",
  "ReceiveCoilActiveElements": "HC1-7;NC1,2",
  "ReceiveCoilName": "HeadNeck_64",
  "ReconMatrixPE": 80,
  "RefLinesPE": 24,
  "RepetitionTime": 2,
  "SAR": 0.0363272,
  "ScanOptions": "FS",
  "ScanningSequence": "EP",
  "SequenceName": "*epfid2d1_80",
  "SequenceVariant": "SK",
  "SeriesDescription": "func-bold_task-rest_acq-p2",
  "SeriesNumber": 5,
  "ShimSetting": [4139, -7680, -7506, 186, -79, -335, -43, 104],
  "SliceThickness": 3.5,
  "SliceTiming": [0.99, 0, 1.055, 0.065, 1.12, 0.13, 1.1875, 0.1975, 1.2525, 0.2625, 1.32, 0.33, 1.385, 0.395, 1.45, 0.46, 1.5175, 0.5275, 1.5825, 0.5925, 1.65, 0.66, 1.715, 0.725, 1.78, 0.79, 1.8475, 0.8575, 1.9125, 0.9225],
  "SoftwareVersions": "syngo MR E11",
  "SpacingBetweenSlices": 3.99,
  "StationName": "AWP66112",
  "TaskName": "rest",
  "TotalReadoutTime": 0.02054,
  "TxRefAmp": 217.953,
  "dcmmeta_affine": [
    [-2.9544289112091064, 0.49281182885169983, 0.2244783490896225, 98.560302734375],
    [0.520889163017273, 2.8042361736297607, 1.2369242906570435, -133.06837463378906],
    [0.004992326721549034, -0.9451962113380432, 3.786783456802368, -41.15364456176758],
    [0.0, 0.0, 0.0, 1.0]
],
  "dcmmeta_reorient_transform": [
    [0.0, -1.0, 0.0, 79.0],
    [1.0, 0.0, 0.0, 0.0],
    [0.0, 0.0, 1.0, 0.0],
    [0.0, 0.0, 0.0, 1.0]
],
  "dcmmeta_shape": [80, 80, 30, 200],
  "dcmmeta_slice_dim": 2,
  "dcmmeta_version": 0.6,
  "global": {
    "const": {
      "AccessionNumber": "qa64",
      "AcquisitionMatrix": [80, 0, 0, 80],
      "AngioFlag": "N",
      "BitsAllocated": 16,
      "BitsStored": 12,
      "BodyPartExamined": "BRAIN",
      "Columns": 480,
      "EchoNumbers": 1,
      "EchoTime": 35.0,
      "EchoTrainLength": 39,
      "FlipAngle": 90.0,
      "HighBit": 11,
      "ImageOrientationPatient": [0.98480960290467, -0.1736297116512, 0.00166410896924, 0.16427060593182, 0.93474539486206, 0.31506541354292],
      "ImagePositionPatient": [-826.94056375515, -545.13569027874, -305.86186082301],
      "ImageType": [
        "ORIGINAL",
        "PRIMARY",
        "M",
        "ND",
        "NORM",
        "MOSAIC"
],
      "ImagedNucleus": "1H",
      "ImagingFrequency": 123.25237,
      "InPlanePhaseEncodingDirection": "COL",
      "MRAcquisitionType": "2D",
      "MagneticFieldStrength": 3.0,
      "Manufacturer": "SIEMENS",
      "ManufacturerModelName": "Prisma",
      "Modality": "MR",
      "NumberOfAverages": 1.0,
      "NumberOfPhaseEncodingSteps": 79,
      "PercentPhaseFieldOfView": 100.0,
      "PercentSampling": 100.0,
      "PerformedProcedureStepStartTime": "083423.934000",
      "PhotometricInterpretation": "MONOCHROME2",
      "PixelBandwidth": 2315.0,
      "PixelRepresentation": 0,
      "PixelSpacing": [3.0, 3.0],
      "ProtocolName": "func-bold_task-rest_acq-p2",
      "RepetitionTime": 2000.0,
      "Rows": 480,
      "SAR": 0.03632719814347,
      "SamplesPerPixel": 1,
      "ScanOptions": "FS",
      "ScanningSequence": "EP",
      "SequenceName": "*epfid2d1_80",
      "SequenceVariant": "SK",
      "SeriesDescription": "func-bold_task-rest_acq-p2",
      "SeriesNumber": 5,
      "SeriesTime": "083718.060000",
      "SliceLocation": -74.764607899035,
      "SliceThickness": 3.5,
      "SmallestImagePixelValue": 0,
      "SoftwareVersions": "syngo MR E11",
      "SpacingBetweenSlices": 3.9900000811041,
      "SpecificCharacterSet": "ISO_IR 100",
      "StudyID": "10",
      "StudyTime": "083423.874000",
      "TransmitCoilName": "Body",
      "VariableFlipAngleFlag": "N",
      "WindowCenterWidthExplanation": "Algo1",
      "dBdt": 0.0},
    "slices": {}
  },
  "time": {
    "samples": {
      "AcquisitionNumber": [1, 2, 3, 4, 5, 6, 7, 8, 9, 10, 11, 12, 13, 14, 15, 16, 17, 18, 19, 20, 21, 22, 23, 24, 25, 26, 27, 28, 29, 30, 31, 32, 33, 34, 35, 36, 37, 38, 39, 40, 41, 42, 43, 44, 45, 46, 47, 48, 49, 50, 51, 52, 53, 54, 55, 56, 57, 58, 59, 60, 61, 62, 63, 64, 65, 66, 67, 68, 69, 70, 71, 72, 73, 74, 75, 76, 77, 78, 79, 80, 81, 82, 83, 84, 85, 86, 87, 88, 89, 90, 91, 92, 93, 94, 95, 96, 97, 98, 99, 100, 101, 102, 103, 104, 105, 106, 107, 108, 109, 110, 111, 112, 113, 114, 115, 116, 117, 118, 119, 120, 121, 122, 123, 124, 125, 126, 127, 128, 129, 130, 131, 132, 133, 134, 135, 136, 137, 138, 139, 140, 141, 142, 143, 144, 145, 146, 147, 148, 149, 150, 151, 152, 153, 154, 155, 156, 157, 158, 159, 160, 161, 162, 163, 164, 165, 166, 167, 168, 169, 170, 171, 172, 173, 174, 175, 176, 177, 178, 179, 180, 181, 182, 183, 184, 185, 186, 187, 188, 189, 190, 191, 192, 193, 194, 195, 196, 197, 198, 199, 200],
      "AcquisitionTime": ["083627.790000", "083629.790000", "083631.790000", "083633.790000", "083635.790000", "083637.790000", "083639.790000", "083641.790000", "083643.790000", "083645.790000", "083647.790000", "083649.790000", "083651.790000", "083653.790000", "083655.790000", "083657.790000", "083659.790000", "083701.790000", "083703.790000", "083705.790000", "083707.790000", "083709.790000", "083711.790000", "083713.790000", "083715.790000", "083717.790000", "083719.790000", "083721.790000", "083723.790000", "083725.790000", "083727.790000", "083729.790000", "083731.790000", "083733.790000", "083735.790000", "083737.790000", "083739.790000", "083741.790000", "083743.790000", "083745.790000", "083747.790000", "083749.790000", "083751.790000", "083753.790000", "083755.790000", "083757.790000", "083759.790000", "083801.790000", "083803.790000", "083805.790000", "083807.790000", "083809.790000", "083811.790000", "083813.790000", "083815.790000", "083817.790000", "083819.790000", "083821.790000", "083823.790000", "083825.790000", "083827.790000", "083829.790000", "083831.790000", "083833.790000", "083835.790000", "083837.790000", "083839.790000", "083841.790000", "083843.790000", "083845.790000", "083847.790000", "083849.790000", "083851.790000", "083853.790000", "083855.790000", "083857.790000", "083859.790000", "083901.790000", "083903.790000", "083905.790000", "083907.790000", "083909.790000", "083911.790000", "083913.790000", "083915.790000", "083917.790000", "083919.790000", "083921.790000", "083923.790000", "083925.790000", "083927.790000", "083929.790000", "083931.790000", "083933.790000", "083935.790000", "083937.790000", "083939.790000", "083941.790000", "083943.790000", "083945.790000", "083947.790000", "083949.790000", "083951.790000", "083953.790000", "083955.790000", "083957.790000", "083959.790000", "084001.790000", "084003.790000", "084005.790000", "084007.790000", "084009.790000", "084011.790000", "084013.790000", "084015.790000", "084017.790000", "084019.790000", "084021.790000", "084023.790000", "084025.790000", "084027.790000", "084029.790000", "084031.790000", "084033.790000", "084035.790000", "084037.790000", "084039.790000", "084041.790000", "084043.790000", "084045.790000", "084047.790000", "084049.790000", "084051.790000", "084053.790000", "084055.790000", "084057.790000", "084059.790000", "084101.790000", "084103.790000", "084105.790000", "084107.790000", "084109.790000", "084111.790000", "084113.790000", "084115.790000", "084117.790000", "084119.790000", "084121.790000", "084123.790000", "084125.790000", "084127.790000", "084129.790000", "084131.790000", "084133.790000", "084135.790000", "084137.790000", "084139.790000", "084141.790000", "084143.790000", "084145.790000", "084147.790000", "084149.790000", "084151.790000", "084153.790000", "084155.790000", "084157.790000", "084159.790000", "084201.790000", "084203.790000", "084205.790000", "084207.790000", "084209.790000", "084211.790000", "084213.790000", "084215.790000", "084217.790000", "084219.790000", "084221.790000", "084223.790000", "084225.790000", "084227.790000", "084229.790000", "084231.790000", "084233.790000", "084235.790000", "084237.790000", "084239.790000", "084241.790000", "084243.790000", "084245.790000", "084247.790000", "084249.790000", "084251.790000", "084253.790000", "084255.790000", "084257.790000", "084259.790000", "084301.790000", "084303.790000", "084305.790000"],
      "ContentTime": ["083718.064000", "083718.073000", "083718.076000", "083718.078000", "083718.081000", "083718.092000", "083718.095000", "083718.097000", "083718.100000", "083718.102000", "083718.105000", "083718.107000", "083718.110000", "083718.113000", "083718.115000", "083718.118000", "083718.120000", "083718.123000", "083718.125000", "083718.128000", "083718.130000", "083718.133000", "083718.136000", "083718.138000", "083718.141000", "083758.040000", "083758.043000", "083758.046000", "083758.049000", "083758.052000", "083758.054000", "083758.057000", "083758.059000", "083758.062000", "083758.064000", "083758.067000", "083758.069000", "083758.072000", "083758.074000", "083758.077000", "083758.080000", "083758.082000", "083758.085000", "083758.098000", "083758.100000", "083838.040000", "083838.043000", "083838.045000", "083838.048000", "083838.050000", "083838.053000", "083838.055000", "083838.058000", "083838.061000", "083838.064000", "083838.066000", "083838.069000", "083838.072000", "083838.075000", "083838.078000", "083838.081000", "083838.083000", "083838.086000", "083838.089000", "083838.091000", "083918.041000", "083918.044000", "083918.046000", "083918.049000", "083918.052000", "083918.055000", "083918.057000", "083918.060000", "083918.062000", "083918.065000", "083918.068000", "083918.070000", "083918.073000", "083918.075000", "083918.078000", "083918.080000", "083918.083000", "083918.086000", "083918.088000", "083918.091000", "083958.040000", "083958.042000", "083958.045000", "083958.047000", "083958.050000", "083958.053000", "083958.055000", "083958.058000", "083958.060000", "083958.063000", "083958.065000", "083958.068000", "083958.071000", "083958.073000", "083958.076000", "083958.078000", "083958.081000", "083958.083000", "083958.086000", "083958.088000", "084038.040000", "084038.042000", "084038.055000", "084038.057000", "084038.060000", "084038.063000", "084038.065000", "084038.068000", "084038.070000", "084038.073000", "084038.075000", "084038.078000", "084038.080000", "084038.083000", "084038.085000", "084038.088000", "084038.090000", "084038.093000", "084038.095000", "084038.098000", "084118.041000", "084118.044000", "084118.046000", "084118.049000", "084118.052000", "084118.054000", "084118.057000", "084118.059000", "084118.062000", "084118.064000", "084118.067000", "084118.070000", "084118.072000", "084118.075000", "084118.077000", "084118.080000", "084118.083000", "084118.085000", "084118.088000", "084118.091000", "084158.039000", "084158.042000", "084158.045000", "084158.047000", "084158.050000", "084158.053000", "084158.055000", "084158.058000", "084158.060000", "084158.063000", "084158.066000", "084158.068000", "084158.071000", "084158.073000", "084158.076000", "084158.078000", "084158.081000", "084158.083000", "084158.086000", "084158.088000", "084238.040000", "084238.042000", "084238.045000", "084238.047000", "084238.050000", "084238.053000", "084238.055000", "084238.058000", "084238.060000", "084238.063000", "084238.065000", "084238.068000", "084238.070000", "084238.073000", "084238.075000", "084238.078000", "084238.080000", "084238.083000", "084238.086000", "084238.088000", "084307.266000", "084307.268000", "084307.271000", "084307.274000", "084307.276000", "084307.279000", "084307.281000", "084307.284000", "084307.287000", "084307.289000", "084307.292000", "084307.295000", "084307.303000", "084307.306000", "084307.309000"],
      "InstanceCreationTime": ["083718.064000", "083718.073000", "083718.076000", "083718.078000", "083718.081000", "083718.092000", "083718.095000", "083718.097000", "083718.100000", "083718.102000", "083718.105000", "083718.107000", "083718.110000", "083718.113000", "083718.115000", "083718.118000", "083718.120000", "083718.123000", "083718.125000", "083718.128000", "083718.130000", "083718.133000", "083718.136000", "083718.138000", "083718.141000", "083758.040000", "083758.043000", "083758.046000", "083758.049000", "083758.052000", "083758.054000", "083758.057000", "083758.059000", "083758.062000", "083758.064000", "083758.067000", "083758.069000", "083758.072000", "083758.074000", "083758.077000", "083758.080000", "083758.082000", "083758.085000", "083758.098000", "083758.100000", "083838.040000", "083838.043000", "083838.045000", "083838.048000", "083838.050000", "083838.053000", "083838.055000", "083838.058000", "083838.061000", "083838.064000", "083838.066000", "083838.069000", "083838.072000", "083838.075000", "083838.078000", "083838.081000", "083838.083000", "083838.086000", "083838.089000", "083838.091000", "083918.041000", "083918.044000", "083918.046000", "083918.049000", "083918.052000", "083918.055000", "083918.057000", "083918.060000", "083918.062000", "083918.065000", "083918.068000", "083918.070000", "083918.073000", "083918.075000", "083918.078000", "083918.080000", "083918.083000", "083918.086000", "083918.088000", "083918.091000", "083958.040000", "083958.042000", "083958.045000", "083958.047000", "083958.050000", "083958.053000", "083958.055000", "083958.058000", "083958.060000", "083958.063000", "083958.065000", "083958.068000", "083958.071000", "083958.073000", "083958.076000", "083958.078000", "083958.081000", "083958.083000", "083958.086000", "083958.088000", "084038.040000", "084038.042000", "084038.055000", "084038.057000", "084038.060000", "084038.063000", "084038.065000", "084038.068000", "084038.070000", "084038.073000", "084038.075000", "084038.078000", "084038.080000", "084038.083000", "084038.085000", "084038.088000", "084038.090000", "084038.093000", "084038.095000", "084038.098000", "084118.041000", "084118.044000", "084118.046000", "084118.049000", "084118.052000", "084118.054000", "084118.057000", "084118.059000", "084118.062000", "084118.064000", "084118.067000", "084118.070000", "084118.072000", "084118.075000", "084118.077000", "084118.080000", "084118.083000", "084118.085000", "084118.088000", "084118.091000", "084158.039000", "084158.042000", "084158.045000", "084158.047000", "084158.050000", "084158.053000", "084158.055000", "084158.058000", "084158.060000", "084158.063000", "084158.066000", "084158.068000", "084158.071000", "084158.073000", "084158.076000", "084158.078000", "084158.081000", "084158.083000", "084158.086000", "084158.088000", "084238.040000", "084238.042000", "084238.045000", "084238.047000", "084238.050000", "084238.053000", "084238.055000", "084238.058000", "084238.060000", "084238.063000", "084238.065000", "084238.068000", "084238.070000", "084238.073000", "084238.075000", "084238.078000", "084238.080000", "084238.083000", "084238.086000", "084238.088000", "084307.266000", "084307.268000", "084307.271000", "084307.274000", "084307.276000", "084307.279000", "084307.281000", "084307.284000", "084307.287000", "084307.289000", "084307.292000", "084307.295000", "084307.303000", "084307.306000", "084307.309000"],
      "InstanceNumber": [1, 2, 3, 4, 5, 6, 7, 8, 9, 10, 11, 12, 13, 14, 15, 16, 17, 18, 19, 20, 21, 22, 23, 24, 25, 26, 27, 28, 29, 30, 31, 32, 33, 34, 35, 36, 37, 38, 39, 40, 41, 42, 43, 44, 45, 46, 47, 48, 49, 50, 51, 52, 53, 54, 55, 56, 57, 58, 59, 60, 61, 62, 63, 64, 65, 66, 67, 68, 69, 70, 71, 72, 73, 74, 75, 76, 77, 78, 79, 80, 81, 82, 83, 84, 85, 86, 87, 88, 89, 90, 91, 92, 93, 94, 95, 96, 97, 98, 99, 100, 101, 102, 103, 104, 105, 106, 107, 108, 109, 110, 111, 112, 113, 114, 115, 116, 117, 118, 119, 120, 121, 122, 123, 124, 125, 126, 127, 128, 129, 130, 131, 132, 133, 134, 135, 136, 137, 138, 139, 140, 141, 142, 143, 144, 145, 146, 147, 148, 149, 150, 151, 152, 153, 154, 155, 156, 157, 158, 159, 160, 161, 162, 163, 164, 165, 166, 167, 168, 169, 170, 171, 172, 173, 174, 175, 176, 177, 178, 179, 180, 181, 182, 183, 184, 185, 186, 187, 188, 189, 190, 191, 192, 193, 194, 195, 196, 197, 198, 199, 200],
      "LargestImagePixelValue": [4095, 4095, 4095, 4095, 4095, 4095, 4095, 4095, 4095, 4095, 4095, 4095, 4095, 4095, 4095, 4095, 4095, 4095, 4095, 4095, 4095, 4095, 4095, 4095, 4095, 4095, 4095, 4095, 4095, 4095, 4095, 4095, 4095, 4095, 4095, 4095, 4095, 4095, 4095, 4095, 4095, 4095, 4095, 4095, 4095, 4095, 4095, 4095, 4095, 4095, 4095, 4095, 4095, 4095, 4095, 4095, 4095, 4095, 4095, 4095, 4095, 4095, 4095, 4095, 4095, 4095, 4095, 4095, 4095, 4095, 4095, 4095, 4095, 4095, 4095, 4095, 4095, 4095, 4095, 4095, 4095, 4095, 4095, 4095, 4095, 4095, 4095, 4095, 4095, 4095, 4095, 4095, 4095, 4095, 4095, 4095, 4095, 4095, 4095, 4095, 4095, 4095, 4095, 4095, 4089, 4095, 4093, 4095, 4095, 4095, 4095, 4095, 4095, 4095, 4095, 4095, 4095, 4095, 4095, 4095, 4095, 4095, 4077, 4095, 4086, 4081, 4095, 4095, 4095, 4091, 4076, 4095, 4095, 4095, 4091, 4086, 4095, 4095, 4085, 4082, 4095, 4095, 4088, 4095, 4095, 4095, 4095, 4095, 4095, 4095, 4095, 4095, 4095, 4095, 4095, 4095, 4095, 4095, 4095, 4095, 4095, 4095, 4095, 4095, 4095, 4095, 4095, 4095, 4095, 4095, 4095, 4095, 4095, 4095, 4095, 4095, 4095, 4095, 4095, 4095, 4095, 4095, 4095, 4095, 4095, 4095, 4095, 4095, 4095, 4095, 4095, 4095, 4095, 4095, 4095, 4095, 4095, 4095, 4095, 4095],
      "WindowCenter": [1440.0, 1439.0, 1439.0, 1438.0, 1438.0, 1439.0, 1439.0, 1439.0, 1438.0, 1438.0, 1438.0, 1438.0, 1438.0, 1438.0, 1438.0, 1438.0, 1437.0, 1437.0, 1438.0, 1437.0, 1439.0, 1438.0, 1438.0, 1438.0, 1437.0, 1437.0, 1437.0, 1437.0, 1437.0, 1437.0, 1437.0, 1438.0, 1438.0, 1437.0, 1437.0, 1436.0, 1437.0, 1437.0, 1437.0, 1437.0, 1436.0, 1437.0, 1437.0, 1437.0, 1436.0, 1436.0, 1436.0, 1437.0, 1437.0, 1436.0, 1436.0, 1436.0, 1436.0, 1436.0, 1436.0, 1436.0, 1436.0, 1436.0, 1435.0, 1436.0, 1435.0, 1435.0, 1435.0, 1435.0, 1435.0, 1435.0, 1435.0, 1436.0, 1435.0, 1435.0, 1434.0, 1435.0, 1435.0, 1435.0, 1435.0, 1435.0, 1435.0, 1434.0, 1434.0, 1435.0, 1435.0, 1434.0, 1434.0, 1434.0, 1434.0, 1434.0, 1434.0, 1434.0, 1434.0, 1434.0, 1434.0, 1434.0, 1434.0, 1434.0, 1434.0, 1434.0, 1433.0, 1433.0, 1434.0, 1434.0, 1434.0, 1433.0, 1434.0, 1433.0, 1434.0, 1433.0, 1434.0, 1434.0, 1434.0, 1434.0, 1433.0, 1433.0, 1433.0, 1433.0, 1433.0, 1433.0, 1433.0, 1433.0, 1433.0, 1433.0, 1433.0, 1433.0, 1433.0, 1433.0, 1433.0, 1433.0, 1432.0, 1432.0, 1432.0, 1433.0, 1433.0, 1433.0, 1433.0, 1433.0, 1433.0, 1433.0, 1433.0, 1433.0, 1432.0, 1432.0, 1433.0, 1433.0, 1432.0, 1432.0, 1433.0, 1432.0, 1433.0, 1432.0, 1432.0, 1432.0, 1432.0, 1432.0, 1432.0, 1432.0, 1432.0, 1432.0, 1432.0, 1432.0, 1432.0, 1432.0, 1432.0, 1432.0, 1432.0, 1431.0, 1432.0, 1432.0, 1432.0, 1431.0, 1432.0, 1432.0, 1432.0, 1432.0, 1432.0, 1432.0, 1431.0, 1432.0, 1432.0, 1431.0, 1432.0, 1432.0, 1431.0, 1432.0, 1432.0, 1431.0, 1431.0, 1431.0, 1432.0, 1432.0, 1431.0, 1431.0, 1432.0, 1431.0, 1431.0, 1432.0, 1431.0, 1431.0, 1431.0, 1431.0, 1431.0, 1431.0],
      "WindowWidth": [3309.0, 3309.0, 3308.0, 3309.0, 3308.0, 3308.0, 3308.0, 3308.0, 3308.0, 3308.0, 3308.0, 3308.0, 3307.0, 3307.0, 3307.0, 3307.0, 3307.0, 3307.0, 3307.0, 3307.0, 3306.0, 3307.0, 3307.0, 3307.0, 3307.0, 3307.0, 3307.0, 3307.0, 3307.0, 3307.0, 3306.0, 3306.0, 3306.0, 3306.0, 3306.0, 3306.0, 3306.0, 3306.0, 3306.0, 3306.0, 3306.0, 3305.0, 3305.0, 3305.0, 3306.0, 3306.0, 3306.0, 3305.0, 3305.0, 3305.0, 3305.0, 3305.0, 3305.0, 3305.0, 3305.0, 3305.0, 3305.0, 3305.0, 3305.0, 3304.0, 3305.0, 3305.0, 3305.0, 3305.0, 3304.0, 3305.0, 3304.0, 3304.0, 3304.0, 3304.0, 3304.0, 3304.0, 3304.0, 3304.0, 3304.0, 3304.0, 3304.0, 3304.0, 3304.0, 3303.0, 3303.0, 3304.0, 3304.0, 3304.0, 3304.0, 3303.0, 3304.0, 3304.0, 3303.0, 3303.0, 3303.0, 3303.0, 3303.0, 3303.0, 3303.0, 3303.0, 3303.0, 3303.0, 3303.0, 3303.0, 3303.0, 3303.0, 3303.0, 3303.0, 3302.0, 3303.0, 3302.0, 3302.0, 3302.0, 3302.0, 3303.0, 3303.0, 3303.0, 3303.0, 3302.0, 3302.0, 3302.0, 3302.0, 3302.0, 3302.0, 3302.0, 3302.0, 3302.0, 3302.0, 3302.0, 3302.0, 3302.0, 3302.0, 3302.0, 3301.0, 3301.0, 3301.0, 3301.0, 3301.0, 3301.0, 3301.0, 3301.0, 3301.0, 3301.0, 3301.0, 3301.0, 3301.0, 3301.0, 3301.0, 3301.0, 3301.0, 3301.0, 3301.0, 3301.0, 3301.0, 3301.0, 3301.0, 3301.0, 3301.0, 3300.0, 3300.0, 3300.0, 3300.0, 3300.0, 3301.0, 3300.0, 3300.0, 3300.0, 3300.0, 3300.0, 3300.0, 3300.0, 3300.0, 3300.0, 3300.0, 3300.0, 3300.0, 3300.0, 3300.0, 3300.0, 3300.0, 3300.0, 3300.0, 3300.0, 3300.0, 3300.0, 3300.0, 3300.0, 3300.0, 3300.0, 3300.0, 3300.0, 3300.0, 3300.0, 3300.0, 3299.0, 3299.0, 3300.0, 3299.0, 3300.0, 3299.0, 3299.0, 3299.0, 3299.0, 3300.0]
    },
    "slices": {}
  }
}