{
  "AcquisitionMatrixPE": 80,
  "AcquisitionNumber": 1,
  "AcquisitionTime": "08:43:18.522500",
  "BandwidthPerPixelPhaseEncode": 25,
  "BaseResolution": 80,
  "BodyPartExamined": "BRAIN",
  "CoilCombinationMethod": "Sum of Squares",
  "ConsistencyInfo": "N4_VE11C_LATEST_20160120",
  "ConversionSoftware": "dcm2niix",
  "ConversionSoftwareVersion": "v1.0.20220720",
  "DerivedVendorReportedEchoSpacing": 0.0005,
  "DeviceSerialNumber": "66112",
  "DwellTime": 2.7e-06,
  "EchoTime": 0.03,
  "EchoTrainLength": 80,
  "EffectiveEchoSpacing": 0.0005,
  "FlipAngle": 77,
  "HeudiconvVersion": "0.13.1",
  "ImageOrientationPatientDICOM": [0.98481, -0.17363, 0.00166411, 0.164271, 0.934745, 0.315065],
  "ImageOrientationText": "Tra>Cor(18.1)>Sag(3.2)",
  "ImageType": [
    "ORIGINAL",
    "PRIMARY",
    "M",
    "ND",
    "NORM",
    "MOSAIC"
],
  "ImagingFrequency": 123.252,
  "InPlanePhaseEncodingDirectionDICOM": "COL",
  "InstitutionAddress": "Maynard 3,Hanover,NH,US,03755",
  "InstitutionName": "Dartmouth College - PBS",
  "InstitutionalDepartmentName": "Department",
  "MRAcquisitionType": "2D",
  "MagneticFieldStrength": 3,
  "Manufacturer": "Siemens",
  "ManufacturersModelName": "Prisma",
  "MatrixCoilMode": "SENSE",
  "Modality": "MR",
  "NonlinearGradientCorrection": false,
  "PartialFourier": 1,
  "PatientPosition": "HFS",
  "PercentPhaseFOV": 100,
  "PercentSampling": 100,
  "PhaseEncodingDirection": "j-",
  "PhaseEncodingSteps": 80,
  "PhaseResolution": 1,
  "PixelBandwidth": 2315,
  "ProcedureStepDescription": "dbic^QA",
  "ProtocolName": "func-bold_fa-77",
  "PulseSequenceDetails": "%SiemensSeq%\\ep2d_bold",
  "ReceiveCoilActiveElements": "HC1-7;NC1,2",
  "ReceiveCoilName": "HeadNeck_64",
  "ReconMatrixPE": 80,
  "RepetitionTime": 2,
  "SAR": 0.0285477,
  "ScanOptions": "FS",
  "ScanningSequence": "EP",
  "SequenceName": "*epfid2d1_80",
  "SequenceVariant": "SK",
  "SeriesDescription": "func-bold_fa-77",
  "SeriesNumber": 7,
  "ShimSetting": [4139, -7680, -7507, 188, -76, -335, -41, 103],
  "SliceThickness": 3.5,
  "SliceTiming": [0.99, 0, 1.0575, 0.0675, 1.1225, 0.1325, 1.1875, 0.1975, 1.255, 0.265, 1.32, 0.33, 1.3875, 0.3975, 1.4525, 0.4625, 1.5175, 0.5275, 1.585, 0.595, 1.65, 0.66, 1.7175, 0.7275, 1.7825, 0.7925, 1.8475, 0.8575, 1.915, 0.925],
  "SoftwareVersions": "syngo MR E11",
  "SpacingBetweenSlices": 3.99,
  "StationName": "AWP66112",
  "TotalReadoutTime": 0.0395,
  "TxRefAmp": 217.953,
  "dcmmeta_affine": [
    [-2.9544289112091064, 0.49281182885169983, 0.2244783341884613, 97.05696868896484],
    [0.520889163017273, 2.8042361736297607, 1.2369242906570435, -130.54302978515625],
    [0.004992326721549034, -0.9451962113380432, 3.786783218383789, -40.5424690246582],
    [0.0, 0.0, 0.0, 1.0]
],
  "dcmmeta_reorient_transform": [
    [0.0, -1.0, 0.0, 79.0],
    [1.0, 0.0, 0.0, 0.0],
    [0.0, 0.0, 1.0, 0.0],
    [0.0, 0.0, 0.0, 1.0]
],
  "dcmmeta_shape": [80, 80, 30, 200],
  "dcmmeta_slice_dim": 2,
  "dcmmeta_version": 0.6,
  "global": {
    "const": {
      "AccessionNumber": "qa64",
      "AcquisitionMatrix": [80, 0, 0, 80],
      "AngioFlag": "N",
      "BitsAllocated": 16,
      "BitsStored": 12,
      "BodyPartExamined": "BRAIN",
      "Columns": 480,
      "EchoNumbers": 1,
      "EchoTime": 30.0,
      "EchoTrainLength": 80,
      "FlipAngle": 77.0,
      "HighBit": 11,
      "ImageOrientationPatient": [0.98480960290467, -0.1736297116512, 0.00166410896924, 0.16427060593182, 0.93474539486206, 0.31506541354292],
      "ImagePositionPatient": [-825.43722503078, -547.66103962752, -305.2506852859],
      "ImageType": [
        "ORIGINAL",
        "PRIMARY",
        "M",
        "ND",
        "NORM",
        "MOSAIC"
],
      "ImagedNucleus": "1H",
      "ImagingFrequency": 123.252368,
      "InPlanePhaseEncodingDirection": "COL",
      "MRAcquisitionType": "2D",
      "MagneticFieldStrength": 3.0,
      "Manufacturer": "SIEMENS",
      "ManufacturerModelName": "Prisma",
      "Modality": "MR",
      "NumberOfAverages": 1.0,
      "NumberOfPhaseEncodingSteps": 80,
      "PercentPhaseFieldOfView": 100.0,
      "PercentSampling": 100.0,
      "PerformedProcedureStepStartTime": "083423.934000",
      "PhotometricInterpretation": "MONOCHROME2",
      "PixelBandwidth": 2315.0,
      "PixelRepresentation": 0,
      "PixelSpacing": [3.0, 3.0],
      "ProtocolName": "func-bold_fa-77",
      "RepetitionTime": 2000.0,
      "Rows": 480,
      "SAR": 0.02854772455024,
      "SamplesPerPixel": 1,
      "ScanOptions": "FS",
      "ScanningSequence": "EP",
      "SequenceName": "*epfid2d1_80",
      "SequenceVariant": "SK",
      "SeriesDescription": "func-bold_fa-77",
      "SeriesNumber": 7,
      "SeriesTime": "084358.113000",
      "SliceLocation": -73.486264985639,
      "SliceThickness": 3.5,
      "SmallestImagePixelValue": 0,
      "SoftwareVersions": "syngo MR E11",
      "SpacingBetweenSlices": 3.9899999496866,
      "SpecificCharacterSet": "ISO_IR 100",
      "StudyID": "10",
      "StudyTime": "083423.874000",
      "TransmitCoilName": "Body",
      "VariableFlipAngleFlag": "N",
      "WindowCenterWidthExplanation": "Algo1",
      "dBdt": 0.0},
    "slices": {}
  },
  "time": {
    "samples": {
      "AcquisitionNumber": [1, 2, 3, 4, 5, 6, 7, 8, 9, 10, 11, 12, 13, 14, 15, 16, 17, 18, 19, 20, 21, 22, 23, 24, 25, 26, 27, 28, 29, 30, 31, 32, 33, 34, 35, 36, 37, 38, 39, 40, 41, 42, 43, 44, 45, 46, 47, 48, 49, 50, 51, 52, 53, 54, 55, 56, 57, 58, 59, 60, 61, 62, 63, 64, 65, 66, 67, 68, 69, 70, 71, 72, 73, 74, 75, 76, 77, 78, 79, 80, 81, 82, 83, 84, 85, 86, 87, 88, 89, 90, 91, 92, 93, 94, 95, 96, 97, 98, 99, 100, 101, 102, 103, 104, 105, 106, 107, 108, 109, 110, 111, 112, 113, 114, 115, 116, 117, 118, 119, 120, 121, 122, 123, 124, 125, 126, 127, 128, 129, 130, 131, 132, 133, 134, 135, 136, 137, 138, 139, 140, 141, 142, 143, 144, 145, 146, 147, 148, 149, 150, 151, 152, 153, 154, 155, 156, 157, 158, 159, 160, 161, 162, 163, 164, 165, 166, 167, 168, 169, 170, 171, 172, 173, 174, 175, 176, 177, 178, 179, 180, 181, 182, 183, 184, 185, 186, 187, 188, 189, 190, 191, 192, 193, 194, 195, 196, 197, 198, 199, 200],
      "AcquisitionTime": ["084318.522500", "084320.522500", "084322.522500", "084324.522500", "084326.522500", "084328.522500", "084330.522500", "084332.522500", "084334.522500", "084336.522500", "084338.522500", "084340.522500", "084342.522500", "084344.522500", "084346.522500", "084348.522500", "084350.522500", "084352.522500", "084354.522500", "084356.522500", "084358.522500", "084400.522500", "084402.522500", "084404.522500", "084406.522500", "084408.522500", "084410.522500", "084412.522500", "084414.522500", "084416.522500", "084418.522500", "084420.522500", "084422.522500", "084424.522500", "084426.522500", "084428.522500", "084430.522500", "084432.522500", "084434.522500", "084436.522500", "084438.522500", "084440.522500", "084442.522500", "084444.522500", "084446.522500", "084448.522500", "084450.522500", "084452.522500", "084454.522500", "084456.522500", "084458.522500", "084500.522500", "084502.522500", "084504.522500", "084506.522500", "084508.522500", "084510.522500", "084512.522500", "084514.522500", "084516.522500", "084518.522500", "084520.522500", "084522.522500", "084524.522500", "084526.522500", "084528.522500", "084530.522500", "084532.522500", "084534.522500", "084536.522500", "084538.522500", "084540.522500", "084542.522500", "084544.522500", "084546.522500", "084548.522500", "084550.522500", "084552.522500", "084554.522500", "084556.522500", "084558.522500", "084600.522500", "084602.522500", "084604.522500", "084606.522500", "084608.522500", "084610.522500", "084612.522500", "084614.522500", "084616.522500", "084618.522500", "084620.522500", "084622.522500", "084624.522500", "084626.522500", "084628.522500", "084630.522500", "084632.522500", "084634.522500", "084636.522500", "084638.522500", "084640.522500", "084642.522500", "084644.522500", "084646.522500", "084648.522500", "084650.522500", "084652.522500", "084654.522500", "084656.522500", "084658.522500", "084700.522500", "084702.522500", "084704.522500", "084706.522500", "084708.522500", "084710.522500", "084712.522500", "084714.522500", "084716.522500", "084718.522500", "084720.522500", "084722.522500", "084724.522500", "084726.522500", "084728.522500", "084730.522500", "084732.522500", "084734.522500", "084736.522500", "084738.522500", "084740.522500", "084742.522500", "084744.522500", "084746.522500", "084748.522500", "084750.522500", "084752.522500", "084754.522500", "084756.522500", "084758.522500", "084800.522500", "084802.522500", "084804.522500", "084806.522500", "084808.522500", "084810.522500", "084812.522500", "084814.522500", "084816.522500", "084818.522500", "084820.522500", "084822.522500", "084824.522500", "084826.522500", "084828.522500", "084830.522500", "084832.522500", "084834.522500", "084836.522500", "084838.522500", "084840.522500", "084842.522500", "084844.522500", "084846.522500", "084848.522500", "084850.522500", "084852.522500", "084854.522500", "084856.522500", "084858.522500", "084900.522500", "084902.522500", "084904.522500", "084906.522500", "084908.522500", "084910.522500", "084912.522500", "084914.522500", "084916.522500", "084918.522500", "084920.522500", "084922.522500", "084924.522500", "084926.522500", "084928.522500", "084930.522500", "084932.522500", "084934.522500", "084936.522500", "084938.522500", "084940.522500", "084942.522500", "084944.522500", "084946.522500", "084948.522500", "084950.522500", "084952.522500", "084954.522500", "084956.522500"],
      "ContentTime": ["084358.116000", "084358.120000", "084358.122000", "084358.125000", "084358.127000", "084358.130000", "084358.132000", "084358.135000", "084358.137000", "084358.140000", "084358.142000", "084358.151000", "084358.154000", "084358.157000", "084358.159000", "084358.162000", "084358.164000", "084358.167000", "084358.169000", "084438.111000", "084438.114000", "084438.116000", "084438.119000", "084438.121000", "084438.124000", "084438.126000", "084438.129000", "084438.131000", "084438.134000", "084438.136000", "084438.139000", "084438.141000", "084438.144000", "084438.146000", "084438.149000", "084438.152000", "084438.154000", "084438.156000", "084438.170000", "084518.110000", "084518.113000", "084518.116000", "084518.118000", "084518.121000", "084518.123000", "084518.126000", "084518.128000", "084518.131000", "084518.133000", "084518.136000", "084518.138000", "084518.141000", "084518.143000", "084518.146000", "084518.148000", "084518.151000", "084518.153000", "084518.156000", "084518.158000", "084558.111000", "084558.114000", "084558.117000", "084558.119000", "084558.122000", "084558.124000", "084558.127000", "084558.129000", "084558.132000", "084558.134000", "084558.137000", "084558.139000", "084558.142000", "084558.144000", "084558.147000", "084558.149000", "084558.152000", "084558.154000", "084558.157000", "084558.159000", "084638.110000", "084638.113000", "084638.116000", "084638.118000", "084638.121000", "084638.123000", "084638.126000", "084638.128000", "084638.131000", "084638.133000", "084638.136000", "084638.138000", "084638.141000", "084638.143000", "084638.146000", "084638.148000", "084638.151000", "084638.153000", "084638.156000", "084638.158000", "084718.110000", "084718.113000", "084718.116000", "084718.118000", "084718.121000", "084718.123000", "084718.126000", "084718.128000", "084718.131000", "084718.133000", "084718.136000", "084718.138000", "084718.141000", "084718.143000", "084718.146000", "084718.149000", "084718.151000", "084718.154000", "084718.156000", "084718.159000", "084758.110000", "084758.113000", "084758.116000", "084758.118000", "084758.121000", "084758.123000", "084758.126000", "084758.128000", "084758.131000", "084758.133000", "084758.136000", "084758.138000", "084758.141000", "084758.143000", "084758.146000", "084758.148000", "084758.151000", "084758.153000", "084758.156000", "084758.158000", "084838.112000", "084838.114000", "084838.117000", "084838.119000", "084838.122000", "084838.124000", "084838.127000", "084838.129000", "084838.132000", "084838.134000", "084838.137000", "084838.139000", "084838.142000", "084838.144000", "084838.147000", "084838.149000", "084838.152000", "084838.154000", "084838.157000", "084838.173000", "084918.111000", "084918.113000", "084918.116000", "084918.119000", "084918.121000", "084918.124000", "084918.126000", "084918.129000", "084918.131000", "084918.134000", "084918.136000", "084918.139000", "084918.141000", "084918.144000", "084918.146000", "084918.149000", "084918.151000", "084918.154000", "084918.156000", "084918.159000", "084958.110000", "084958.113000", "084958.116000", "084958.118000", "084958.121000", "084958.124000", "084958.126000", "084958.129000", "084958.131000", "084958.134000", "084958.136000", "084958.139000", "084958.141000", "084958.144000", "084958.146000", "084958.149000", "084958.151000", "084958.154000", "084958.156000", "084958.159000", "084958.387000"],
      "InstanceCreationTime": ["084358.116000", "084358.120000", "084358.122000", "084358.125000", "084358.127000", "084358.130000", "084358.132000", "084358.135000", "084358.137000", "084358.140000", "084358.142000", "084358.151000", "084358.154000", "084358.157000", "084358.159000", "084358.162000", "084358.164000", "084358.167000", "084358.169000", "084438.111000", "084438.114000", "084438.116000", "084438.119000", "084438.121000", "084438.124000", "084438.126000", "084438.129000", "084438.131000", "084438.134000", "084438.136000", "084438.139000", "084438.141000", "084438.144000", "084438.146000", "084438.149000", "084438.152000", "084438.154000", "084438.156000", "084438.170000", "084518.110000", "084518.113000", "084518.116000", "084518.118000", "084518.121000", "084518.123000", "084518.126000", "084518.128000", "084518.131000", "084518.133000", "084518.136000", "084518.138000", "084518.141000", "084518.143000", "084518.146000", "084518.148000", "084518.151000", "084518.153000", "084518.156000", "084518.158000", "084558.111000", "084558.114000", "084558.117000", "084558.119000", "084558.122000", "084558.124000", "084558.127000", "084558.129000", "084558.132000", "084558.134000", "084558.137000", "084558.139000", "084558.142000", "084558.144000", "084558.147000", "084558.149000", "084558.152000", "084558.154000", "084558.157000", "084558.159000", "084638.110000", "084638.113000", "084638.116000", "084638.118000", "084638.121000", "084638.123000", "084638.126000", "084638.128000", "084638.131000", "084638.133000", "084638.136000", "084638.138000", "084638.141000", "084638.143000", "084638.146000", "084638.148000", "084638.151000", "084638.153000", "084638.156000", "084638.158000", "084718.110000", "084718.113000", "084718.116000", "084718.118000", "084718.121000", "084718.123000", "084718.126000", "084718.128000", "084718.131000", "084718.133000", "084718.136000", "084718.138000", "084718.141000", "084718.143000", "084718.146000", "084718.149000", "084718.151000", "084718.154000", "084718.156000", "084718.159000", "084758.110000", "084758.113000", "084758.116000", "084758.118000", "084758.121000", "084758.123000", "084758.126000", "084758.128000", "084758.131000", "084758.133000", "084758.136000", "084758.138000", "084758.141000", "084758.143000", "084758.146000", "084758.148000", "084758.151000", "084758.153000", "084758.156000", "084758.158000", "084838.112000", "084838.114000", "084838.117000", "084838.119000", "084838.122000", "084838.124000", "084838.127000", "084838.129000", "084838.132000", "084838.134000", "084838.137000", "084838.139000", "084838.142000", "084838.144000", "084838.147000", "084838.149000", "084838.152000", "084838.154000", "084838.157000", "084838.173000", "084918.111000", "084918.113000", "084918.116000", "084918.119000", "084918.121000", "084918.124000", "084918.126000", "084918.129000", "084918.131000", "084918.134000", "084918.136000", "084918.139000", "084918.141000", "084918.144000", "084918.146000", "084918.149000", "084918.151000", "084918.154000", "084918.156000", "084918.159000", "084958.110000", "084958.113000", "084958.116000", "084958.118000", "084958.121000", "084958.124000", "084958.126000", "084958.129000", "084958.131000", "084958.134000", "084958.136000", "084958.139000", "084958.141000", "084958.144000", "084958.146000", "084958.149000", "084958.151000", "084958.154000", "084958.156000", "084958.159000", "084958.387000"],
      "InstanceNumber": [1, 2, 3, 4, 5, 6, 7, 8, 9, 10, 11, 12, 13, 14, 15, 16, 17, 18, 19, 20, 21, 22, 23, 24, 25, 26, 27, 28, 29, 30, 31, 32, 33, 34, 35, 36, 37, 38, 39, 40, 41, 42, 43, 44, 45, 46, 47, 48, 49, 50, 51, 52, 53, 54, 55, 56, 57, 58, 59, 60, 61, 62, 63, 64, 65, 66, 67, 68, 69, 70, 71, 72, 73, 74, 75, 76, 77, 78, 79, 80, 81, 82, 83, 84, 85, 86, 87, 88, 89, 90, 91, 92, 93, 94, 95, 96, 97, 98, 99, 100, 101, 102, 103, 104, 105, 106, 107, 108, 109, 110, 111, 112, 113, 114, 115, 116, 117, 118, 119, 120, 121, 122, 123, 124, 125, 126, 127, 128, 129, 130, 131, 132, 133, 134, 135, 136, 137, 138, 139, 140, 141, 142, 143, 144, 145, 146, 147, 148, 149, 150, 151, 152, 153, 154, 155, 156, 157, 158, 159, 160, 161, 162, 163, 164, 165, 166, 167, 168, 169, 170, 171, 172, 173, 174, 175, 176, 177, 178, 179, 180, 181, 182, 183, 184, 185, 186, 187, 188, 189, 190, 191, 192, 193, 194, 195, 196, 197, 198, 199, 200],
      "LargestImagePixelValue": [3997, 4002, 3998, 4003, 4006, 4009, 4005, 4005, 4001, 3999, 3999, 4007, 4005, 4006, 4007, 4007, 4005, 4001, 4005, 4003, 4001, 4003, 4002, 4002, 4004, 4002, 4007, 4003, 4002, 4003, 4006, 4001, 4002, 3999, 4001, 4000, 4000, 4001, 4003, 4002, 4003, 4003, 4004, 3999, 4001, 3997, 4000, 4000, 4004, 4005, 4005, 4000, 3999, 4003, 4002, 3995, 4003, 4004, 4008, 4005, 4003, 4004, 4000, 3998, 4002, 4002, 4001, 4003, 4003, 4004, 4004, 4005, 3997, 4000, 3998, 3996, 4000, 4005, 4001, 4002, 4001, 4004, 4005, 4004, 4001, 4000, 4003, 4004, 3999, 4000, 3998, 4003, 3998, 4004, 3999, 4004, 3997, 4000, 3999, 3998, 3994, 4000, 4001, 3998, 3998, 3998, 3999, 4001, 4001, 4003, 4000, 4002, 4000, 3998, 4001, 4005, 4004, 4000, 4003, 3998, 4005, 4000, 4003, 4002, 4001, 4002, 4006, 3999, 4000, 4004, 4004, 4003, 4002, 4001, 4005, 4002, 4005, 4007, 4001, 4002, 4003, 4003, 4002, 4002, 4004, 4003, 4001, 4002, 4002, 4000, 4004, 4001, 4005, 4007, 4006, 4004, 3999, 3997, 3998, 4001, 4001, 3998, 4004, 3999, 4001, 4005, 4003, 4007, 4001, 4003, 4004, 4006, 4004, 4002, 4006, 4003, 4003, 4004, 4007, 4005, 4005, 4008, 4004, 4003, 4000, 4005, 4008, 4000, 4001, 4003, 4007, 4004, 4003, 4002, 4008, 4005, 4006, 4006, 4006, 4003],
      "WindowCenter": [1370.0, 1370.0, 1371.0, 1370.0, 1370.0, 1371.0, 1370.0, 1370.0, 1370.0, 1370.0, 1370.0, 1370.0, 1370.0, 1369.0, 1369.0, 1369.0, 1370.0, 1369.0, 1369.0, 1369.0, 1369.0, 1370.0, 1370.0, 1370.0, 1370.0, 1370.0, 1370.0, 1369.0, 1369.0, 1369.0, 1370.0, 1369.0, 1370.0, 1369.0, 1369.0, 1369.0, 1369.0, 1369.0, 1369.0, 1369.0, 1369.0, 1369.0, 1369.0, 1369.0, 1369.0, 1368.0, 1369.0, 1368.0, 1368.0, 1369.0, 1369.0, 1369.0, 1368.0, 1369.0, 1368.0, 1369.0, 1368.0, 1369.0, 1368.0, 1368.0, 1369.0, 1369.0, 1368.0, 1368.0, 1368.0, 1368.0, 1368.0, 1369.0, 1369.0, 1369.0, 1368.0, 1368.0, 1368.0, 1368.0, 1368.0, 1368.0, 1368.0, 1368.0, 1368.0, 1368.0, 1368.0, 1368.0, 1367.0, 1368.0, 1367.0, 1366.0, 1366.0, 1367.0, 1367.0, 1367.0, 1366.0, 1367.0, 1366.0, 1366.0, 1366.0, 1365.0, 1366.0, 1366.0, 1366.0, 1366.0, 1366.0, 1365.0, 1366.0, 1366.0, 1366.0, 1366.0, 1366.0, 1366.0, 1367.0, 1367.0, 1366.0, 1365.0, 1367.0, 1366.0, 1366.0, 1366.0, 1366.0, 1366.0, 1365.0, 1365.0, 1366.0, 1366.0, 1366.0, 1365.0, 1366.0, 1365.0, 1365.0, 1365.0, 1365.0, 1366.0, 1365.0, 1364.0, 1365.0, 1365.0, 1365.0, 1365.0, 1365.0, 1365.0, 1366.0, 1365.0, 1365.0, 1365.0, 1365.0, 1365.0, 1366.0, 1364.0, 1365.0, 1365.0, 1365.0, 1366.0, 1365.0, 1365.0, 1365.0, 1365.0, 1365.0, 1365.0, 1365.0, 1365.0, 1365.0, 1365.0, 1365.0, 1365.0, 1364.0, 1365.0, 1365.0, 1364.0, 1365.0, 1365.0, 1365.0, 1364.0, 1366.0, 1365.0, 1365.0, 1365.0, 1365.0, 1364.0, 1365.0, 1365.0, 1364.0, 1364.0, 1364.0, 1364.0, 1365.0, 1365.0, 1364.0, 1364.0, 1365.0, 1365.0, 1364.0, 1365.0, 1364.0, 1364.0, 1364.0, 1364.0, 1364.0, 1364.0, 1364.0, 1364.0, 1364.0, 1364.0],
      "WindowWidth": [3281.0, 3281.0, 3281.0, 3282.0, 3282.0, 3281.0, 3281.0, 3281.0, 3281.0, 3281.0, 3281.0, 3281.0, 3281.0, 3281.0, 3281.0, 3281.0, 3281.0, 3281.0, 3281.0, 3281.0, 3281.0, 3281.0, 3281.0, 3281.0, 3281.0, 3281.0, 3281.0, 3281.0, 3281.0, 3281.0, 3281.0, 3281.0, 3281.0, 3281.0, 3281.0, 3281.0, 3281.0, 3281.0, 3281.0, 3281.0, 3281.0, 3281.0, 3280.0, 3280.0, 3280.0, 3280.0, 3280.0, 3280.0, 3280.0, 3280.0, 3280.0, 3280.0, 3280.0, 3280.0, 3280.0, 3280.0, 3280.0, 3280.0, 3280.0, 3280.0, 3280.0, 3280.0, 3280.0, 3280.0, 3280.0, 3280.0, 3280.0, 3280.0, 3280.0, 3280.0, 3280.0, 3280.0, 3280.0, 3280.0, 3280.0, 3280.0, 3279.0, 3280.0, 3280.0, 3280.0, 3280.0, 3279.0, 3279.0, 3279.0, 3279.0, 3278.0, 3278.0, 3279.0, 3278.0, 3278.0, 3278.0, 3278.0, 3278.0, 3278.0, 3277.0, 3278.0, 3277.0, 3277.0, 3277.0, 3277.0, 3277.0, 3277.0, 3277.0, 3276.0, 3277.0, 3278.0, 3278.0, 3278.0, 3278.0, 3278.0, 3278.0, 3278.0, 3277.0, 3277.0, 3277.0, 3277.0, 3278.0, 3278.0, 3277.0, 3277.0, 3278.0, 3278.0, 3277.0, 3277.0, 3277.0, 3277.0, 3277.0, 3277.0, 3277.0, 3277.0, 3277.0, 3277.0, 3277.0, 3277.0, 3278.0, 3277.0, 3278.0, 3277.0, 3277.0, 3277.0, 3277.0, 3277.0, 3277.0, 3277.0, 3276.0, 3277.0, 3277.0, 3277.0, 3277.0, 3276.0, 3277.0, 3277.0, 3277.0, 3277.0, 3277.0, 3277.0, 3277.0, 3277.0, 3277.0, 3277.0, 3277.0, 3276.0, 3276.0, 3276.0, 3276.0, 3276.0, 3276.0, 3276.0, 3276.0, 3276.0, 3276.0, 3276.0, 3277.0, 3277.0, 3276.0, 3276.0, 3277.0, 3277.0, 3277.0, 3277.0, 3276.0, 3276.0, 3276.0, 3276.0, 3276.0, 3276.0, 3276.0, 3276.0, 3276.0, 3275.0, 3276.0, 3276.0, 3276.0, 3276.0, 3276.0, 3276.0, 3275.0, 3276.0, 3276.0, 3276.0]
    },
    "slices": {}
  }
}