{
  "AcquisitionMatrixPE": 80,
  "AcquisitionNumber": 1,
  "AcquisitionTime": "08:50:5.545000",
  "BandwidthPerPixelPhaseEncode": 25,
  "BaseResolution": 80,
  "BodyPartExamined": "BRAIN",
  "CoilCombinationMethod": "Sum of Squares",
  "ConsistencyInfo": "N4_VE11C_LATEST_20160120",
  "ConversionSoftware": "dcm2niix",
  "ConversionSoftwareVersion": "v1.0.20220720",
  "DerivedVendorReportedEchoSpacing": 0.0005,
  "DeviceSerialNumber": "66112",
  "DwellTime": 2.7e-06,
  "EchoTime": 0.03,
  "EchoTrainLength": 80,
  "EffectiveEchoSpacing": 0.0005,
  "FlipAngle": 10,
  "HeudiconvVersion": "0.13.1",
  "ImageOrientationPatientDICOM": [0.98481, -0.17363, 0.00166411, 0.164271, 0.934745, 0.315065],
  "ImageOrientationText": "Tra>Cor(18.1)>Sag(3.2)",
  "ImageType": [
    "ORIGINAL",
    "PRIMARY",
    "M",
    "ND",
    "NORM",
    "MOSAIC"
],
  "ImagingFrequency": 123.252,
  "InPlanePhaseEncodingDirectionDICOM": "COL",
  "InstitutionAddress": "Maynard 3,Hanover,NH,US,03755",
  "InstitutionName": "Dartmouth College - PBS",
  "InstitutionalDepartmentName": "Department",
  "MRAcquisitionType": "2D",
  "MagneticFieldStrength": 3,
  "Manufacturer": "Siemens",
  "ManufacturersModelName": "Prisma",
  "MatrixCoilMode": "SENSE",
  "Modality": "MR",
  "NonlinearGradientCorrection": false,
  "PartialFourier": 1,
  "PatientPosition": "HFS",
  "PercentPhaseFOV": 100,
  "PercentSampling": 100,
  "PhaseEncodingDirection": "j-",
  "PhaseEncodingSteps": 80,
  "PhaseResolution": 1,
  "PixelBandwidth": 2315,
  "ProcedureStepDescription": "dbic^QA",
  "ProtocolName": "func-bold_fa-10",
  "PulseSequenceDetails": "%SiemensSeq%\\ep2d_bold",
  "ReceiveCoilActiveElements": "HC1-7;NC1,2",
  "ReceiveCoilName": "HeadNeck_64",
  "ReconMatrixPE": 80,
  "RepetitionTime": 2,
  "SAR": 0.0076579,
  "ScanOptions": "FS",
  "ScanningSequence": "EP",
  "SequenceName": "*epfid2d1_80",
  "SequenceVariant": "SK",
  "SeriesDescription": "func-bold_fa-10",
  "SeriesNumber": 9,
  "ShimSetting": [4139, -7680, -7507, 188, -76, -335, -41, 103],
  "SliceThickness": 3.5,
  "SliceTiming": [0.99, 0, 1.0575, 0.0675, 1.1225, 0.1325, 1.1875, 0.1975, 1.255, 0.265, 1.32, 0.33, 1.385, 0.3975, 1.4525, 0.4625, 1.5175, 0.5275, 1.585, 0.595, 1.65, 0.66, 1.715, 0.7275, 1.7825, 0.7925, 1.8475, 0.8575, 1.915, 0.925],
  "SoftwareVersions": "syngo MR E11",
  "SpacingBetweenSlices": 3.99,
  "StationName": "AWP66112",
  "TotalReadoutTime": 0.0395,
  "TxRefAmp": 217.953,
  "dcmmeta_affine": [
    [-2.9544289112091064, 0.49281182885169983, 0.2244783341884613, 97.05696868896484],
    [0.520889163017273, 2.8042361736297607, 1.2369242906570435, -130.54302978515625],
    [0.004992326721549034, -0.9451962113380432, 3.786783218383789, -40.5424690246582],
    [0.0, 0.0, 0.0, 1.0]
],
  "dcmmeta_reorient_transform": [
    [0.0, -1.0, 0.0, 79.0],
    [1.0, 0.0, 0.0, 0.0],
    [0.0, 0.0, 1.0, 0.0],
    [0.0, 0.0, 0.0, 1.0]
],
  "dcmmeta_shape": [80, 80, 30, 200],
  "dcmmeta_slice_dim": 2,
  "dcmmeta_version": 0.6,
  "global": {
    "const": {
      "AccessionNumber": "qa64",
      "AcquisitionMatrix": [80, 0, 0, 80],
      "AngioFlag": "N",
      "BitsAllocated": 16,
      "BitsStored": 12,
      "BodyPartExamined": "BRAIN",
      "Columns": 480,
      "EchoNumbers": 1,
      "EchoTime": 30.0,
      "EchoTrainLength": 80,
      "FlipAngle": 10.0,
      "HighBit": 11,
      "ImageOrientationPatient": [0.98480960290467, -0.1736297116512, 0.00166410896924, 0.16427060593182, 0.93474539486206, 0.31506541354292],
      "ImagePositionPatient": [-825.43722503078, -547.66103962752, -305.2506852859],
      "ImageType": [
        "ORIGINAL",
        "PRIMARY",
        "M",
        "ND",
        "NORM",
        "MOSAIC"
],
      "ImagedNucleus": "1H",
      "ImagingFrequency": 123.252368,
      "InPlanePhaseEncodingDirection": "COL",
      "MRAcquisitionType": "2D",
      "MagneticFieldStrength": 3.0,
      "Manufacturer": "SIEMENS",
      "ManufacturerModelName": "Prisma",
      "Modality": "MR",
      "NumberOfAverages": 1.0,
      "NumberOfPhaseEncodingSteps": 80,
      "PercentPhaseFieldOfView": 100.0,
      "PercentSampling": 100.0,
      "PerformedProcedureStepStartTime": "083423.934000",
      "PhotometricInterpretation": "MONOCHROME2",
      "PixelBandwidth": 2315.0,
      "PixelRepresentation": 0,
      "PixelSpacing": [3.0, 3.0],
      "ProtocolName": "func-bold_fa-10",
      "RepetitionTime": 2000.0,
      "Rows": 480,
      "SAR": 0.00765790245536,
      "SamplesPerPixel": 1,
      "ScanOptions": "FS",
      "ScanningSequence": "EP",
      "SequenceName": "*epfid2d1_80",
      "SequenceVariant": "SK",
      "SeriesDescription": "func-bold_fa-10",
      "SeriesNumber": 9,
      "SeriesTime": "085057.971000",
      "SliceLocation": -73.486264985639,
      "SliceThickness": 3.5,
      "SmallestImagePixelValue": 0,
      "SoftwareVersions": "syngo MR E11",
      "SpacingBetweenSlices": 3.9899999496866,
      "SpecificCharacterSet": "ISO_IR 100",
      "StudyID": "10",
      "StudyTime": "083423.874000",
      "TransmitCoilName": "Body",
      "VariableFlipAngleFlag": "N",
      "WindowCenterWidthExplanation": "Algo1",
      "dBdt": 0.0},
    "slices": {}
  },
  "time": {
    "samples": {
      "AcquisitionNumber": [1, 2, 3, 4, 5, 6, 7, 8, 9, 10, 11, 12, 13, 14, 15, 16, 17, 18, 19, 20, 21, 22, 23, 24, 25, 26, 27, 28, 29, 30, 31, 32, 33, 34, 35, 36, 37, 38, 39, 40, 41, 42, 43, 44, 45, 46, 47, 48, 49, 50, 51, 52, 53, 54, 55, 56, 57, 58, 59, 60, 61, 62, 63, 64, 65, 66, 67, 68, 69, 70, 71, 72, 73, 74, 75, 76, 77, 78, 79, 80, 81, 82, 83, 84, 85, 86, 87, 88, 89, 90, 91, 92, 93, 94, 95, 96, 97, 98, 99, 100, 101, 102, 103, 104, 105, 106, 107, 108, 109, 110, 111, 112, 113, 114, 115, 116, 117, 118, 119, 120, 121, 122, 123, 124, 125, 126, 127, 128, 129, 130, 131, 132, 133, 134, 135, 136, 137, 138, 139, 140, 141, 142, 143, 144, 145, 146, 147, 148, 149, 150, 151, 152, 153, 154, 155, 156, 157, 158, 159, 160, 161, 162, 163, 164, 165, 166, 167, 168, 169, 170, 171, 172, 173, 174, 175, 176, 177, 178, 179, 180, 181, 182, 183, 184, 185, 186, 187, 188, 189, 190, 191, 192, 193, 194, 195, 196, 197, 198, 199, 200],
      "AcquisitionTime": ["085005.545000", "085007.545000", "085009.545000", "085011.545000", "085013.545000", "085015.545000", "085017.545000", "085019.545000", "085021.545000", "085023.545000", "085025.545000", "085027.545000", "085029.545000", "085031.545000", "085033.545000", "085035.545000", "085037.545000", "085039.545000", "085041.545000", "085043.545000", "085045.545000", "085047.545000", "085049.545000", "085051.545000", "085053.545000", "085055.545000", "085057.545000", "085059.545000", "085101.545000", "085103.545000", "085105.545000", "085107.545000", "085109.545000", "085111.545000", "085113.545000", "085115.545000", "085117.545000", "085119.545000", "085121.545000", "085123.545000", "085125.545000", "085127.545000", "085129.545000", "085131.545000", "085133.545000", "085135.545000", "085137.545000", "085139.545000", "085141.545000", "085143.545000", "085145.545000", "085147.545000", "085149.545000", "085151.545000", "085153.545000", "085155.545000", "085157.545000", "085159.545000", "085201.545000", "085203.545000", "085205.545000", "085207.545000", "085209.545000", "085211.545000", "085213.545000", "085215.545000", "085217.545000", "085219.545000", "085221.545000", "085223.545000", "085225.545000", "085227.545000", "085229.545000", "085231.545000", "085233.545000", "085235.545000", "085237.545000", "085239.545000", "085241.545000", "085243.545000", "085245.545000", "085247.545000", "085249.545000", "085251.545000", "085253.545000", "085255.545000", "085257.545000", "085259.545000", "085301.545000", "085303.545000", "085305.545000", "085307.545000", "085309.545000", "085311.545000", "085313.545000", "085315.545000", "085317.545000", "085319.545000", "085321.545000", "085323.545000", "085325.545000", "085327.545000", "085329.545000", "085331.545000", "085333.545000", "085335.545000", "085337.545000", "085339.545000", "085341.545000", "085343.545000", "085345.545000", "085347.545000", "085349.545000", "085351.545000", "085353.545000", "085355.545000", "085357.545000", "085359.545000", "085401.545000", "085403.545000", "085405.545000", "085407.545000", "085409.545000", "085411.545000", "085413.545000", "085415.545000", "085417.545000", "085419.545000", "085421.545000", "085423.545000", "085425.545000", "085427.545000", "085429.545000", "085431.545000", "085433.545000", "085435.545000", "085437.545000", "085439.545000", "085441.545000", "085443.545000", "085445.545000", "085447.545000", "085449.545000", "085451.545000", "085453.545000", "085455.545000", "085457.545000", "085459.545000", "085501.545000", "085503.545000", "085505.545000", "085507.545000", "085509.545000", "085511.545000", "085513.545000", "085515.545000", "085517.545000", "085519.545000", "085521.545000", "085523.545000", "085525.545000", "085527.545000", "085529.545000", "085531.545000", "085533.545000", "085535.545000", "085537.545000", "085539.545000", "085541.545000", "085543.545000", "085545.545000", "085547.545000", "085549.545000", "085551.545000", "085553.545000", "085555.545000", "085557.545000", "085559.545000", "085601.545000", "085603.545000", "085605.545000", "085607.545000", "085609.545000", "085611.545000", "085613.545000", "085615.545000", "085617.545000", "085619.545000", "085621.545000", "085623.545000", "085625.545000", "085627.545000", "085629.545000", "085631.545000", "085633.545000", "085635.545000", "085637.545000", "085639.545000", "085641.545000", "085643.545000"],
      "ContentTime": ["085057.974000", "085057.978000", "085057.980000", "085057.983000", "085057.985000", "085057.988000", "085057.990000", "085057.993000", "085057.995000", "085057.998000", "085058.001000", "085058.004000", "085058.014000", "085058.017000", "085058.019000", "085058.021000", "085058.024000", "085058.027000", "085058.029000", "085058.031000", "085058.034000", "085058.042000", "085058.045000", "085058.047000", "085058.050000", "085058.052000", "085137.968000", "085137.971000", "085137.974000", "085137.976000", "085137.979000", "085137.981000", "085137.984000", "085137.986000", "085137.989000", "085137.991000", "085137.994000", "085137.996000", "085138.011000", "085138.014000", "085138.016000", "085138.019000", "085138.021000", "085138.024000", "085138.026000", "085138.029000", "085217.968000", "085217.971000", "085217.974000", "085217.976000", "085217.979000", "085217.981000", "085217.984000", "085217.986000", "085217.989000", "085217.991000", "085217.994000", "085217.996000", "085218.000000", "085218.002000", "085218.004000", "085218.007000", "085218.009000", "085218.012000", "085218.014000", "085218.017000", "085257.969000", "085257.972000", "085257.975000", "085257.977000", "085257.980000", "085257.982000", "085257.985000", "085257.987000", "085257.990000", "085257.992000", "085257.995000", "085257.997000", "085258.000000", "085258.002000", "085258.004000", "085258.007000", "085258.009000", "085258.012000", "085258.014000", "085258.017000", "085337.968000", "085337.971000", "085337.974000", "085337.976000", "085337.979000", "085337.981000", "085337.984000", "085337.986000", "085337.989000", "085337.991000", "085337.994000", "085337.996000", "085338.000000", "085338.002000", "085338.005000", "085338.007000", "085338.010000", "085338.012000", "085338.015000", "085338.017000", "085357.969000", "085357.971000", "085357.974000", "085357.977000", "085357.979000", "085357.982000", "085357.984000", "085357.987000", "085357.989000", "085357.992000", "085437.969000", "085437.971000", "085437.974000", "085437.976000", "085437.979000", "085437.982000", "085437.984000", "085437.987000", "085437.989000", "085437.992000", "085437.994000", "085437.997000", "085438.000000", "085438.003000", "085438.005000", "085438.008000", "085438.010000", "085438.013000", "085438.015000", "085438.018000", "085517.969000", "085517.972000", "085517.975000", "085517.977000", "085517.980000", "085517.982000", "085517.985000", "085517.987000", "085517.990000", "085517.992000", "085517.995000", "085517.997000", "085518.000000", "085518.002000", "085518.005000", "085518.007000", "085518.010000", "085518.012000", "085518.015000", "085518.017000", "085557.969000", "085557.971000", "085557.974000", "085557.976000", "085557.979000", "085557.981000", "085557.984000", "085557.986000", "085557.989000", "085557.991000", "085557.994000", "085557.996000", "085558.000000", "085558.003000", "085558.005000", "085558.008000", "085558.010000", "085558.013000", "085558.015000", "085558.018000", "085637.968000", "085637.971000", "085637.974000", "085637.976000", "085637.979000", "085637.981000", "085637.984000", "085637.986000", "085637.989000", "085637.991000", "085637.994000", "085637.996000", "085638.000000", "085638.002000", "085638.005000", "085638.007000", "085638.022000", "085638.024000", "085638.027000", "085638.029000", "085644.913000", "085644.916000", "085644.918000", "085644.921000"],
      "InstanceCreationTime": ["085057.974000", "085057.978000", "085057.980000", "085057.983000", "085057.985000", "085057.988000", "085057.990000", "085057.993000", "085057.995000", "085057.998000", "085058.001000", "085058.004000", "085058.014000", "085058.017000", "085058.019000", "085058.021000", "085058.024000", "085058.027000", "085058.029000", "085058.031000", "085058.034000", "085058.042000", "085058.045000", "085058.047000", "085058.050000", "085058.052000", "085137.968000", "085137.971000", "085137.974000", "085137.976000", "085137.979000", "085137.981000", "085137.984000", "085137.986000", "085137.989000", "085137.991000", "085137.994000", "085137.996000", "085138.011000", "085138.014000", "085138.016000", "085138.019000", "085138.021000", "085138.024000", "085138.026000", "085138.029000", "085217.968000", "085217.971000", "085217.974000", "085217.976000", "085217.979000", "085217.981000", "085217.984000", "085217.986000", "085217.989000", "085217.991000", "085217.994000", "085217.996000", "085218.000000", "085218.002000", "085218.004000", "085218.007000", "085218.009000", "085218.012000", "085218.014000", "085218.017000", "085257.969000", "085257.972000", "085257.975000", "085257.977000", "085257.980000", "085257.982000", "085257.985000", "085257.987000", "085257.990000", "085257.992000", "085257.995000", "085257.997000", "085258.000000", "085258.002000", "085258.004000", "085258.007000", "085258.009000", "085258.012000", "085258.014000", "085258.017000", "085337.968000", "085337.971000", "085337.974000", "085337.976000", "085337.979000", "085337.981000", "085337.984000", "085337.986000", "085337.989000", "085337.991000", "085337.994000", "085337.996000", "085338.000000", "085338.002000", "085338.005000", "085338.007000", "085338.010000", "085338.012000", "085338.015000", "085338.017000", "085357.969000", "085357.971000", "085357.974000", "085357.977000", "085357.979000", "085357.982000", "085357.984000", "085357.987000", "085357.989000", "085357.992000", "085437.969000", "085437.971000", "085437.974000", "085437.976000", "085437.979000", "085437.982000", "085437.984000", "085437.987000", "085437.989000", "085437.992000", "085437.994000", "085437.997000", "085438.000000", "085438.003000", "085438.005000", "085438.008000", "085438.010000", "085438.013000", "085438.015000", "085438.018000", "085517.969000", "085517.972000", "085517.975000", "085517.977000", "085517.980000", "085517.982000", "085517.985000", "085517.987000", "085517.990000", "085517.992000", "085517.995000", "085517.997000", "085518.000000", "085518.002000", "085518.005000", "085518.007000", "085518.010000", "085518.012000", "085518.015000", "085518.017000", "085557.969000", "085557.971000", "085557.974000", "085557.976000", "085557.979000", "085557.981000", "085557.984000", "085557.986000", "085557.989000", "085557.991000", "085557.994000", "085557.996000", "085558.000000", "085558.003000", "085558.005000", "085558.008000", "085558.010000", "085558.013000", "085558.015000", "085558.018000", "085637.968000", "085637.971000", "085637.974000", "085637.976000", "085637.979000", "085637.981000", "085637.984000", "085637.986000", "085637.989000", "085637.991000", "085637.994000", "085637.996000", "085638.000000", "085638.002000", "085638.005000", "085638.007000", "085638.022000", "085638.024000", "085638.027000", "085638.029000", "085644.913000", "085644.916000", "085644.918000", "085644.921000"],
      "InstanceNumber": [1, 2, 3, 4, 5, 6, 7, 8, 9, 10, 11, 12, 13, 14, 15, 16, 17, 18, 19, 20, 21, 22, 23, 24, 25, 26, 27, 28, 29, 30, 31, 32, 33, 34, 35, 36, 37, 38, 39, 40, 41, 42, 43, 44, 45, 46, 47, 48, 49, 50, 51, 52, 53, 54, 55, 56, 57, 58, 59, 60, 61, 62, 63, 64, 65, 66, 67, 68, 69, 70, 71, 72, 73, 74, 75, 76, 77, 78, 79, 80, 81, 82, 83, 84, 85, 86, 87, 88, 89, 90, 91, 92, 93, 94, 95, 96, 97, 98, 99, 100, 101, 102, 103, 104, 105, 106, 107, 108, 109, 110, 111, 112, 113, 114, 115, 116, 117, 118, 119, 120, 121, 122, 123, 124, 125, 126, 127, 128, 129, 130, 131, 132, 133, 134, 135, 136, 137, 138, 139, 140, 141, 142, 143, 144, 145, 146, 147, 148, 149, 150, 151, 152, 153, 154, 155, 156, 157, 158, 159, 160, 161, 162, 163, 164, 165, 166, 167, 168, 169, 170, 171, 172, 173, 174, 175, 176, 177, 178, 179, 180, 181, 182, 183, 184, 185, 186, 187, 188, 189, 190, 191, 192, 193, 194, 195, 196, 197, 198, 199, 200],
      "LargestImagePixelValue": [671, 673, 672, 672, 672, 675, 673, 673, 677, 672, 670, 673, 675, 674, 682, 672, 672, 671, 674, 679, 674, 672, 671, 671, 672, 674, 672, 674, 672, 672, 680, 683, 674, 669, 673, 673, 671, 679, 673, 673, 673, 669, 676, 671, 674, 672, 682, 670, 673, 671, 674, 673, 672, 672, 674, 670, 674, 670, 670, 671, 671, 671, 672, 676, 673, 671, 673, 674, 672, 669, 672, 675, 672, 669, 671, 667, 673, 673, 672, 670, 668, 673, 673, 675, 677, 667, 667, 680, 672, 673, 672, 670, 670, 679, 676, 682, 683, 679, 679, 678, 679, 678, 669, 672, 672, 672, 669, 673, 676, 668, 680, 678, 672, 672, 677, 669, 668, 671, 673, 670, 669, 676, 667, 668, 670, 670, 678, 677, 681, 677, 683, 681, 679, 678, 679, 670, 671, 666, 670, 669, 670, 683, 672, 664, 669, 669, 670, 672, 671, 669, 681, 682, 677, 679, 675, 679, 678, 681, 680, 677, 681, 676, 670, 670, 667, 669, 667, 670, 678, 676, 676, 676, 679, 679, 675, 682, 676, 676, 678, 676, 677, 681, 680, 676, 678, 676, 676, 674, 683, 680, 677, 671, 667, 670, 670, 667, 676, 670, 678, 682],
      "WindowCenter": [454.0, 454.0, 454.0, 454.0, 454.0, 454.0, 454.0, 454.0, 453.0, 454.0, 454.0, 454.0, 453.0, 454.0, 454.0, 453.0, 453.0, 453.0, 453.0, 454.0, 453.0, 453.0, 453.0, 453.0, 454.0, 453.0, 453.0, 453.0, 453.0, 453.0, 454.0, 455.0, 454.0, 453.0, 453.0, 453.0, 453.0, 453.0, 453.0, 453.0, 453.0, 452.0, 452.0, 454.0, 453.0, 452.0, 453.0, 452.0, 452.0, 452.0, 452.0, 452.0, 452.0, 453.0, 453.0, 452.0, 452.0, 452.0, 452.0, 452.0, 452.0, 452.0, 452.0, 452.0, 452.0, 452.0, 452.0, 452.0, 452.0, 452.0, 452.0, 452.0, 452.0, 452.0, 452.0, 452.0, 452.0, 452.0, 452.0, 452.0, 452.0, 452.0, 452.0, 452.0, 455.0, 452.0, 452.0, 455.0, 453.0, 452.0, 452.0, 452.0, 452.0, 454.0, 456.0, 454.0, 456.0, 456.0, 456.0, 456.0, 455.0, 452.0, 451.0, 452.0, 452.0, 452.0, 452.0, 454.0, 453.0, 452.0, 456.0, 456.0, 452.0, 452.0, 452.0, 451.0, 452.0, 452.0, 452.0, 452.0, 452.0, 452.0, 451.0, 451.0, 452.0, 452.0, 453.0, 455.0, 456.0, 456.0, 456.0, 456.0, 456.0, 456.0, 456.0, 452.0, 452.0, 451.0, 452.0, 451.0, 453.0, 453.0, 451.0, 452.0, 451.0, 451.0, 451.0, 451.0, 451.0, 451.0, 453.0, 454.0, 456.0, 456.0, 456.0, 456.0, 456.0, 456.0, 456.0, 456.0, 456.0, 455.0, 451.0, 451.0, 451.0, 451.0, 451.0, 452.0, 455.0, 456.0, 456.0, 456.0, 456.0, 456.0, 456.0, 456.0, 456.0, 456.0, 456.0, 456.0, 456.0, 456.0, 456.0, 456.0, 456.0, 456.0, 456.0, 456.0, 456.0, 456.0, 456.0, 455.0, 451.0, 451.0, 451.0, 450.0, 453.0, 454.0, 455.0, 456.0],
      "WindowWidth": [942.0, 942.0, 942.0, 942.0, 942.0, 942.0, 942.0, 942.0, 941.0, 942.0, 942.0, 942.0, 941.0, 942.0, 942.0, 941.0, 941.0, 941.0, 941.0, 942.0, 941.0, 941.0, 941.0, 941.0, 942.0, 941.0, 941.0, 941.0, 941.0, 941.0, 942.0, 945.0, 942.0, 940.0, 941.0, 940.0, 940.0, 941.0, 940.0, 940.0, 940.0, 939.0, 939.0, 942.0, 940.0, 939.0, 941.0, 939.0, 939.0, 939.0, 939.0, 939.0, 939.0, 940.0, 940.0, 939.0, 939.0, 939.0, 939.0, 939.0, 939.0, 939.0, 939.0, 939.0, 939.0, 939.0, 939.0, 939.0, 939.0, 938.0, 939.0, 939.0, 939.0, 938.0, 939.0, 938.0, 939.0, 939.0, 939.0, 939.0, 938.0, 939.0, 939.0, 939.0, 945.0, 938.0, 938.0, 944.0, 940.0, 939.0, 939.0, 938.0, 938.0, 943.0, 947.0, 942.0, 947.0, 947.0, 947.0, 947.0, 944.0, 939.0, 937.0, 938.0, 938.0, 938.0, 938.0, 942.0, 941.0, 940.0, 947.0, 947.0, 939.0, 938.0, 938.0, 937.0, 938.0, 939.0, 938.0, 939.0, 938.0, 938.0, 937.0, 937.0, 938.0, 938.0, 940.0, 944.0, 947.0, 947.0, 947.0, 947.0, 947.0, 947.0, 947.0, 939.0, 938.0, 937.0, 938.0, 937.0, 941.0, 941.0, 937.0, 938.0, 937.0, 937.0, 937.0, 937.0, 937.0, 937.0, 941.0, 942.0, 946.0, 947.0, 947.0, 947.0, 947.0, 947.0, 946.0, 946.0, 946.0, 945.0, 937.0, 937.0, 937.0, 937.0, 937.0, 938.0, 945.0, 946.0, 946.0, 946.0, 946.0, 946.0, 946.0, 946.0, 946.0, 946.0, 946.0, 946.0, 946.0, 946.0, 946.0, 946.0, 946.0, 946.0, 946.0, 946.0, 946.0, 946.0, 946.0, 944.0, 936.0, 936.0, 936.0, 935.0, 941.0, 942.0, 945.0, 945.0]
    },
    "slices": {}
  }
}