{
  "AcquisitionMatrixPE": 80,
  "AcquisitionNumber": 1,
  "AcquisitionTime": "09:55:34.190000",
  "BandwidthPerPixelPhaseEncode": 44.643,
  "BaseResolution": 80,
  "BodyPartExamined": "BRAIN",
  "CoilCombinationMethod": "Sum of Squares",
  "ConsistencyInfo": "N4_VE11C_LATEST_20160120",
  "ConversionSoftware": "dcm2niix",
  "ConversionSoftwareVersion": "v1.0.20220720",
  "DerivedVendorReportedEchoSpacing": 0.000559998,
  "DeviceSerialNumber": "66112",
  "DwellTime": 2.7e-06,
  "EchoTime": 0.035,
  "EchoTrainLength": 39,
  "EffectiveEchoSpacing": 0.000279999,
  "FlipAngle": 90,
  "HeudiconvVersion": "0.13.1",
  "ImageOrientationPatientDICOM": [0.986557, 0.163099, 0.0101844, -0.158198, 0.937567, 0.309745],
  "ImageOrientationText": "Tra>Cor(17.9)>Sag(-2.3)",
  "ImageType": [
    "ORIGINAL",
    "PRIMARY",
    "M",
    "ND",
    "NORM",
    "MOSAIC"
],
  "ImagingFrequency": 123.252,
  "InPlanePhaseEncodingDirectionDICOM": "COL",
  "InstitutionAddress": "Maynard 3,Hanover,NH,US,03755",
  "InstitutionName": "Dartmouth College - PBS",
  "InstitutionalDepartmentName": "Department",
  "MRAcquisitionType": "2D",
  "MagneticFieldStrength": 3,
  "Manufacturer": "Siemens",
  "ManufacturersModelName": "Prisma",
  "Modality": "MR",
  "MultibandAccelerationFactor": 4,
  "NonlinearGradientCorrection": false,
  "ParallelReductionFactorInPlane": 2,
  "PartialFourier": 1,
  "PatientPosition": "HFS",
  "PercentPhaseFOV": 100,
  "PercentSampling": 100,
  "PhaseEncodingDirection": "j-",
  "PhaseEncodingSteps": 79,
  "PhaseResolution": 1,
  "PixelBandwidth": 2315,
  "ProcedureStepDescription": "dbic^QA",
  "ProtocolName": "func-bold_task-rest_acq-p2-s4-3.5mm",
  "PulseSequenceDetails": "%SiemensSeq%\\ep2d_bold",
  "ReceiveCoilActiveElements": "HEA;HEP",
  "ReceiveCoilName": "Head_32",
  "ReconMatrixPE": 80,
  "RefLinesPE": 24,
  "RepetitionTime": 2,
  "SAR": 0.0208715,
  "ScanOptions": "FS",
  "ScanningSequence": "EP",
  "SequenceName": "*epfid2d1_80",
  "SequenceVariant": "SK",
  "SeriesDescription": "func-bold_task-rest_acq-p2-s4-3.5mm",
  "SeriesNumber": 7,
  "ShimSetting": [4149, -7706, -7518, 266, -46, -62, -3, 78],
  "SliceThickness": 3.5,
  "SliceTiming": [1.485, 0, 0.99, 0.2475, 1.2375, 0.7425, 1.7325, 0.495, 1.485, 0, 0.99, 0.2475, 1.2375, 0.7425, 1.7325, 0.495, 1.485, 0, 0.99, 0.2475, 1.2375, 0.7425, 1.7325, 0.495, 1.485, 0, 0.99, 0.2475, 1.2375, 0.7425, 1.7325, 0.495],
  "SoftwareVersions": "syngo MR E11",
  "SpacingBetweenSlices": 3.99,
  "StationName": "AWP66112",
  "TaskName": "rest",
  "TotalReadoutTime": 0.0221199,
  "TxRefAmp": 222.121,
  "dcmmeta_affine": [
    [-2.9596714973449707, -0.47459256649017334, -0.1634722650051117, 141.3090362548828],
    [-0.4892972707748413, 2.8127009868621826, 1.2256956100463867, -99.49482727050781],
    [0.030553234741091728, -0.929233729839325, 3.793553352355957, -19.990886688232422],
    [0.0, 0.0, 0.0, 1.0]
],
  "dcmmeta_reorient_transform": [
    [0.0, -1.0, 0.0, 79.0],
    [1.0, 0.0, 0.0, 0.0],
    [0.0, 0.0, 1.0, 0.0],
    [0.0, 0.0, 0.0, 1.0]
],
  "dcmmeta_shape": [80, 80, 32, 200],
  "dcmmeta_slice_dim": 2,
  "dcmmeta_version": 0.6,
  "global": {
    "const": {
      "AccessionNumber": "qa",
      "AcquisitionMatrix": [80, 0, 0, 80],
      "AngioFlag": "N",
      "BitsAllocated": 16,
      "BitsStored": 12,
      "BodyPartExamined": "BRAIN",
      "Columns": 480,
      "EchoNumbers": 1,
      "EchoTime": 35.0,
      "EchoTrainLength": 39,
      "FlipAngle": 90.0,
      "HighBit": 11,
      "ImageOrientationPatient": [0.98655712635616, 0.16309909318741, 0.01018441148582, -0.1581975195369, 0.9375669785289, 0.30974458120291],
      "ImagePositionPatient": [-600.83198711174, -783.1081860614, -285.35774772173],
      "ImageType": [
        "ORIGINAL",
        "PRIMARY",
        "M",
        "ND",
        "NORM",
        "MOSAIC"
],
      "ImagedNucleus": "1H",
      "ImagingFrequency": 123.252355,
      "InPlanePhaseEncodingDirection": "COL",
      "MRAcquisitionType": "2D",
      "MagneticFieldStrength": 3.0,
      "Manufacturer": "SIEMENS",
      "ManufacturerModelName": "Prisma",
      "Modality": "MR",
      "NumberOfAverages": 1.0,
      "NumberOfPhaseEncodingSteps": 79,
      "PercentPhaseFieldOfView": 100.0,
      "PercentSampling": 100.0,
      "PerformedProcedureStepStartTime": "094714.328000",
      "PhotometricInterpretation": "MONOCHROME2",
      "PixelBandwidth": 2315.0,
      "PixelRepresentation": 0,
      "PixelSpacing": [3.0, 3.0],
      "ProtocolName": "func-bold_task-rest_acq-p2-s4-3.5mm",
      "RepetitionTime": 2000.0,
      "Rows": 480,
      "SAR": 0.02087147771552,
      "SamplesPerPixel": 1,
      "ScanOptions": "FS",
      "ScanningSequence": "EP",
      "SequenceName": "*epfid2d1_80",
      "SequenceVariant": "SK",
      "SeriesDescription": "func-bold_task-rest_acq-p2-s4-3.5mm",
      "SeriesNumber": 7,
      "SeriesTime": "095601.378000",
      "SliceLocation": -55.360144353694,
      "SliceThickness": 3.5,
      "SmallestImagePixelValue": 0,
      "SoftwareVersions": "syngo MR E11",
      "SpacingBetweenSlices": 3.990000030611,
      "SpecificCharacterSet": "ISO_IR 100",
      "StudyID": "50",
      "StudyTime": "094714.282000",
      "TransmitCoilName": "Body",
      "VariableFlipAngleFlag": "N",
      "WindowCenterWidthExplanation": "Algo1",
      "dBdt": 0.0},
    "slices": {}
  },
  "time": {
    "samples": {
      "AcquisitionNumber": [1, 2, 3, 4, 5, 6, 7, 8, 9, 10, 11, 12, 13, 14, 15, 16, 17, 18, 19, 20, 21, 22, 23, 24, 25, 26, 27, 28, 29, 30, 31, 32, 33, 34, 35, 36, 37, 38, 39, 40, 41, 42, 43, 44, 45, 46, 47, 48, 49, 50, 51, 52, 53, 54, 55, 56, 57, 58, 59, 60, 61, 62, 63, 64, 65, 66, 67, 68, 69, 70, 71, 72, 73, 74, 75, 76, 77, 78, 79, 80, 81, 82, 83, 84, 85, 86, 87, 88, 89, 90, 91, 92, 93, 94, 95, 96, 97, 98, 99, 100, 101, 102, 103, 104, 105, 106, 107, 108, 109, 110, 111, 112, 113, 114, 115, 116, 117, 118, 119, 120, 121, 122, 123, 124, 125, 126, 127, 128, 129, 130, 131, 132, 133, 134, 135, 136, 137, 138, 139, 140, 141, 142, 143, 144, 145, 146, 147, 148, 149, 150, 151, 152, 153, 154, 155, 156, 157, 158, 159, 160, 161, 162, 163, 164, 165, 166, 167, 168, 169, 170, 171, 172, 173, 174, 175, 176, 177, 178, 179, 180, 181, 182, 183, 184, 185, 186, 187, 188, 189, 190, 191, 192, 193, 194, 195, 196, 197, 198, 199, 200],
      "AcquisitionTime": ["095534.190000", "095536.190000", "095538.190000", "095540.190000", "095542.190000", "095544.190000", "095546.190000", "095548.190000", "095550.190000", "095552.190000", "095554.190000", "095556.190000", "095558.190000", "095600.190000", "095602.190000", "095604.190000", "095606.190000", "095608.190000", "095610.190000", "095612.190000", "095614.190000", "095616.190000", "095618.190000", "095620.190000", "095622.190000", "095624.190000", "095626.190000", "095628.190000", "095630.190000", "095632.190000", "095634.190000", "095636.190000", "095638.190000", "095640.190000", "095642.190000", "095644.190000", "095646.190000", "095648.190000", "095650.190000", "095652.190000", "095654.190000", "095656.190000", "095658.190000", "095700.190000", "095702.190000", "095704.190000", "095706.190000", "095708.190000", "095710.190000", "095712.190000", "095714.190000", "095716.190000", "095718.190000", "095720.190000", "095722.190000", "095724.190000", "095726.190000", "095728.190000", "095730.190000", "095732.190000", "095734.190000", "095736.190000", "095738.190000", "095740.190000", "095742.190000", "095744.190000", "095746.190000", "095748.190000", "095750.190000", "095752.190000", "095754.190000", "095756.190000", "095758.190000", "095800.190000", "095802.190000", "095804.190000", "095806.190000", "095808.190000", "095810.190000", "095812.190000", "095814.190000", "095816.190000", "095818.190000", "095820.190000", "095822.190000", "095824.190000", "095826.190000", "095828.190000", "095830.190000", "095832.190000", "095834.190000", "095836.190000", "095838.190000", "095840.190000", "095842.190000", "095844.190000", "095846.190000", "095848.190000", "095850.190000", "095852.190000", "095854.190000", "095856.190000", "095858.190000", "095900.190000", "095902.190000", "095904.190000", "095906.190000", "095908.190000", "095910.190000", "095912.190000", "095914.190000", "095916.190000", "095918.190000", "095920.190000", "095922.190000", "095924.190000", "095926.190000", "095928.190000", "095930.190000", "095932.190000", "095934.190000", "095936.190000", "095938.190000", "095940.190000", "095942.190000", "095944.190000", "095946.190000", "095948.190000", "095950.190000", "095952.190000", "095954.190000", "095956.190000", "095958.190000", "100000.190000", "100002.190000", "100004.190000", "100006.190000", "100008.190000", "100010.190000", "100012.190000", "100014.190000", "100016.190000", "100018.190000", "100020.190000", "100022.190000", "100024.190000", "100026.190000", "100028.190000", "100030.190000", "100032.190000", "100034.190000", "100036.190000", "100038.190000", "100040.190000", "100042.190000", "100044.190000", "100046.190000", "100048.190000", "100050.190000", "100052.190000", "100054.190000", "100056.190000", "100058.190000", "100100.190000", "100102.190000", "100104.190000", "100106.190000", "100108.190000", "100110.190000", "100112.190000", "100114.190000", "100116.190000", "100118.190000", "100120.190000", "100122.190000", "100124.190000", "100126.190000", "100128.190000", "100130.190000", "100132.190000", "100134.190000", "100136.190000", "100138.190000", "100140.190000", "100142.190000", "100144.190000", "100146.190000", "100148.190000", "100150.190000", "100152.190000", "100154.190000", "100156.190000", "100158.190000", "100200.190000", "100202.190000", "100204.190000", "100206.190000", "100208.190000", "100210.190000", "100212.190000"],
      "ContentTime": ["095601.381000", "095601.385000", "095601.387000", "095601.390000", "095601.392000", "095601.395000", "095601.397000", "095601.400000", "095601.402000", "095601.405000", "095601.407000", "095601.410000", "095601.412000", "095601.415000", "095641.377000", "095641.379000", "095641.382000", "095641.385000", "095641.387000", "095641.390000", "095641.392000", "095641.395000", "095641.405000", "095641.407000", "095641.410000", "095641.413000", "095641.415000", "095641.418000", "095641.420000", "095641.423000", "095641.425000", "095641.428000", "095641.430000", "095641.433000", "095721.377000", "095721.380000", "095721.383000", "095721.385000", "095721.388000", "095721.390000", "095721.393000", "095721.395000", "095721.398000", "095721.400000", "095721.403000", "095721.405000", "095721.408000", "095721.411000", "095721.413000", "095721.416000", "095721.418000", "095721.421000", "095721.423000", "095721.426000", "095801.376000", "095801.379000", "095801.382000", "095801.384000", "095801.387000", "095801.389000", "095801.392000", "095801.398000", "095801.401000", "095801.403000", "095801.406000", "095801.408000", "095801.411000", "095801.413000", "095801.416000", "095801.418000", "095801.421000", "095801.423000", "095801.426000", "095801.428000", "095841.376000", "095841.379000", "095841.382000", "095841.384000", "095841.387000", "095841.389000", "095841.392000", "095841.394000", "095841.397000", "095841.399000", "095841.410000", "095841.412000", "095841.415000", "095841.418000", "095841.420000", "095841.423000", "095841.425000", "095841.428000", "095841.430000", "095841.433000", "095921.376000", "095921.379000", "095921.382000", "095921.384000", "095921.387000", "095921.389000", "095921.392000", "095921.394000", "095921.397000", "095921.399000", "095921.407000", "095921.409000", "095921.412000", "095921.415000", "095921.417000", "095921.420000", "095921.422000", "095921.425000", "095921.427000", "095921.430000", "100001.377000", "100001.380000", "100001.383000", "100001.385000", "100001.388000", "100001.391000", "100001.393000", "100001.396000", "100001.398000", "100001.401000", "100001.403000", "100001.406000", "100001.408000", "100001.411000", "100001.413000", "100001.416000", "100001.418000", "100001.421000", "100001.423000", "100001.426000", "100041.376000", "100041.379000", "100041.382000", "100041.384000", "100041.387000", "100041.389000", "100041.392000", "100041.394000", "100041.397000", "100041.399000", "100041.402000", "100041.404000", "100041.407000", "100041.409000", "100041.419000", "100041.421000", "100041.424000", "100041.426000", "100041.429000", "100041.431000", "100121.377000", "100121.379000", "100121.382000", "100121.384000", "100121.387000", "100121.390000", "100121.392000", "100121.395000", "100121.397000", "100121.400000", "100121.402000", "100121.405000", "100121.407000", "100121.410000", "100121.413000", "100121.415000", "100121.418000", "100121.420000", "100121.423000", "100121.425000", "100201.377000", "100201.380000", "100201.383000", "100201.385000", "100201.388000", "100201.390000", "100201.393000", "100201.395000", "100201.398000", "100201.400000", "100201.403000", "100201.405000", "100201.408000", "100201.410000", "100201.413000", "100201.416000", "100201.418000", "100201.421000", "100201.423000", "100201.426000", "100213.060000", "100213.063000", "100213.065000", "100213.068000", "100213.071000", "100213.073000"],
      "InstanceCreationTime": ["095601.381000", "095601.385000", "095601.387000", "095601.390000", "095601.392000", "095601.395000", "095601.397000", "095601.400000", "095601.402000", "095601.405000", "095601.407000", "095601.410000", "095601.412000", "095601.415000", "095641.377000", "095641.379000", "095641.382000", "095641.385000", "095641.387000", "095641.390000", "095641.392000", "095641.395000", "095641.405000", "095641.407000", "095641.410000", "095641.413000", "095641.415000", "095641.418000", "095641.420000", "095641.423000", "095641.425000", "095641.428000", "095641.430000", "095641.433000", "095721.377000", "095721.380000", "095721.383000", "095721.385000", "095721.388000", "095721.390000", "095721.393000", "095721.395000", "095721.398000", "095721.400000", "095721.403000", "095721.405000", "095721.408000", "095721.411000", "095721.413000", "095721.416000", "095721.418000", "095721.421000", "095721.423000", "095721.426000", "095801.376000", "095801.379000", "095801.382000", "095801.384000", "095801.387000", "095801.389000", "095801.392000", "095801.398000", "095801.401000", "095801.403000", "095801.406000", "095801.408000", "095801.411000", "095801.413000", "095801.416000", "095801.418000", "095801.421000", "095801.423000", "095801.426000", "095801.428000", "095841.376000", "095841.379000", "095841.382000", "095841.384000", "095841.387000", "095841.389000", "095841.392000", "095841.394000", "095841.397000", "095841.399000", "095841.410000", "095841.412000", "095841.415000", "095841.418000", "095841.420000", "095841.423000", "095841.425000", "095841.428000", "095841.430000", "095841.433000", "095921.376000", "095921.379000", "095921.382000", "095921.384000", "095921.387000", "095921.389000", "095921.392000", "095921.394000", "095921.397000", "095921.399000", "095921.407000", "095921.409000", "095921.412000", "095921.415000", "095921.417000", "095921.420000", "095921.422000", "095921.425000", "095921.427000", "095921.430000", "100001.377000", "100001.380000", "100001.383000", "100001.385000", "100001.388000", "100001.391000", "100001.393000", "100001.396000", "100001.398000", "100001.401000", "100001.403000", "100001.406000", "100001.408000", "100001.411000", "100001.413000", "100001.416000", "100001.418000", "100001.421000", "100001.423000", "100001.426000", "100041.376000", "100041.379000", "100041.382000", "100041.384000", "100041.387000", "100041.389000", "100041.392000", "100041.394000", "100041.397000", "100041.399000", "100041.402000", "100041.404000", "100041.407000", "100041.409000", "100041.419000", "100041.421000", "100041.424000", "100041.426000", "100041.429000", "100041.431000", "100121.377000", "100121.379000", "100121.382000", "100121.384000", "100121.387000", "100121.390000", "100121.392000", "100121.395000", "100121.397000", "100121.400000", "100121.402000", "100121.405000", "100121.407000", "100121.410000", "100121.413000", "100121.415000", "100121.418000", "100121.420000", "100121.423000", "100121.425000", "100201.377000", "100201.380000", "100201.383000", "100201.385000", "100201.388000", "100201.390000", "100201.393000", "100201.395000", "100201.398000", "100201.400000", "100201.403000", "100201.405000", "100201.408000", "100201.410000", "100201.413000", "100201.416000", "100201.418000", "100201.421000", "100201.423000", "100201.426000", "100213.060000", "100213.063000", "100213.065000", "100213.068000", "100213.071000", "100213.073000"],
      "InstanceNumber": [1, 2, 3, 4, 5, 6, 7, 8, 9, 10, 11, 12, 13, 14, 15, 16, 17, 18, 19, 20, 21, 22, 23, 24, 25, 26, 27, 28, 29, 30, 31, 32, 33, 34, 35, 36, 37, 38, 39, 40, 41, 42, 43, 44, 45, 46, 47, 48, 49, 50, 51, 52, 53, 54, 55, 56, 57, 58, 59, 60, 61, 62, 63, 64, 65, 66, 67, 68, 69, 70, 71, 72, 73, 74, 75, 76, 77, 78, 79, 80, 81, 82, 83, 84, 85, 86, 87, 88, 89, 90, 91, 92, 93, 94, 95, 96, 97, 98, 99, 100, 101, 102, 103, 104, 105, 106, 107, 108, 109, 110, 111, 112, 113, 114, 115, 116, 117, 118, 119, 120, 121, 122, 123, 124, 125, 126, 127, 128, 129, 130, 131, 132, 133, 134, 135, 136, 137, 138, 139, 140, 141, 142, 143, 144, 145, 146, 147, 148, 149, 150, 151, 152, 153, 154, 155, 156, 157, 158, 159, 160, 161, 162, 163, 164, 165, 166, 167, 168, 169, 170, 171, 172, 173, 174, 175, 176, 177, 178, 179, 180, 181, 182, 183, 184, 185, 186, 187, 188, 189, 190, 191, 192, 193, 194, 195, 196, 197, 198, 199, 200],
      "LargestImagePixelValue": [1951, 1953, 1951, 1954, 1951, 1947, 1955, 1952, 1950, 1950, 1950, 1957, 1955, 1954, 1954, 1948, 1953, 1956, 1953, 1951, 1954, 1950, 1955, 1955, 1956, 1953, 1957, 1959, 1953, 1947, 1953, 1955, 1955, 1952, 1952, 1953, 1955, 1952, 1954, 1957, 1954, 1952, 1952, 1951, 1954, 1952, 1954, 1949, 1954, 1952, 1949, 1960, 1954, 1955, 1952, 1952, 1961, 1953, 1954, 1955, 1954, 1953, 1952, 1954, 1952, 1951, 1950, 1949, 1954, 1952, 1948, 1953, 1949, 1951, 1954, 1956, 1956, 1953, 1953, 1957, 1953, 1953, 1958, 1954, 1949, 1953, 1957, 1955, 1952, 1955, 1953, 1956, 1952, 1959, 1958, 1951, 1951, 1950, 1953, 1958, 1955, 1954, 1960, 1953, 1952, 1951, 1958, 1952, 1954, 1952, 1953, 1957, 1959, 1954, 1955, 1953, 1954, 1951, 1951, 1954, 1948, 1953, 1956, 1954, 1952, 1955, 1955, 1957, 1957, 1955, 1957, 1958, 1955, 1952, 1951, 1951, 1952, 1951, 1952, 1954, 1950, 1953, 1954, 1951, 1952, 1953, 1955, 1953, 1953, 1957, 1953, 1961, 1954, 1954, 1955, 1954, 1950, 1958, 1952, 1952, 1950, 1956, 1954, 1957, 1961, 1960, 1958, 1953, 1952, 1951, 1950, 1951, 1954, 1953, 1952, 1950, 1947, 1958, 1953, 1954, 1955, 1958, 1956, 1950, 1952, 1958, 1957, 1958, 1949, 1950, 1952, 1948, 1957, 1945, 1953, 1949, 1958, 1954, 1947, 1956],
      "WindowCenter": [921.0, 922.0, 922.0, 921.0, 921.0, 922.0, 921.0, 922.0, 922.0, 921.0, 922.0, 922.0, 922.0, 922.0, 922.0, 922.0, 922.0, 922.0, 922.0, 922.0, 922.0, 922.0, 922.0, 922.0, 922.0, 922.0, 922.0, 921.0, 921.0, 922.0, 921.0, 922.0, 922.0, 922.0, 922.0, 922.0, 922.0, 922.0, 922.0, 922.0, 922.0, 922.0, 922.0, 922.0, 922.0, 922.0, 922.0, 922.0, 922.0, 922.0, 922.0, 922.0, 922.0, 922.0, 922.0, 922.0, 922.0, 922.0, 922.0, 922.0, 922.0, 922.0, 922.0, 922.0, 922.0, 922.0, 922.0, 922.0, 922.0, 922.0, 922.0, 922.0, 922.0, 921.0, 922.0, 922.0, 922.0, 921.0, 922.0, 922.0, 922.0, 922.0, 922.0, 922.0, 922.0, 921.0, 922.0, 922.0, 922.0, 922.0, 922.0, 922.0, 922.0, 922.0, 922.0, 922.0, 922.0, 922.0, 921.0, 922.0, 922.0, 922.0, 922.0, 922.0, 922.0, 922.0, 922.0, 922.0, 922.0, 922.0, 922.0, 922.0, 922.0, 922.0, 922.0, 922.0, 922.0, 922.0, 922.0, 922.0, 922.0, 922.0, 922.0, 922.0, 922.0, 922.0, 922.0, 922.0, 922.0, 922.0, 922.0, 922.0, 922.0, 922.0, 922.0, 922.0, 922.0, 922.0, 922.0, 922.0, 922.0, 922.0, 922.0, 922.0, 922.0, 922.0, 922.0, 922.0, 922.0, 922.0, 922.0, 922.0, 922.0, 922.0, 922.0, 922.0, 922.0, 922.0, 922.0, 922.0, 922.0, 922.0, 922.0, 921.0, 921.0, 921.0, 922.0, 922.0, 922.0, 922.0, 922.0, 922.0, 921.0, 921.0, 922.0, 922.0, 922.0, 921.0, 921.0, 921.0, 922.0, 922.0, 921.0, 922.0, 922.0, 922.0, 922.0, 921.0, 921.0, 922.0, 922.0, 922.0, 921.0, 922.0, 921.0, 922.0, 921.0, 921.0, 922.0, 922.0],
      "WindowWidth": [2102.0, 2102.0, 2102.0, 2102.0, 2102.0, 2102.0, 2102.0, 2102.0, 2102.0, 2102.0, 2102.0, 2102.0, 2102.0, 2102.0, 2102.0, 2102.0, 2102.0, 2102.0, 2102.0, 2102.0, 2102.0, 2102.0, 2102.0, 2102.0, 2102.0, 2102.0, 2102.0, 2102.0, 2102.0, 2102.0, 2102.0, 2102.0, 2102.0, 2102.0, 2102.0, 2102.0, 2102.0, 2102.0, 2102.0, 2102.0, 2102.0, 2102.0, 2102.0, 2102.0, 2102.0, 2102.0, 2102.0, 2102.0, 2102.0, 2102.0, 2102.0, 2102.0, 2103.0, 2103.0, 2103.0, 2102.0, 2103.0, 2102.0, 2102.0, 2102.0, 2102.0, 2102.0, 2102.0, 2102.0, 2102.0, 2102.0, 2102.0, 2102.0, 2102.0, 2102.0, 2102.0, 2102.0, 2102.0, 2102.0, 2102.0, 2102.0, 2102.0, 2102.0, 2102.0, 2102.0, 2102.0, 2102.0, 2102.0, 2102.0, 2102.0, 2102.0, 2102.0, 2102.0, 2102.0, 2102.0, 2102.0, 2102.0, 2102.0, 2102.0, 2102.0, 2102.0, 2102.0, 2102.0, 2102.0, 2102.0, 2102.0, 2102.0, 2102.0, 2102.0, 2103.0, 2103.0, 2103.0, 2103.0, 2103.0, 2103.0, 2103.0, 2103.0, 2103.0, 2102.0, 2102.0, 2102.0, 2103.0, 2103.0, 2103.0, 2102.0, 2103.0, 2102.0, 2102.0, 2102.0, 2102.0, 2102.0, 2102.0, 2102.0, 2102.0, 2102.0, 2102.0, 2102.0, 2102.0, 2102.0, 2102.0, 2102.0, 2102.0, 2102.0, 2102.0, 2102.0, 2102.0, 2102.0, 2102.0, 2102.0, 2102.0, 2102.0, 2102.0, 2102.0, 2102.0, 2103.0, 2102.0, 2103.0, 2102.0, 2102.0, 2103.0, 2102.0, 2102.0, 2102.0, 2102.0, 2102.0, 2102.0, 2102.0, 2102.0, 2102.0, 2102.0, 2102.0, 2102.0, 2102.0, 2102.0, 2102.0, 2102.0, 2102.0, 2102.0, 2102.0, 2102.0, 2102.0, 2102.0, 2102.0, 2102.0, 2102.0, 2102.0, 2102.0, 2102.0, 2102.0, 2102.0, 2102.0, 2102.0, 2102.0, 2102.0, 2103.0, 2102.0, 2102.0, 2102.0, 2102.0, 2102.0, 2102.0, 2102.0, 2102.0, 2102.0, 2102.0]
    },
    "slices": {}
  }
}