{
  "AcquisitionMatrixPE": 80,
  "AcquisitionNumber": 1,
  "AcquisitionTime": "09:48:39.485000",
  "BandwidthPerPixelPhaseEncode": 48.077,
  "BaseResolution": 80,
  "BodyPartExamined": "BRAIN",
  "CoilCombinationMethod": "Sum of Squares",
  "ConsistencyInfo": "N4_VE11C_LATEST_20160120",
  "ConversionSoftware": "dcm2niix",
  "ConversionSoftwareVersion": "v1.0.20220720",
  "DerivedVendorReportedEchoSpacing": 0.000519999,
  "DeviceSerialNumber": "66112",
  "DwellTime": 2.7e-06,
  "EchoTime": 0.035,
  "EchoTrainLength": 39,
  "EffectiveEchoSpacing": 0.00026,
  "FlipAngle": 90,
  "HeudiconvVersion": "0.13.1",
  "ImageOrientationPatientDICOM": [0.986557, 0.163099, 0.0101844, -0.158198, 0.937567, 0.309745],
  "ImageOrientationText": "Tra>Cor(17.9)>Sag(-2.3)",
  "ImageType": [
    "ORIGINAL",
    "PRIMARY",
    "M",
    "ND",
    "NORM",
    "MOSAIC"
],
  "ImagingFrequency": 123.252,
  "InPlanePhaseEncodingDirectionDICOM": "COL",
  "InstitutionAddress": "Maynard 3,Hanover,NH,US,03755",
  "InstitutionName": "Dartmouth College - PBS",
  "InstitutionalDepartmentName": "Department",
  "MRAcquisitionType": "2D",
  "MagneticFieldStrength": 3,
  "Manufacturer": "Siemens",
  "ManufacturersModelName": "Prisma",
  "MatrixCoilMode": "GRAPPA",
  "Modality": "MR",
  "NonlinearGradientCorrection": false,
  "ParallelReductionFactorInPlane": 2,
  "PartialFourier": 1,
  "PatientPosition": "HFS",
  "PercentPhaseFOV": 100,
  "PercentSampling": 100,
  "PhaseEncodingDirection": "j-",
  "PhaseEncodingSteps": 79,
  "PhaseResolution": 1,
  "PixelBandwidth": 2315,
  "ProcedureStepDescription": "dbic^QA",
  "ProtocolName": "func-bold_task-rest_acq-p2",
  "PulseSequenceDetails": "%SiemensSeq%\\ep2d_bold",
  "ReceiveCoilActiveElements": "HEA;HEP",
  "ReceiveCoilName": "Head_32",
  "ReconMatrixPE": 80,
  "RefLinesPE": 24,
  "RepetitionTime": 2,
  "SAR": 0.0555049,
  "ScanOptions": "FS",
  "ScanningSequence": "EP",
  "SequenceName": "*epfid2d1_80",
  "SequenceVariant": "SK",
  "SeriesDescription": "func-bold_task-rest_acq-p2",
  "SeriesNumber": 5,
  "ShimSetting": [4149, -7705, -7519, 264, -47, -60, -5, 79],
  "SliceThickness": 3.5,
  "SliceTiming": [0.99, 0, 1.0575, 0.0675, 1.1225, 0.1325, 1.1875, 0.1975, 1.255, 0.265, 1.32, 0.33, 1.3875, 0.3975, 1.4525, 0.4625, 1.5175, 0.5275, 1.585, 0.595, 1.65, 0.66, 1.7175, 0.7275, 1.7825, 0.7925, 1.8475, 0.8575, 1.915, 0.925],
  "SoftwareVersions": "syngo MR E11",
  "SpacingBetweenSlices": 3.99,
  "StationName": "AWP66112",
  "TaskName": "rest",
  "TotalReadoutTime": 0.02054,
  "TxRefAmp": 222.121,
  "dcmmeta_affine": [
    [-2.9596714973449707, -0.47459256649017334, -0.1634722650051117, 141.14556884765625],
    [-0.4892972707748413, 2.8127009868621826, 1.2256956100463867, -98.26913452148438],
    [0.030553234741091728, -0.929233729839325, 3.793553352355957, -16.19733428955078],
    [0.0, 0.0, 0.0, 1.0]
],
  "dcmmeta_reorient_transform": [
    [0.0, -1.0, 0.0, 79.0],
    [1.0, 0.0, 0.0, 0.0],
    [0.0, 0.0, 1.0, 0.0],
    [0.0, 0.0, 0.0, 1.0]
],
  "dcmmeta_shape": [80, 80, 30, 200],
  "dcmmeta_slice_dim": 2,
  "dcmmeta_version": 0.6,
  "global": {
    "const": {
      "AccessionNumber": "qa",
      "AcquisitionMatrix": [80, 0, 0, 80],
      "AngioFlag": "N",
      "BitsAllocated": 16,
      "BitsStored": 12,
      "BodyPartExamined": "BRAIN",
      "Columns": 480,
      "EchoNumbers": 1,
      "EchoTime": 35.0,
      "EchoTrainLength": 39,
      "FlipAngle": 90.0,
      "HighBit": 11,
      "ImageOrientationPatient": [0.98655712635616, 0.16309909318741, 0.01018441148582, -0.1581975195369, 0.9375669785289, 0.30974458120291],
      "ImagePositionPatient": [-600.66851493614, -784.33388167145, -281.56419532305],
      "ImageType": [
        "ORIGINAL",
        "PRIMARY",
        "M",
        "ND",
        "NORM",
        "MOSAIC"
],
      "ImagedNucleus": "1H",
      "ImagingFrequency": 123.252354,
      "InPlanePhaseEncodingDirection": "COL",
      "MRAcquisitionType": "2D",
      "MagneticFieldStrength": 3.0,
      "Manufacturer": "SIEMENS",
      "ManufacturerModelName": "Prisma",
      "Modality": "MR",
      "NumberOfAverages": 1.0,
      "NumberOfPhaseEncodingSteps": 79,
      "PercentPhaseFieldOfView": 100.0,
      "PercentSampling": 100.0,
      "PerformedProcedureStepStartTime": "094714.328000",
      "PhotometricInterpretation": "MONOCHROME2",
      "PixelBandwidth": 2315.0,
      "PixelRepresentation": 0,
      "PixelSpacing": [3.0, 3.0],
      "ProtocolName": "func-bold_task-rest_acq-p2",
      "RepetitionTime": 2000.0,
      "Rows": 480,
      "SAR": 0.0555049471736,
      "SamplesPerPixel": 1,
      "ScanOptions": "FS",
      "ScanningSequence": "EP",
      "SequenceName": "*epfid2d1_80",
      "SequenceVariant": "SK",
      "SeriesDescription": "func-bold_task-rest_acq-p2",
      "SeriesNumber": 5,
      "SeriesTime": "094921.306000",
      "SliceLocation": -51.370145270709,
      "SliceThickness": 3.5,
      "SmallestImagePixelValue": 0,
      "SoftwareVersions": "syngo MR E11",
      "SpacingBetweenSlices": 3.9900000858203,
      "SpecificCharacterSet": "ISO_IR 100",
      "StudyID": "50",
      "StudyTime": "094714.282000",
      "TransmitCoilName": "Body",
      "VariableFlipAngleFlag": "N",
      "WindowCenterWidthExplanation": "Algo1",
      "dBdt": 0.0},
    "slices": {}
  },
  "time": {
    "samples": {
      "AcquisitionNumber": [1, 2, 3, 4, 5, 6, 7, 8, 9, 10, 11, 12, 13, 14, 15, 16, 17, 18, 19, 20, 21, 22, 23, 24, 25, 26, 27, 28, 29, 30, 31, 32, 33, 34, 35, 36, 37, 38, 39, 40, 41, 42, 43, 44, 45, 46, 47, 48, 49, 50, 51, 52, 53, 54, 55, 56, 57, 58, 59, 60, 61, 62, 63, 64, 65, 66, 67, 68, 69, 70, 71, 72, 73, 74, 75, 76, 77, 78, 79, 80, 81, 82, 83, 84, 85, 86, 87, 88, 89, 90, 91, 92, 93, 94, 95, 96, 97, 98, 99, 100, 101, 102, 103, 104, 105, 106, 107, 108, 109, 110, 111, 112, 113, 114, 115, 116, 117, 118, 119, 120, 121, 122, 123, 124, 125, 126, 127, 128, 129, 130, 131, 132, 133, 134, 135, 136, 137, 138, 139, 140, 141, 142, 143, 144, 145, 146, 147, 148, 149, 150, 151, 152, 153, 154, 155, 156, 157, 158, 159, 160, 161, 162, 163, 164, 165, 166, 167, 168, 169, 170, 171, 172, 173, 174, 175, 176, 177, 178, 179, 180, 181, 182, 183, 184, 185, 186, 187, 188, 189, 190, 191, 192, 193, 194, 195, 196, 197, 198, 199, 200],
      "AcquisitionTime": ["094839.485000", "094841.485000", "094843.485000", "094845.485000", "094847.485000", "094849.485000", "094851.485000", "094853.485000", "094855.485000", "094857.485000", "094859.485000", "094901.485000", "094903.485000", "094905.485000", "094907.485000", "094909.485000", "094911.485000", "094913.485000", "094915.485000", "094917.485000", "094919.485000", "094921.485000", "094923.485000", "094925.485000", "094927.485000", "094929.485000", "094931.485000", "094933.485000", "094935.485000", "094937.485000", "094939.485000", "094941.485000", "094943.485000", "094945.485000", "094947.485000", "094949.485000", "094951.485000", "094953.485000", "094955.485000", "094957.485000", "094959.485000", "095001.485000", "095003.485000", "095005.485000", "095007.485000", "095009.485000", "095011.485000", "095013.485000", "095015.485000", "095017.485000", "095019.485000", "095021.485000", "095023.485000", "095025.485000", "095027.485000", "095029.485000", "095031.485000", "095033.485000", "095035.485000", "095037.485000", "095039.485000", "095041.485000", "095043.485000", "095045.485000", "095047.485000", "095049.485000", "095051.485000", "095053.485000", "095055.485000", "095057.485000", "095059.485000", "095101.485000", "095103.485000", "095105.485000", "095107.485000", "095109.485000", "095111.485000", "095113.485000", "095115.485000", "095117.485000", "095119.485000", "095121.485000", "095123.485000", "095125.485000", "095127.485000", "095129.485000", "095131.485000", "095133.485000", "095135.485000", "095137.485000", "095139.485000", "095141.485000", "095143.485000", "095145.485000", "095147.485000", "095149.485000", "095151.485000", "095153.485000", "095155.485000", "095157.485000", "095159.485000", "095201.485000", "095203.485000", "095205.485000", "095207.485000", "095209.485000", "095211.485000", "095213.485000", "095215.485000", "095217.485000", "095219.485000", "095221.485000", "095223.485000", "095225.485000", "095227.485000", "095229.485000", "095231.485000", "095233.485000", "095235.485000", "095237.485000", "095239.485000", "095241.485000", "095243.485000", "095245.485000", "095247.485000", "095249.485000", "095251.485000", "095253.485000", "095255.485000", "095257.485000", "095259.485000", "095301.485000", "095303.485000", "095305.485000", "095307.485000", "095309.485000", "095311.485000", "095313.485000", "095315.485000", "095317.485000", "095319.485000", "095321.485000", "095323.485000", "095325.485000", "095327.485000", "095329.485000", "095331.485000", "095333.485000", "095335.485000", "095337.485000", "095339.485000", "095341.485000", "095343.485000", "095345.485000", "095347.485000", "095349.485000", "095351.485000", "095353.485000", "095355.485000", "095357.485000", "095359.485000", "095401.485000", "095403.485000", "095405.485000", "095407.485000", "095409.485000", "095411.485000", "095413.485000", "095415.485000", "095417.485000", "095419.485000", "095421.485000", "095423.485000", "095425.485000", "095427.485000", "095429.485000", "095431.485000", "095433.485000", "095435.485000", "095437.485000", "095439.485000", "095441.485000", "095443.485000", "095445.485000", "095447.485000", "095449.485000", "095451.485000", "095453.485000", "095455.485000", "095457.485000", "095459.485000", "095501.485000", "095503.485000", "095505.485000", "095507.485000", "095509.485000", "095511.485000", "095513.485000", "095515.485000", "095517.485000"],
      "ContentTime": ["094921.309000", "094921.313000", "094921.315000", "094921.318000", "094921.320000", "094921.323000", "094921.325000", "094921.328000", "094921.330000", "094921.333000", "094921.335000", "094921.338000", "094921.340000", "094921.343000", "094921.345000", "094921.348000", "094921.351000", "094921.353000", "094921.356000", "094921.358000", "094921.364000", "095001.320000", "095001.323000", "095001.326000", "095001.328000", "095001.331000", "095001.333000", "095001.336000", "095001.341000", "095001.343000", "095001.346000", "095001.348000", "095001.351000", "095001.353000", "095001.356000", "095001.358000", "095001.361000", "095001.363000", "095001.366000", "095001.368000", "095001.371000", "095041.305000", "095041.308000", "095041.311000", "095041.313000", "095041.326000", "095041.329000", "095041.331000", "095041.334000", "095041.336000", "095041.339000", "095041.341000", "095041.344000", "095041.346000", "095041.349000", "095041.351000", "095041.354000", "095041.356000", "095041.359000", "095041.361000", "095041.364000", "095121.305000", "095121.307000", "095121.310000", "095121.313000", "095121.315000", "095121.318000", "095121.320000", "095121.323000", "095121.325000", "095121.328000", "095121.331000", "095121.333000", "095121.336000", "095121.338000", "095121.341000", "095121.343000", "095121.346000", "095121.348000", "095121.351000", "095121.353000", "095201.304000", "095201.307000", "095201.310000", "095201.312000", "095201.315000", "095201.317000", "095201.320000", "095201.322000", "095201.325000", "095201.328000", "095201.330000", "095201.333000", "095201.335000", "095201.338000", "095201.340000", "095201.343000", "095201.345000", "095201.348000", "095201.350000", "095201.353000", "095241.305000", "095241.308000", "095241.311000", "095241.313000", "095241.316000", "095241.318000", "095241.321000", "095241.323000", "095241.326000", "095241.328000", "095241.331000", "095241.333000", "095241.336000", "095241.339000", "095241.341000", "095241.344000", "095241.346000", "095241.349000", "095241.351000", "095241.354000", "095321.304000", "095321.307000", "095321.310000", "095321.312000", "095321.315000", "095321.317000", "095321.320000", "095321.323000", "095321.325000", "095321.328000", "095321.330000", "095321.333000", "095321.335000", "095321.338000", "095321.340000", "095321.343000", "095321.345000", "095321.348000", "095321.351000", "095321.353000", "095401.304000", "095401.307000", "095401.310000", "095401.312000", "095401.315000", "095401.317000", "095401.320000", "095401.323000", "095401.325000", "095401.328000", "095401.330000", "095401.333000", "095401.335000", "095401.338000", "095401.340000", "095401.343000", "095401.346000", "095401.348000", "095401.351000", "095401.353000", "095441.304000", "095441.307000", "095441.310000", "095441.312000", "095441.315000", "095441.318000", "095441.333000", "095441.336000", "095441.338000", "095441.341000", "095441.343000", "095441.346000", "095441.348000", "095441.351000", "095441.353000", "095441.356000", "095441.358000", "095441.361000", "095441.372000", "095441.374000", "095519.005000", "095519.007000", "095519.010000", "095519.013000", "095519.015000", "095519.018000", "095519.020000", "095519.023000", "095519.026000", "095519.028000", "095519.031000", "095519.038000", "095519.041000", "095519.045000", "095519.048000", "095519.051000", "095519.054000", "095519.057000", "095519.059000"],
      "InstanceCreationTime": ["094921.309000", "094921.313000", "094921.315000", "094921.318000", "094921.320000", "094921.323000", "094921.325000", "094921.328000", "094921.330000", "094921.333000", "094921.335000", "094921.338000", "094921.340000", "094921.343000", "094921.345000", "094921.348000", "094921.351000", "094921.353000", "094921.356000", "094921.358000", "094921.364000", "095001.320000", "095001.323000", "095001.326000", "095001.328000", "095001.331000", "095001.333000", "095001.336000", "095001.341000", "095001.343000", "095001.346000", "095001.348000", "095001.351000", "095001.353000", "095001.356000", "095001.358000", "095001.361000", "095001.363000", "095001.366000", "095001.368000", "095001.371000", "095041.305000", "095041.308000", "095041.311000", "095041.313000", "095041.326000", "095041.329000", "095041.331000", "095041.334000", "095041.336000", "095041.339000", "095041.341000", "095041.344000", "095041.346000", "095041.349000", "095041.351000", "095041.354000", "095041.356000", "095041.359000", "095041.361000", "095041.364000", "095121.305000", "095121.307000", "095121.310000", "095121.313000", "095121.315000", "095121.318000", "095121.320000", "095121.323000", "095121.325000", "095121.328000", "095121.331000", "095121.333000", "095121.336000", "095121.338000", "095121.341000", "095121.343000", "095121.346000", "095121.348000", "095121.351000", "095121.353000", "095201.304000", "095201.307000", "095201.310000", "095201.312000", "095201.315000", "095201.317000", "095201.320000", "095201.322000", "095201.325000", "095201.328000", "095201.330000", "095201.333000", "095201.335000", "095201.338000", "095201.340000", "095201.343000", "095201.345000", "095201.348000", "095201.350000", "095201.353000", "095241.305000", "095241.308000", "095241.311000", "095241.313000", "095241.316000", "095241.318000", "095241.321000", "095241.323000", "095241.326000", "095241.328000", "095241.331000", "095241.333000", "095241.336000", "095241.339000", "095241.341000", "095241.344000", "095241.346000", "095241.349000", "095241.351000", "095241.354000", "095321.304000", "095321.307000", "095321.310000", "095321.312000", "095321.315000", "095321.317000", "095321.320000", "095321.323000", "095321.325000", "095321.328000", "095321.330000", "095321.333000", "095321.335000", "095321.338000", "095321.340000", "095321.343000", "095321.345000", "095321.348000", "095321.351000", "095321.353000", "095401.304000", "095401.307000", "095401.310000", "095401.312000", "095401.315000", "095401.317000", "095401.320000", "095401.323000", "095401.325000", "095401.328000", "095401.330000", "095401.333000", "095401.335000", "095401.338000", "095401.340000", "095401.343000", "095401.346000", "095401.348000", "095401.351000", "095401.353000", "095441.304000", "095441.307000", "095441.310000", "095441.312000", "095441.315000", "095441.318000", "095441.333000", "095441.336000", "095441.338000", "095441.341000", "095441.343000", "095441.346000", "095441.348000", "095441.351000", "095441.353000", "095441.356000", "095441.358000", "095441.361000", "095441.372000", "095441.374000", "095519.005000", "095519.007000", "095519.010000", "095519.013000", "095519.015000", "095519.018000", "095519.020000", "095519.023000", "095519.026000", "095519.028000", "095519.031000", "095519.038000", "095519.041000", "095519.045000", "095519.048000", "095519.051000", "095519.054000", "095519.057000", "095519.059000"],
      "InstanceNumber": [1, 2, 3, 4, 5, 6, 7, 8, 9, 10, 11, 12, 13, 14, 15, 16, 17, 18, 19, 20, 21, 22, 23, 24, 25, 26, 27, 28, 29, 30, 31, 32, 33, 34, 35, 36, 37, 38, 39, 40, 41, 42, 43, 44, 45, 46, 47, 48, 49, 50, 51, 52, 53, 54, 55, 56, 57, 58, 59, 60, 61, 62, 63, 64, 65, 66, 67, 68, 69, 70, 71, 72, 73, 74, 75, 76, 77, 78, 79, 80, 81, 82, 83, 84, 85, 86, 87, 88, 89, 90, 91, 92, 93, 94, 95, 96, 97, 98, 99, 100, 101, 102, 103, 104, 105, 106, 107, 108, 109, 110, 111, 112, 113, 114, 115, 116, 117, 118, 119, 120, 121, 122, 123, 124, 125, 126, 127, 128, 129, 130, 131, 132, 133, 134, 135, 136, 137, 138, 139, 140, 141, 142, 143, 144, 145, 146, 147, 148, 149, 150, 151, 152, 153, 154, 155, 156, 157, 158, 159, 160, 161, 162, 163, 164, 165, 166, 167, 168, 169, 170, 171, 172, 173, 174, 175, 176, 177, 178, 179, 180, 181, 182, 183, 184, 185, 186, 187, 188, 189, 190, 191, 192, 193, 194, 195, 196, 197, 198, 199, 200],
      "LargestImagePixelValue": [1955, 1954, 1956, 1959, 1958, 1955, 1953, 1958, 1959, 1957, 1954, 1955, 1965, 1958, 1960, 1948, 1954, 1956, 1957, 1959, 1954, 1959, 1966, 1956, 1958, 1961, 1957, 1959, 1962, 1967, 1950, 1956, 1958, 1964, 1954, 1955, 1956, 1957, 1952, 1957, 1959, 1955, 1958, 1957, 1956, 1953, 1954, 1951, 1956, 1952, 1953, 1955, 1956, 1953, 1953, 1955, 1953, 1951, 1952, 1951, 1954, 1954, 1950, 1949, 1949, 1945, 1948, 1949, 1954, 1943, 1950, 1950, 1951, 1954, 1942, 1950, 1947, 1946, 1954, 1956, 1953, 1946, 1948, 1942, 1946, 1947, 1948, 1947, 1949, 1948, 1949, 1950, 1951, 1943, 1951, 1951, 1958, 1956, 1942, 1950, 1953, 1949, 1948, 1945, 1951, 1956, 1952, 1947, 1943, 1943, 1948, 1944, 1952, 1946, 1949, 1949, 1944, 1941, 1943, 1944, 1943, 1946, 1941, 1949, 1941, 1947, 1948, 1946, 1948, 1941, 1946, 1946, 1946, 1947, 1953, 1945, 1948, 1947, 1942, 1947, 1941, 1944, 1948, 1943, 1949, 1951, 1943, 1944, 1945, 1949, 1945, 1944, 1948, 1948, 1943, 1942, 1944, 1950, 1947, 1948, 1945, 1949, 1948, 1944, 1946, 1947, 1944, 1951, 1947, 1944, 1952, 1945, 1948, 1945, 1944, 1943, 1939, 1948, 1941, 1949, 1946, 1950, 1955, 1944, 1945, 1947, 1945, 1943, 1938, 1943, 1943, 1950, 1946, 1953, 1950, 1947, 1947, 1949, 1950, 1948],
      "WindowCenter": [990.0, 989.0, 989.0, 989.0, 989.0, 989.0, 989.0, 989.0, 989.0, 989.0, 990.0, 989.0, 989.0, 991.0, 989.0, 989.0, 990.0, 989.0, 991.0, 990.0, 989.0, 989.0, 989.0, 989.0, 989.0, 990.0, 989.0, 989.0, 990.0, 989.0, 989.0, 989.0, 989.0, 989.0, 989.0, 989.0, 989.0, 989.0, 989.0, 990.0, 989.0, 989.0, 989.0, 989.0, 989.0, 989.0, 989.0, 989.0, 989.0, 989.0, 989.0, 989.0, 990.0, 988.0, 989.0, 988.0, 989.0, 989.0, 989.0, 988.0, 988.0, 989.0, 988.0, 988.0, 988.0, 988.0, 989.0, 988.0, 988.0, 988.0, 990.0, 988.0, 990.0, 988.0, 988.0, 989.0, 988.0, 988.0, 988.0, 988.0, 988.0, 989.0, 988.0, 988.0, 989.0, 989.0, 988.0, 988.0, 989.0, 988.0, 988.0, 988.0, 988.0, 988.0, 988.0, 989.0, 989.0, 988.0, 988.0, 989.0, 988.0, 988.0, 988.0, 988.0, 989.0, 989.0, 988.0, 988.0, 988.0, 989.0, 989.0, 988.0, 988.0, 989.0, 989.0, 988.0, 988.0, 989.0, 988.0, 988.0, 988.0, 988.0, 988.0, 988.0, 988.0, 988.0, 988.0, 988.0, 988.0, 988.0, 988.0, 988.0, 989.0, 989.0, 988.0, 988.0, 988.0, 988.0, 988.0, 988.0, 989.0, 989.0, 988.0, 989.0, 989.0, 989.0, 989.0, 988.0, 988.0, 988.0, 988.0, 989.0, 988.0, 989.0, 988.0, 988.0, 988.0, 988.0, 988.0, 988.0, 988.0, 988.0, 988.0, 988.0, 988.0, 988.0, 988.0, 988.0, 989.0, 988.0, 988.0, 988.0, 988.0, 988.0, 988.0, 988.0, 988.0, 988.0, 988.0, 989.0, 988.0, 989.0, 988.0, 988.0, 988.0, 988.0, 988.0, 988.0, 988.0, 988.0, 989.0, 988.0, 988.0, 988.0, 988.0, 989.0, 988.0, 989.0, 988.0, 988.0],
      "WindowWidth": [2170.0, 2169.0, 2169.0, 2169.0, 2169.0, 2168.0, 2169.0, 2169.0, 2169.0, 2169.0, 2169.0, 2169.0, 2169.0, 2170.0, 2168.0, 2168.0, 2169.0, 2168.0, 2169.0, 2169.0, 2168.0, 2168.0, 2168.0, 2168.0, 2168.0, 2169.0, 2168.0, 2168.0, 2169.0, 2168.0, 2168.0, 2168.0, 2168.0, 2168.0, 2168.0, 2168.0, 2168.0, 2168.0, 2168.0, 2168.0, 2168.0, 2168.0, 2168.0, 2168.0, 2168.0, 2168.0, 2168.0, 2168.0, 2168.0, 2168.0, 2168.0, 2168.0, 2169.0, 2167.0, 2168.0, 2168.0, 2168.0, 2168.0, 2168.0, 2167.0, 2167.0, 2168.0, 2168.0, 2167.0, 2167.0, 2167.0, 2167.0, 2167.0, 2167.0, 2167.0, 2169.0, 2167.0, 2169.0, 2167.0, 2167.0, 2168.0, 2167.0, 2167.0, 2167.0, 2167.0, 2167.0, 2167.0, 2167.0, 2167.0, 2167.0, 2167.0, 2167.0, 2167.0, 2168.0, 2167.0, 2167.0, 2167.0, 2167.0, 2167.0, 2167.0, 2167.0, 2167.0, 2167.0, 2167.0, 2167.0, 2167.0, 2167.0, 2167.0, 2167.0, 2167.0, 2167.0, 2167.0, 2167.0, 2167.0, 2167.0, 2167.0, 2166.0, 2167.0, 2167.0, 2167.0, 2166.0, 2167.0, 2167.0, 2166.0, 2166.0, 2166.0, 2166.0, 2167.0, 2166.0, 2166.0, 2166.0, 2166.0, 2167.0, 2166.0, 2166.0, 2166.0, 2166.0, 2167.0, 2167.0, 2166.0, 2166.0, 2166.0, 2166.0, 2166.0, 2166.0, 2167.0, 2167.0, 2166.0, 2167.0, 2166.0, 2166.0, 2166.0, 2166.0, 2166.0, 2166.0, 2166.0, 2166.0, 2166.0, 2166.0, 2166.0, 2166.0, 2166.0, 2166.0, 2166.0, 2166.0, 2166.0, 2166.0, 2166.0, 2166.0, 2166.0, 2166.0, 2166.0, 2166.0, 2167.0, 2166.0, 2166.0, 2166.0, 2165.0, 2165.0, 2166.0, 2165.0, 2165.0, 2165.0, 2165.0, 2166.0, 2165.0, 2166.0, 2165.0, 2165.0, 2165.0, 2165.0, 2166.0, 2166.0, 2165.0, 2165.0, 2166.0, 2165.0, 2165.0, 2165.0, 2165.0, 2166.0, 2165.0, 2167.0, 2165.0, 2165.0]
    },
    "slices": {}
  }
}