{
  "AcquisitionMatrixPE": 122,
  "AcquisitionNumber": 1,
  "AcquisitionTime": "10:21:32.490000",
  "BandwidthPerPixelPhaseEncode": 27.785,
  "BaseResolution": 122,
  "BodyPartExamined": "BRAIN",
  "CoilCombinationMethod": "Adaptive Combine",
  "ConsistencyInfo": "N4_VE11C_LATEST_20160120",
  "ConversionSoftware": "dcm2niix",
  "ConversionSoftwareVersion": "v1.0.20220720",
  "DerivedVendorReportedEchoSpacing": 0.000590011,
  "DeviceSerialNumber": "66112",
  "DiffusionScheme": "Monopolar",
  "DwellTime": 2e-06,
  "EchoTime": 0.068,
  "EchoTrainLength": 61,
  "EffectiveEchoSpacing": 0.000295005,
  "FlipAngle": 90,
  "HeudiconvVersion": "0.13.1",
  "ImageOrientationPatientDICOM": [0.989469, -0.144676, 0.00447731, 0.13642, 0.942455, 0.305236],
  "ImageOrientationText": "Tra>Cor(17.6)>Sag(2.8)",
  "ImageType": [
    "ORIGINAL",
    "PRIMARY",
    "DIFFUSION",
    "NONE",
    "ND",
    "NORM"
],
  "ImagingFrequency": 123.252,
  "InPlanePhaseEncodingDirectionDICOM": "COL",
  "InstitutionAddress": "Maynard 3,Hanover,NH,US,03755",
  "InstitutionName": "Dartmouth College - PBS",
  "InstitutionalDepartmentName": "Department",
  "MRAcquisitionType": "2D",
  "MagneticFieldStrength": 3,
  "Manufacturer": "Siemens",
  "ManufacturersModelName": "Prisma",
  "Modality": "MR",
  "MultibandAccelerationFactor": 4,
  "NonlinearGradientCorrection": false,
  "ParallelReductionFactorInPlane": 2,
  "PartialFourier": 1,
  "PatientPosition": "HFS",
  "PercentPhaseFOV": 100,
  "PercentSampling": 100,
  "PhaseEncodingDirection": "j-",
  "PhaseEncodingSteps": 122,
  "PhaseResolution": 1,
  "PixelBandwidth": 2050,
  "ProcedureStepDescription": "dbic^QA",
  "ProtocolName": "dwi_acq-DTI-30-p2-s4",
  "PulseSequenceDetails": "%SiemensSeq%\\ep2d_diff",
  "ReceiveCoilActiveElements": "HEA;HEP",
  "ReceiveCoilName": "Head_32",
  "ReconMatrixPE": 122,
  "RefLinesPE": 38,
  "RepetitionTime": 3.6,
  "SAR": 0.162396,
  "ScanOptions": "FS",
  "ScanningSequence": "EP",
  "SequenceName": "*ep_b0",
  "SequenceVariant": "SK\\SP",
  "SeriesDescription": "dwi_acq-DTI-30-p2-s4",
  "SeriesNumber": 13,
  "ShimSetting": [4149, -7708, -7520, 291, -99, -138, 16, 84],
  "SliceThickness": 2,
  "SliceTiming": [2.58594, 0, 1.78906, 0.19531, 1.99219, 0.39844, 2.1875, 0.59375, 2.38281, 0.99219, 2.78125, 1.1875, 2.98438, 1.39062, 3.17969, 1.59375, 3.38281, 0.79688, 2.58594, 0, 1.78906, 0.19531, 1.99219, 0.39844, 2.1875, 0.59375, 2.38281, 0.99219, 2.78125, 1.1875, 2.98438, 1.39062, 3.17969, 1.59375, 3.38281, 0.79688, 2.58594, 0, 1.78906, 0.19531, 1.99219, 0.39844, 2.1875, 0.59375, 2.38281, 0.99219, 2.78125, 1.1875, 2.98438, 1.39062, 3.17969, 1.59375, 3.38281, 0.79688, 2.58594, 0, 1.78906, 0.19531, 1.99219, 0.39844, 2.1875, 0.59375, 2.38281, 0.99219, 2.78125, 1.1875, 2.98438, 1.39062, 3.17969, 1.59375, 3.38281, 0.79688],
  "SoftwareVersions": "syngo MR E11",
  "SpacingBetweenSlices": 2,
  "SpoilingState": true,
  "StationName": "AWP66112",
  "TotalReadoutTime": 0.0356956,
  "TxRefAmp": 227.432,
  "dcmmeta_affine": [
    [-1.9464964866638184, 0.26836761832237244, 0.09675955772399902, 97.83075714111328],
    [0.28460779786109924, 1.8540090322494507, 0.6028213500976562, -143.20411682128906],
    [0.008807815611362457, -0.6004638671875, 1.9045333862304688, -29.22852897644043],
    [0.0, 0.0, 0.0, 1.0]
],
  "dcmmeta_reorient_transform": [
    [0.0, -1.0, 0.0, 121.0],
    [1.0, 0.0, 0.0, 0.0],
    [0.0, 0.0, -1.0, 71.0],
    [0.0, 0.0, 0.0, 1.0]
],
  "dcmmeta_shape": [122, 122, 72, 7],
  "dcmmeta_slice_dim": 2,
  "dcmmeta_version": 0.6,
  "global": {
    "const": {
      "AccessionNumber": "qa",
      "AcquisitionMatrix": [122, 0, 0, 122],
      "AngioFlag": "N",
      "BitsAllocated": 16,
      "BitsStored": 12,
      "BodyPartExamined": "BRAIN",
      "Columns": 122,
      "EchoNumbers": 1,
      "EchoTime": 68.0,
      "EchoTrainLength": 61,
      "FlipAngle": 90.0,
      "HighBit": 11,
      "ImageOrientationPatient": [0.98946900813434, -0.1446756222378, 0.00447730630595, 0.13642020836165, 0.94245457760644, 0.30523580376364],
      "ImageType": [
        "ORIGINAL",
        "PRIMARY",
        "DIFFUSION",
        "NONE",
        "ND",
        "NORM"
],
      "ImagedNucleus": "1H",
      "ImagingFrequency": 123.252446,
      "InPlanePhaseEncodingDirection": "COL",
      "MRAcquisitionType": "2D",
      "MagneticFieldStrength": 3.0,
      "Manufacturer": "SIEMENS",
      "ManufacturerModelName": "Prisma",
      "Modality": "MR",
      "NumberOfAverages": 1.0,
      "NumberOfPhaseEncodingSteps": 122,
      "PercentPhaseFieldOfView": 100.0,
      "PercentSampling": 100.0,
      "PerformedProcedureStepStartTime": "094426.401000",
      "PhotometricInterpretation": "MONOCHROME2",
      "PixelBandwidth": 2050.0,
      "PixelRepresentation": 0,
      "PixelSpacing": [1.9672131538391, 1.9672131538391],
      "ProtocolName": "dwi_acq-DTI-30-p2-s4",
      "RepetitionTime": 3600.0,
      "Rows": 122,
      "SAR": 0.16239630253197,
      "SamplesPerPixel": 1,
      "ScanOptions": "FS",
      "ScanningSequence": "EP",
      "SequenceVariant": [
        "SK",
        "SP"
],
      "SeriesDescription": "dwi_acq-DTI-30-p2-s4",
      "SeriesNumber": 13,
      "SeriesTime": "102141.930000",
      "SliceThickness": 2.0,
      "SmallestImagePixelValue": 0,
      "SoftwareVersions": "syngo MR E11",
      "SpacingBetweenSlices": 2.0,
      "SpecificCharacterSet": "ISO_IR 100",
      "StudyID": "66",
      "StudyTime": "094426.359000",
      "TransmitCoilName": "Body",
      "VariableFlipAngleFlag": "N",
      "WindowCenterWidthExplanation": "Algo1",
      "dBdt": 0.0},
    "slices": {
      "AcquisitionTime": ["102132.490000", "102129.905000", "102131.695000", "102130.105000", "102131.895000", "102130.302500", "102132.092500", "102130.502500", "102132.292500", "102130.900000", "102132.690000", "102131.097500", "102132.887500", "102131.297500", "102133.087500", "102131.497500", "102133.287500", "102130.700000", "102132.490000", "102129.905000", "102131.695000", "102130.105000", "102131.895000", "102130.302500", "102132.092500", "102130.502500", "102132.292500", "102130.900000", "102132.690000", "102131.097500", "102132.887500", "102131.297500", "102133.087500", "102131.497500", "102133.287500", "102130.700000", "102132.490000", "102129.905000", "102131.695000", "102130.105000", "102131.895000", "102130.302500", "102132.092500", "102130.502500", "102132.292500", "102130.900000", "102132.690000", "102131.097500", "102132.887500", "102131.297500", "102133.087500", "102131.497500", "102133.287500", "102130.700000", "102132.490000", "102129.905000", "102131.695000", "102130.105000", "102131.895000", "102130.302500", "102132.092500", "102130.502500", "102132.292500", "102130.900000", "102132.690000", "102131.097500", "102132.887500", "102131.297500", "102133.087500", "102131.497500", "102133.287500", "102130.700000", "102136.090000", "102133.505000", "102135.295000", "102133.705000", "102135.495000", "102133.902500", "102135.692500", "102134.102500", "102135.892500", "102134.500000", "102136.290000", "102134.697500", "102136.487500", "102134.897500", "102136.687500", "102135.097500", "102136.887500", "102134.300000", "102136.090000", "102133.505000", "102135.295000", "102133.705000", "102135.495000", "102133.902500", "102135.692500", "102134.102500", "102135.892500", "102134.500000", "102136.290000", "102134.697500", "102136.487500", "102134.897500", "102136.687500", "102135.097500", "102136.887500", "102134.300000", "102136.090000", "102133.505000", "102135.295000", "102133.705000", "102135.495000", "102133.902500", "102135.692500", "102134.102500", "102135.892500", "102134.500000", "102136.290000", "102134.697500", "102136.487500", "102134.897500", "102136.687500", "102135.097500", "102136.887500", "102134.300000", "102136.090000", "102133.505000", "102135.295000", "102133.705000", "102135.495000", "102133.902500", "102135.692500", "102134.102500", "102135.892500", "102134.500000", "102136.290000", "102134.697500", "102136.487500", "102134.897500", "102136.687500", "102135.097500", "102136.887500", "102134.300000", "102139.690000", "102137.105000", "102138.895000", "102137.305000", "102139.095000", "102137.502500", "102139.292500", "102137.702500", "102139.492500", "102138.100000", "102139.890000", "102138.297500", "102140.087500", "102138.497500", "102140.287500", "102138.697500", "102140.487500", "102137.900000", "102139.690000", "102137.105000", "102138.895000", "102137.305000", "102139.095000", "102137.502500", "102139.292500", "102137.702500", "102139.492500", "102138.100000", "102139.890000", "102138.297500", "102140.087500", "102138.497500", "102140.287500", "102138.697500", "102140.487500", "102137.900000", "102139.690000", "102137.105000", "102138.895000", "102137.305000", "102139.095000", "102137.502500", "102139.292500", "102137.702500", "102139.492500", "102138.100000", "102139.890000", "102138.297500", "102140.087500", "102138.497500", "102140.287500", "102138.697500", "102140.487500", "102137.900000", "102139.690000", "102137.105000", "102138.895000", "102137.305000", "102139.095000", "102137.502500", "102139.292500", "102137.702500", "102139.492500", "102138.100000", "102139.890000", "102138.297500", "102140.087500", "102138.497500", "102140.287500", "102138.697500", "102140.487500", "102137.900000", "102143.290000", "102140.705000", "102142.495000", "102140.905000", "102142.695000", "102141.102500", "102142.892500", "102141.302500", "102143.092500", "102141.700000", "102143.490000", "102141.897500", "102143.687500", "102142.097500", "102143.887500", "102142.297500", "102144.087500", "102141.500000", "102143.290000", "102140.705000", "102142.495000", "102140.905000", "102142.695000", "102141.102500", "102142.892500", "102141.302500", "102143.092500", "102141.700000", "102143.490000", "102141.897500", "102143.687500", "102142.097500", "102143.887500", "102142.297500", "102144.087500", "102141.500000", "102143.290000", "102140.705000", "102142.495000", "102140.905000", "102142.695000", "102141.102500", "102142.892500", "102141.302500", "102143.092500", "102141.700000", "102143.490000", "102141.897500", "102143.687500", "102142.097500", "102143.887500", "102142.297500", "102144.087500", "102141.500000", "102143.290000", "102140.705000", "102142.495000", "102140.905000", "102142.695000", "102141.102500", "102142.892500", "102141.302500", "102143.092500", "102141.700000", "102143.490000", "102141.897500", "102143.687500", "102142.097500", "102143.887500", "102142.297500", "102144.087500", "102141.500000", "102146.890000", "102144.305000", "102146.095000", "102144.505000", "102146.295000", "102144.702500", "102146.492500", "102144.902500", "102146.692500", "102145.300000", "102147.090000", "102145.497500", "102147.287500", "102145.697500", "102147.487500", "102145.897500", "102147.687500", "102145.100000", "102146.890000", "102144.305000", "102146.095000", "102144.505000", "102146.295000", "102144.702500", "102146.492500", "102144.902500", "102146.692500", "102145.300000", "102147.090000", "102145.497500", "102147.287500", "102145.697500", "102147.487500", "102145.897500", "102147.687500", "102145.100000", "102146.890000", "102144.305000", "102146.095000", "102144.505000", "102146.295000", "102144.702500", "102146.492500", "102144.902500", "102146.692500", "102145.300000", "102147.090000", "102145.497500", "102147.287500", "102145.697500", "102147.487500", "102145.897500", "102147.687500", "102145.100000", "102146.890000", "102144.305000", "102146.095000", "102144.505000", "102146.295000", "102144.702500", "102146.492500", "102144.902500", "102146.692500", "102145.300000", "102147.090000", "102145.497500", "102147.287500", "102145.697500", "102147.487500", "102145.897500", "102147.687500", "102145.100000", "102150.490000", "102147.905000", "102149.695000", "102148.105000", "102149.895000", "102148.302500", "102150.092500", "102148.502500", "102150.292500", "102148.900000", "102150.690000", "102149.097500", "102150.887500", "102149.297500", "102151.087500", "102149.497500", "102151.287500", "102148.700000", "102150.490000", "102147.905000", "102149.695000", "102148.105000", "102149.895000", "102148.302500", "102150.092500", "102148.502500", "102150.292500", "102148.900000", "102150.690000", "102149.097500", "102150.887500", "102149.297500", "102151.087500", "102149.497500", "102151.287500", "102148.700000", "102150.490000", "102147.905000", "102149.695000", "102148.105000", "102149.895000", "102148.302500", "102150.092500", "102148.502500", "102150.292500", "102148.900000", "102150.690000", "102149.097500", "102150.887500", "102149.297500", "102151.087500", "102149.497500", "102151.287500", "102148.700000", "102150.490000", "102147.905000", "102149.695000", "102148.105000", "102149.895000", "102148.302500", "102150.092500", "102148.502500", "102150.292500", "102148.900000", "102150.690000", "102149.097500", "102150.887500", "102149.297500", "102151.087500", "102149.497500", "102151.287500", "102148.700000", "102154.090000", "102151.505000", "102153.295000", "102151.705000", "102153.495000", "102151.902500", "102153.692500", "102152.102500", "102153.892500", "102152.500000", "102154.290000", "102152.697500", "102154.487500", "102152.897500", "102154.687500", "102153.097500", "102154.887500", "102152.300000", "102154.090000", "102151.505000", "102153.295000", "102151.705000", "102153.495000", "102151.902500", "102153.692500", "102152.102500", "102153.892500", "102152.500000", "102154.290000", "102152.697500", "102154.487500", "102152.897500", "102154.687500", "102153.097500", "102154.887500", "102152.300000", "102154.090000", "102151.505000", "102153.295000", "102151.705000", "102153.495000", "102151.902500", "102153.692500", "102152.102500", "102153.892500", "102152.500000", "102154.290000", "102152.697500", "102154.487500", "102152.897500", "102154.687500", "102153.097500", "102154.887500", "102152.300000", "102154.090000", "102151.505000", "102153.295000", "102151.705000", "102153.495000", "102151.902500", "102153.692500", "102152.102500", "102153.892500", "102152.500000", "102154.290000", "102152.697500", "102154.487500", "102152.897500", "102154.687500", "102153.097500", "102154.887500", "102152.300000"],
      "ContentTime": ["102142.205000", "102141.933000", "102142.169000", "102141.943000", "102142.178000", "102141.953000", "102142.187000", "102142.116000", "102142.196000", "102142.134000", "102142.214000", "102142.143000", "102142.223000", "102142.152000", "102142.232000", "102142.160000", "102142.241000", "102142.125000", "102142.207000", "102141.936000", "102142.171000", "102141.945000", "102142.180000", "102142.094000", "102142.189000", "102142.118000", "102142.198000", "102142.136000", "102142.216000", "102142.145000", "102142.225000", "102142.154000", "102142.234000", "102142.162000", "102142.243000", "102142.127000", "102142.210000", "102141.939000", "102142.173000", "102141.947000", "102142.182000", "102142.111000", "102142.192000", "102142.121000", "102142.201000", "102142.138000", "102142.219000", "102142.147000", "102142.227000", "102142.156000", "102142.237000", "102142.165000", "102142.246000", "102142.129000", "102142.212000", "102141.941000", "102142.176000", "102141.950000", "102142.185000", "102142.114000", "102142.194000", "102142.123000", "102142.203000", "102142.141000", "102142.221000", "102142.149000", "102142.230000", "102142.158000", "102142.239000", "102142.167000", "102142.248000", "102142.132000", "102142.389000", "102142.250000", "102142.344000", "102142.260000", "102142.354000", "102142.270000", "102142.363000", "102142.280000", "102142.380000", "102142.305000", "102142.399000", "102142.314000", "102142.408000", "102142.324000", "102142.418000", "102142.334000", "102142.428000", "102142.295000", "102142.392000", "102142.253000", "102142.346000", "102142.262000", "102142.356000", "102142.272000", "102142.366000", "102142.282000", "102142.382000", "102142.307000", "102142.401000", "102142.317000", "102142.411000", "102142.327000", "102142.421000", "102142.336000", "102142.430000", "102142.297000", "102142.394000", "102142.255000", "102142.349000", "102142.265000", "102142.359000", "102142.275000", "102142.374000", "102142.290000", "102142.385000", "102142.310000", "102142.404000", "102142.319000", "102142.413000", "102142.329000", "102142.423000", "102142.339000", "102142.432000", "102142.300000", "102142.397000", "102142.258000", "102142.352000", "102142.267000", "102142.361000", "102142.277000", "102142.377000", "102142.293000", "102142.387000", "102142.312000", "102142.406000", "102142.322000", "102142.416000", "102142.332000", "102142.425000", "102142.342000", "102142.435000", "102142.302000", "102142.562000", "102142.437000", "102142.523000", "102142.446000", "102142.533000", "102142.456000", "102142.543000", "102142.465000", "102142.552000", "102142.485000", "102152.624000", "102142.494000", "102152.634000", "102142.504000", "102152.646000", "102142.513000", "102152.656000", "102142.475000", "102142.564000", "102142.439000", "102142.526000", "102142.449000", "102142.535000", "102142.458000", "102142.545000", "102142.468000", "102142.555000", "102142.487000", "102152.627000", "102142.497000", "102152.637000", "102142.506000", "102152.649000", "102142.516000", "102152.659000", "102142.477000", "102142.567000", "102142.442000", "102142.528000", "102142.451000", "102142.537000", "102142.461000", "102142.548000", "102142.470000", "102142.557000", "102142.489000", "102152.629000", "102142.499000", "102152.640000", "102142.509000", "102152.651000", "102142.518000", "102152.661000", "102142.480000", "102142.569000", "102142.444000", "102142.530000", "102142.453000", "102142.540000", "102142.463000", "102142.550000", "102142.473000", "102142.560000", "102142.492000", "102152.632000", "102142.502000", "102152.642000", "102142.511000", "102152.654000", "102142.521000", "102152.664000", "102142.482000", "102152.987000", "102152.666000", "102152.949000", "102152.705000", "102152.958000", "102152.834000", "102152.968000", "102152.844000", "102152.977000", "102152.911000", "102152.997000", "102152.920000", "102153.007000", "102152.929000", "102153.017000", "102152.939000", "102153.026000", "102152.896000", "102152.989000", "102152.669000", "102152.951000", "102152.708000", "102152.961000", "102152.837000", "102152.970000", "102152.846000", "102152.980000", "102152.913000", "102153.000000", "102152.922000", "102153.009000", "102152.932000", "102153.019000", "102152.941000", "102153.028000", "102152.899000", "102152.992000", "102152.671000", "102152.953000", "102152.742000", "102152.963000", "102152.839000", "102152.972000", "102152.849000", "102152.982000", "102152.915000", "102153.002000", "102152.925000", "102153.012000", "102152.934000", "102153.022000", "102152.944000", "102153.031000", "102152.906000", "102152.994000", "102152.674000", "102152.956000", "102152.747000", "102152.965000", "102152.842000", "102152.975000", "102152.894000", "102152.985000", "102152.918000", "102153.005000", "102152.927000", "102153.014000", "102152.937000", "102153.024000", "102152.946000", "102153.033000", "102152.908000", "102153.162000", "102153.036000", "102153.123000", "102153.045000", "102153.133000", "102153.055000", "102153.143000", "102153.065000", "102153.152000", "102153.084000", "102153.171000", "102153.094000", "102153.181000", "102153.104000", "102153.191000", "102153.114000", "102153.201000", "102153.075000", "102153.164000", "102153.038000", "102153.125000", "102153.048000", "102153.135000", "102153.057000", "102153.145000", "102153.067000", "102153.155000", "102153.086000", "102153.174000", "102153.096000", "102153.183000", "102153.106000", "102153.193000", "102153.116000", "102153.203000", "102153.077000", "102153.166000", "102153.041000", "102153.128000", "102153.050000", "102153.138000", "102153.060000", "102153.147000", "102153.070000", "102153.157000", "102153.089000", "102153.176000", "102153.099000", "102153.186000", "102153.109000", "102153.195000", "102153.118000", "102153.206000", "102153.079000", "102153.169000", "102153.043000", "102153.130000", "102153.053000", "102153.140000", "102153.062000", "102153.150000", "102153.072000", "102153.159000", "102153.091000", "102153.179000", "102153.101000", "102153.188000", "102153.111000", "102153.199000", "102153.121000", "102153.208000", "102153.082000", "102156.739000", "102153.211000", "102153.303000", "102153.220000", "102156.709000", "102153.230000", "102156.719000", "102153.240000", "102156.729000", "102153.265000", "102156.750000", "102153.274000", "102156.760000", "102153.284000", "102156.773000", "102153.294000", "102156.788000", "102153.250000", "102156.741000", "102153.213000", "102153.306000", "102153.223000", "102156.712000", "102153.233000", "102156.722000", "102153.242000", "102156.731000", "102153.267000", "102156.752000", "102153.277000", "102156.763000", "102153.286000", "102156.778000", "102153.296000", "102156.791000", "102153.252000", "102156.744000", "102153.216000", "102153.308000", "102153.225000", "102156.714000", "102153.235000", "102156.724000", "102153.245000", "102156.734000", "102153.270000", "102156.755000", "102153.279000", "102156.766000", "102153.289000", "102156.781000", "102153.299000", "102156.795000", "102153.260000", "102156.747000", "102153.218000", "102153.310000", "102153.228000", "102156.717000", "102153.238000", "102156.726000", "102153.247000", "102156.737000", "102153.272000", "102156.757000", "102153.282000", "102156.770000", "102153.292000", "102156.785000", "102153.301000", "102156.798000", "102153.263000", "102156.935000", "102156.803000", "102156.896000", "102156.814000", "102156.906000", "102156.825000", "102156.916000", "102156.835000", "102156.925000", "102156.855000", "102156.944000", "102156.864000", "102156.954000", "102156.876000", "102156.963000", "102156.887000", "102156.973000", "102156.845000", "102156.937000", "102156.805000", "102156.899000", "102156.817000", "102156.909000", "102156.828000", "102156.918000", "102156.838000", "102156.928000", "102156.857000", "102156.946000", "102156.867000", "102156.956000", "102156.879000", "102156.966000", "102156.889000", "102156.975000", "102156.847000", "102156.939000", "102156.809000", "102156.901000", "102156.820000", "102156.911000", "102156.830000", "102156.921000", "102156.840000", "102156.930000", "102156.860000", "102156.949000", "102156.870000", "102156.959000", "102156.882000", "102156.968000", "102156.891000", "102156.978000", "102156.850000", "102156.942000", "102156.811000", "102156.904000", "102156.823000", "102156.913000", "102156.833000", "102156.923000", "102156.843000", "102156.932000", "102156.862000", "102156.951000", "102156.873000", "102156.961000", "102156.884000", "102156.971000", "102156.894000", "102156.980000", "102156.853000"],
      "CsaImage.ICE_Dims": [
        "X_1_1_1_1_1_1_37_1_1_1_1_61",
        "X_1_1_1_1_1_1_1_1_1_2_1_61",
        "X_1_1_1_1_1_1_38_1_1_3_1_61",
        "X_1_1_1_1_1_1_2_1_1_4_1_61",
        "X_1_1_1_1_1_1_39_1_1_5_1_61",
        "X_1_1_1_1_1_1_3_1_1_6_1_61",
        "X_1_1_1_1_1_1_40_1_1_7_1_61",
        "X_1_1_1_1_1_1_4_1_1_8_1_61",
        "X_1_1_1_1_1_1_41_1_1_9_1_61",
        "X_1_1_1_1_1_1_5_1_1_10_1_61",
        "X_1_1_1_1_1_1_42_1_1_11_1_61",
        "X_1_1_1_1_1_1_6_1_1_12_1_61",
        "X_1_1_1_1_1_1_43_1_1_13_1_61",
        "X_1_1_1_1_1_1_7_1_1_14_1_61",
        "X_1_1_1_1_1_1_44_1_1_15_1_61",
        "X_1_1_1_1_1_1_8_1_1_16_1_61",
        "X_1_1_1_1_1_1_45_1_1_17_1_61",
        "X_1_1_1_1_1_1_9_1_1_18_1_61",
        "X_1_1_1_1_1_1_46_1_1_19_1_61",
        "X_1_1_1_1_1_1_10_1_1_20_1_61",
        "X_1_1_1_1_1_1_47_1_1_21_1_61",
        "X_1_1_1_1_1_1_11_1_1_22_1_61",
        "X_1_1_1_1_1_1_48_1_1_23_1_61",
        "X_1_1_1_1_1_1_12_1_1_24_1_61",
        "X_1_1_1_1_1_1_49_1_1_25_1_61",
        "X_1_1_1_1_1_1_13_1_1_26_1_61",
        "X_1_1_1_1_1_1_50_1_1_27_1_61",
        "X_1_1_1_1_1_1_14_1_1_28_1_61",
        "X_1_1_1_1_1_1_51_1_1_29_1_61",
        "X_1_1_1_1_1_1_15_1_1_30_1_61",
        "X_1_1_1_1_1_1_52_1_1_31_1_61",
        "X_1_1_1_1_1_1_16_1_1_32_1_61",
        "X_1_1_1_1_1_1_53_1_1_33_1_61",
        "X_1_1_1_1_1_1_17_1_1_34_1_61",
        "X_1_1_1_1_1_1_54_1_1_35_1_61",
        "X_1_1_1_1_1_1_18_1_1_36_1_61",
        "X_1_1_1_1_1_1_55_1_1_37_1_61",
        "X_1_1_1_1_1_1_19_1_1_38_1_61",
        "X_1_1_1_1_1_1_56_1_1_39_1_61",
        "X_1_1_1_1_1_1_20_1_1_40_1_61",
        "X_1_1_1_1_1_1_57_1_1_41_1_61",
        "X_1_1_1_1_1_1_21_1_1_42_1_61",
        "X_1_1_1_1_1_1_58_1_1_43_1_61",
        "X_1_1_1_1_1_1_22_1_1_44_1_61",
        "X_1_1_1_1_1_1_59_1_1_45_1_61",
        "X_1_1_1_1_1_1_23_1_1_46_1_61",
        "X_1_1_1_1_1_1_60_1_1_47_1_61",
        "X_1_1_1_1_1_1_24_1_1_48_1_61",
        "X_1_1_1_1_1_1_61_1_1_49_1_61",
        "X_1_1_1_1_1_1_25_1_1_50_1_61",
        "X_1_1_1_1_1_1_62_1_1_51_1_61",
        "X_1_1_1_1_1_1_26_1_1_52_1_61",
        "X_1_1_1_1_1_1_63_1_1_53_1_61",
        "X_1_1_1_1_1_1_27_1_1_54_1_61",
        "X_1_1_1_1_1_1_64_1_1_55_1_61",
        "X_1_1_1_1_1_1_28_1_1_56_1_61",
        "X_1_1_1_1_1_1_65_1_1_57_1_61",
        "X_1_1_1_1_1_1_29_1_1_58_1_61",
        "X_1_1_1_1_1_1_66_1_1_59_1_61",
        "X_1_1_1_1_1_1_30_1_1_60_1_61",
        "X_1_1_1_1_1_1_67_1_1_61_1_61",
        "X_1_1_1_1_1_1_31_1_1_62_1_61",
        "X_1_1_1_1_1_1_68_1_1_63_1_61",
        "X_1_1_1_1_1_1_32_1_1_64_1_61",
        "X_1_1_1_1_1_1_69_1_1_65_1_61",
        "X_1_1_1_1_1_1_33_1_1_66_1_61",
        "X_1_1_1_1_1_1_70_1_1_67_1_61",
        "X_1_1_1_1_1_1_34_1_1_68_1_61",
        "X_1_1_1_1_1_1_71_1_1_69_1_61",
        "X_1_1_1_1_1_1_35_1_1_70_1_61",
        "X_1_1_1_1_1_1_72_1_1_71_1_61",
        "X_1_1_1_1_1_1_36_1_1_72_1_61",
        "X_1_1_1_2_1_1_37_1_1_1_1_61",
        "X_1_1_1_2_1_1_1_1_1_2_1_61",
        "X_1_1_1_2_1_1_38_1_1_3_1_61",
        "X_1_1_1_2_1_1_2_1_1_4_1_61",
        "X_1_1_1_2_1_1_39_1_1_5_1_61",
        "X_1_1_1_2_1_1_3_1_1_6_1_61",
        "X_1_1_1_2_1_1_40_1_1_7_1_61",
        "X_1_1_1_2_1_1_4_1_1_8_1_61",
        "X_1_1_1_2_1_1_41_1_1_9_1_61",
        "X_1_1_1_2_1_1_5_1_1_10_1_61",
        "X_1_1_1_2_1_1_42_1_1_11_1_61",
        "X_1_1_1_2_1_1_6_1_1_12_1_61",
        "X_1_1_1_2_1_1_43_1_1_13_1_61",
        "X_1_1_1_2_1_1_7_1_1_14_1_61",
        "X_1_1_1_2_1_1_44_1_1_15_1_61",
        "X_1_1_1_2_1_1_8_1_1_16_1_61",
        "X_1_1_1_2_1_1_45_1_1_17_1_61",
        "X_1_1_1_2_1_1_9_1_1_18_1_61",
        "X_1_1_1_2_1_1_46_1_1_19_1_61",
        "X_1_1_1_2_1_1_10_1_1_20_1_61",
        "X_1_1_1_2_1_1_47_1_1_21_1_61",
        "X_1_1_1_2_1_1_11_1_1_22_1_61",
        "X_1_1_1_2_1_1_48_1_1_23_1_61",
        "X_1_1_1_2_1_1_12_1_1_24_1_61",
        "X_1_1_1_2_1_1_49_1_1_25_1_61",
        "X_1_1_1_2_1_1_13_1_1_26_1_61",
        "X_1_1_1_2_1_1_50_1_1_27_1_61",
        "X_1_1_1_2_1_1_14_1_1_28_1_61",
        "X_1_1_1_2_1_1_51_1_1_29_1_61",
        "X_1_1_1_2_1_1_15_1_1_30_1_61",
        "X_1_1_1_2_1_1_52_1_1_31_1_61",
        "X_1_1_1_2_1_1_16_1_1_32_1_61",
        "X_1_1_1_2_1_1_53_1_1_33_1_61",
        "X_1_1_1_2_1_1_17_1_1_34_1_61",
        "X_1_1_1_2_1_1_54_1_1_35_1_61",
        "X_1_1_1_2_1_1_18_1_1_36_1_61",
        "X_1_1_1_2_1_1_55_1_1_37_1_61",
        "X_1_1_1_2_1_1_19_1_1_38_1_61",
        "X_1_1_1_2_1_1_56_1_1_39_1_61",
        "X_1_1_1_2_1_1_20_1_1_40_1_61",
        "X_1_1_1_2_1_1_57_1_1_41_1_61",
        "X_1_1_1_2_1_1_21_1_1_42_1_61",
        "X_1_1_1_2_1_1_58_1_1_43_1_61",
        "X_1_1_1_2_1_1_22_1_1_44_1_61",
        "X_1_1_1_2_1_1_59_1_1_45_1_61",
        "X_1_1_1_2_1_1_23_1_1_46_1_61",
        "X_1_1_1_2_1_1_60_1_1_47_1_61",
        "X_1_1_1_2_1_1_24_1_1_48_1_61",
        "X_1_1_1_2_1_1_61_1_1_49_1_61",
        "X_1_1_1_2_1_1_25_1_1_50_1_61",
        "X_1_1_1_2_1_1_62_1_1_51_1_61",
        "X_1_1_1_2_1_1_26_1_1_52_1_61",
        "X_1_1_1_2_1_1_63_1_1_53_1_61",
        "X_1_1_1_2_1_1_27_1_1_54_1_61",
        "X_1_1_1_2_1_1_64_1_1_55_1_61",
        "X_1_1_1_2_1_1_28_1_1_56_1_61",
        "X_1_1_1_2_1_1_65_1_1_57_1_61",
        "X_1_1_1_2_1_1_29_1_1_58_1_61",
        "X_1_1_1_2_1_1_66_1_1_59_1_61",
        "X_1_1_1_2_1_1_30_1_1_60_1_61",
        "X_1_1_1_2_1_1_67_1_1_61_1_61",
        "X_1_1_1_2_1_1_31_1_1_62_1_61",
        "X_1_1_1_2_1_1_68_1_1_63_1_61",
        "X_1_1_1_2_1_1_32_1_1_64_1_61",
        "X_1_1_1_2_1_1_69_1_1_65_1_61",
        "X_1_1_1_2_1_1_33_1_1_66_1_61",
        "X_1_1_1_2_1_1_70_1_1_67_1_61",
        "X_1_1_1_2_1_1_34_1_1_68_1_61",
        "X_1_1_1_2_1_1_71_1_1_69_1_61",
        "X_1_1_1_2_1_1_35_1_1_70_1_61",
        "X_1_1_1_2_1_1_72_1_1_71_1_61",
        "X_1_1_1_2_1_1_36_1_1_72_1_61",
        "X_1_1_1_3_1_1_37_1_1_1_1_61",
        "X_1_1_1_3_1_1_1_1_1_2_1_61",
        "X_1_1_1_3_1_1_38_1_1_3_1_61",
        "X_1_1_1_3_1_1_2_1_1_4_1_61",
        "X_1_1_1_3_1_1_39_1_1_5_1_61",
        "X_1_1_1_3_1_1_3_1_1_6_1_61",
        "X_1_1_1_3_1_1_40_1_1_7_1_61",
        "X_1_1_1_3_1_1_4_1_1_8_1_61",
        "X_1_1_1_3_1_1_41_1_1_9_1_61",
        "X_1_1_1_3_1_1_5_1_1_10_1_61",
        "X_1_1_1_3_1_1_42_1_1_11_1_61",
        "X_1_1_1_3_1_1_6_1_1_12_1_61",
        "X_1_1_1_3_1_1_43_1_1_13_1_61",
        "X_1_1_1_3_1_1_7_1_1_14_1_61",
        "X_1_1_1_3_1_1_44_1_1_15_1_61",
        "X_1_1_1_3_1_1_8_1_1_16_1_61",
        "X_1_1_1_3_1_1_45_1_1_17_1_61",
        "X_1_1_1_3_1_1_9_1_1_18_1_61",
        "X_1_1_1_3_1_1_46_1_1_19_1_61",
        "X_1_1_1_3_1_1_10_1_1_20_1_61",
        "X_1_1_1_3_1_1_47_1_1_21_1_61",
        "X_1_1_1_3_1_1_11_1_1_22_1_61",
        "X_1_1_1_3_1_1_48_1_1_23_1_61",
        "X_1_1_1_3_1_1_12_1_1_24_1_61",
        "X_1_1_1_3_1_1_49_1_1_25_1_61",
        "X_1_1_1_3_1_1_13_1_1_26_1_61",
        "X_1_1_1_3_1_1_50_1_1_27_1_61",
        "X_1_1_1_3_1_1_14_1_1_28_1_61",
        "X_1_1_1_3_1_1_51_1_1_29_1_61",
        "X_1_1_1_3_1_1_15_1_1_30_1_61",
        "X_1_1_1_3_1_1_52_1_1_31_1_61",
        "X_1_1_1_3_1_1_16_1_1_32_1_61",
        "X_1_1_1_3_1_1_53_1_1_33_1_61",
        "X_1_1_1_3_1_1_17_1_1_34_1_61",
        "X_1_1_1_3_1_1_54_1_1_35_1_61",
        "X_1_1_1_3_1_1_18_1_1_36_1_61",
