{
  "AcquisitionMatrixPE": 122,
  "AcquisitionNumber": 1,
  "AcquisitionTime": "10:17:14.192500",
  "BandwidthPerPixelPhaseEncode": 28.76,
  "BaseResolution": 122,
  "BodyPartExamined": "BRAIN",
  "CoilCombinationMethod": "Adaptive Combine",
  "ConsistencyInfo": "N4_VE11C_LATEST_20160120",
  "ConversionSoftware": "dcm2niix",
  "ConversionSoftwareVersion": "v1.0.20220720",
  "DerivedVendorReportedEchoSpacing": 0.000570008,
  "DeviceSerialNumber": "66112",
  "DiffusionScheme": "Monopolar",
  "DwellTime": 2e-06,
  "EchoTime": 0.075,
  "EchoTrainLength": 61,
  "EffectiveEchoSpacing": 0.000285004,
  "FlipAngle": 90,
  "HeudiconvVersion": "0.13.1",
  "ImageOrientationPatientDICOM": [0.989469, -0.144676, 0.00447731, 0.13642, 0.942455, 0.305236],
  "ImageOrientationText": "Tra>Cor(17.6)>Sag(2.8)",
  "ImageType": [
    "ORIGINAL",
    "PRIMARY",
    "DIFFUSION",
    "NONE",
    "ND",
    "NORM"
],
  "ImagingFrequency": 123.252,
  "InPlanePhaseEncodingDirectionDICOM": "COL",
  "InstitutionAddress": "Maynard 3,Hanover,NH,US,03755",
  "InstitutionName": "Dartmouth College - PBS",
  "InstitutionalDepartmentName": "Department",
  "MRAcquisitionType": "2D",
  "MagneticFieldStrength": 3,
  "Manufacturer": "Siemens",
  "ManufacturersModelName": "Prisma",
  "MatrixCoilMode": "GRAPPA",
  "Modality": "MR",
  "NonlinearGradientCorrection": false,
  "ParallelReductionFactorInPlane": 2,
  "PartialFourier": 1,
  "PatientPosition": "HFS",
  "PercentPhaseFOV": 100,
  "PercentSampling": 100,
  "PhaseEncodingDirection": "j-",
  "PhaseEncodingSteps": 122,
  "PhaseResolution": 1,
  "PixelBandwidth": 2050,
  "ProcedureStepDescription": "dbic^QA",
  "ProtocolName": "dwi_acq-DTI-30-p2",
  "PulseSequenceDetails": "%SiemensSeq%\\ep2d_diff",
  "ReceiveCoilActiveElements": "HEA;HEP",
  "ReceiveCoilName": "Head_32",
  "ReconMatrixPE": 122,
  "RefLinesPE": 38,
  "RepetitionTime": 7.7,
  "SAR": 0.10231,
  "ScanOptions": "FS",
  "ScanningSequence": "EP",
  "SequenceName": "*ep_b0",
  "SequenceVariant": "SK\\SP",
  "SeriesDescription": "dwi_acq-DTI-30-p2",
  "SeriesNumber": 12,
  "ShimSetting": [4149, -7708, -7520, 291, -101, -137, 16, 85],
  "SliceThickness": 2,
  "SliceTiming": [3.84375, 0, 3.95312, 0.10938, 4.0625, 0.21875, 4.17188, 0.32812, 4.28125, 0.4375, 4.39062, 0.55469, 4.5, 0.66406, 4.60938, 0.77344, 4.71875, 0.88281, 4.82812, 0.99219, 4.9375, 1.10156, 5.04688, 1.21094, 5.15625, 1.32031, 5.26562, 1.42969, 5.375, 1.53906, 5.49219, 1.64844, 5.60156, 1.75781, 5.70312, 1.86719, 5.8125, 1.97656, 5.92969, 2.08594, 6.03906, 2.19531, 6.14844, 2.30469, 6.25781, 2.41406, 6.36719, 2.52344, 6.47656, 2.63281, 6.58594, 2.74219, 6.69531, 2.85156, 6.80469, 2.96094, 6.91406, 3.07031, 7.02344, 3.17969, 7.13281, 3.29688, 7.24219, 3.40625, 7.35156, 3.51562, 7.46094, 3.625, 7.57031, 3.73438],
  "SoftwareVersions": "syngo MR E11",
  "SpacingBetweenSlices": 2,
  "SpoilingState": true,
  "StationName": "AWP66112",
  "TotalReadoutTime": 0.0344855,
  "TxRefAmp": 227.432,
  "dcmmeta_affine": [
    [-1.9464964866638184, 0.26836761832237244, 0.09675967693328857, 97.9275131225586],
    [0.28460779786109924, 1.8540090322494507, 0.6028194427490234, -142.60116577148438],
    [0.008807815611362457, -0.6004638671875, 1.9045333862304688, -27.32399559020996],
    [0.0, 0.0, 0.0, 1.0]
],
  "dcmmeta_reorient_transform": [
    [0.0, -1.0, 0.0, 121.0],
    [1.0, 0.0, 0.0, 0.0],
    [0.0, 0.0, -1.0, 69.0],
    [0.0, 0.0, 0.0, 1.0]
],
  "dcmmeta_shape": [122, 122, 70, 31],
  "dcmmeta_slice_dim": 2,
  "dcmmeta_version": 0.6,
  "global": {
    "const": {
      "AccessionNumber": "qa",
      "AcquisitionMatrix": [122, 0, 0, 122],
      "AngioFlag": "N",
      "BitsAllocated": 16,
      "BitsStored": 12,
      "BodyPartExamined": "BRAIN",
      "Columns": 122,
      "EchoNumbers": 1,
      "EchoTime": 75.0,
      "EchoTrainLength": 61,
      "FlipAngle": 90.0,
      "HighBit": 11,
      "ImageOrientationPatient": [0.98946900813434, -0.1446756222378, 0.00447730630595, 0.13642020836165, 0.94245457760644, 0.30523580376364],
      "ImageType": [
        "ORIGINAL",
        "PRIMARY",
        "DIFFUSION",
        "NONE",
        "ND",
        "NORM"
],
      "ImagedNucleus": "1H",
      "ImagingFrequency": 123.252442,
      "InPlanePhaseEncodingDirection": "COL",
      "MRAcquisitionType": "2D",
      "MagneticFieldStrength": 3.0,
      "Manufacturer": "SIEMENS",
      "ManufacturerModelName": "Prisma",
      "Modality": "MR",
      "NumberOfAverages": 1.0,
      "NumberOfPhaseEncodingSteps": 122,
      "PercentPhaseFieldOfView": 100.0,
      "PercentSampling": 100.0,
      "PerformedProcedureStepStartTime": "094426.401000",
      "PhotometricInterpretation": "MONOCHROME2",
      "PixelBandwidth": 2050.0,
      "PixelRepresentation": 0,
      "PixelSpacing": [1.9672131538391, 1.9672131538391],
      "ProtocolName": "dwi_acq-DTI-30-p2",
      "RepetitionTime": 7700.0,
      "Rows": 122,
      "SAR": 0.1023098300105,
      "SamplesPerPixel": 1,
      "ScanOptions": "FS",
      "ScanningSequence": "EP",
      "SequenceVariant": [
        "SK",
        "SP"
],
      "SeriesDescription": "dwi_acq-DTI-30-p2",
      "SeriesNumber": 12,
      "SeriesTime": "101726.650000",
      "SliceThickness": 2.0,
      "SmallestImagePixelValue": 0,
      "SoftwareVersions": "syngo MR E11",
      "SpacingBetweenSlices": 2.0,
      "SpecificCharacterSet": "ISO_IR 100",
      "StudyID": "66",
      "StudyTime": "094426.359000",
      "TransmitCoilName": "Body",
      "VariableFlipAngleFlag": "N",
      "WindowCenterWidthExplanation": "Algo1",
      "dBdt": 0.0},
    "slices": {
      "AcquisitionTime": ["101714.192500", "101710.352500", "101714.302500", "101710.462500", "101714.412500", "101710.572500", "101714.522500", "101710.682500", "101714.632500", "101710.792500", "101714.742500", "101710.902500", "101714.852500", "101711.012500", "101714.962500", "101711.122500", "101715.070000", "101711.232500", "101715.180000", "101711.340000", "101715.290000", "101711.450000", "101715.400000", "101711.560000", "101715.510000", "101711.670000", "101715.620000", "101711.780000", "101715.730000", "101711.890000", "101715.840000", "101712.000000", "101715.950000", "101712.110000", "101716.057500", "101712.220000", "101716.167500", "101712.327500", "101716.277500", "101712.437500", "101716.387500", "101712.547500", "101716.497500", "101712.657500", "101716.607500", "101712.767500", "101716.717500", "101712.877500", "101716.827500", "101712.987500", "101716.937500", "101713.097500", "101717.045000", "101713.205000", "101717.155000", "101713.315000", "101717.265000", "101713.425000", "101717.375000", "101713.535000", "101717.485000", "101713.645000", "101717.595000", "101713.755000", "101717.705000", "101713.865000", "101717.815000", "101713.975000", "101717.922500", "101714.085000", "101721.892500", "101718.052500", "101722.002500", "101718.162500", "101722.112500", "101718.272500", "101722.222500", "101718.382500", "101722.332500", "101718.492500", "101722.442500", "101718.602500", "101722.552500", "101718.712500", "101722.662500", "101718.822500", "101722.770000", "101718.932500", "101722.880000", "101719.040000", "101722.990000", "101719.150000", "101723.100000", "101719.260000", "101723.210000", "101719.370000", "101723.320000", "101719.480000", "101723.430000", "101719.590000", "101723.540000", "101719.700000", "101723.650000", "101719.810000", "101723.757500", "101719.920000", "101723.867500", "101720.027500", "101723.977500", "101720.137500", "101724.087500", "101720.247500", "101724.197500", "101720.357500", "101724.307500", "101720.467500", "101724.417500", "101720.577500", "101724.527500", "101720.687500", "101724.637500", "101720.797500", "101724.745000", "101720.905000", "101724.855000", "101721.015000", "101724.965000", "101721.125000", "101725.075000", "101721.235000", "101725.185000", "101721.345000", "101725.295000", "101721.455000", "101725.405000", "101721.565000", "101725.515000", "101721.675000", "101725.622500", "101721.785000", "101729.592500", "101725.752500", "101729.702500", "101725.862500", "101729.812500", "101725.972500", "101729.922500", "101726.082500", "101730.032500", "101726.192500", "101730.142500", "101726.302500", "101730.252500", "101726.412500", "101730.362500", "101726.522500", "101730.470000", "101726.632500", "101730.580000", "101726.740000", "101730.690000", "101726.850000", "101730.800000", "101726.960000", "101730.910000", "101727.070000", "101731.020000", "101727.180000", "101731.130000", "101727.290000", "101731.240000", "101727.400000", "101731.350000", "101727.510000", "101731.457500", "101727.620000", "101731.567500", "101727.727500", "101731.677500", "101727.837500", "101731.787500", "101727.947500", "101731.897500", "101728.057500", "101732.007500", "101728.167500", "101732.117500", "101728.277500", "101732.227500", "101728.387500", "101732.337500", "101728.497500", "101732.445000", "101728.605000", "101732.555000", "101728.715000", "101732.665000", "101728.825000", "101732.775000", "101728.935000", "101732.885000", "101729.045000", "101732.995000", "101729.155000", "101733.105000", "101729.265000", "101733.215000", "101729.375000", "101733.322500", "101729.485000", "101737.292500", "101733.452500", "101737.402500", "101733.562500", "101737.512500", "101733.672500", "101737.622500", "101733.782500", "101737.732500", "101733.892500", "101737.842500", "101734.002500", "101737.952500", "101734.112500", "101738.062500", "101734.222500", "101738.170000", "101734.332500", "101738.280000", "101734.440000", "101738.390000", "101734.550000", "101738.500000", "101734.660000", "101738.610000", "101734.770000", "101738.720000", "101734.880000", "101738.830000", "101734.990000", "101738.940000", "101735.100000", "101739.050000", "101735.210000", "101739.157500", "101735.320000", "101739.267500", "101735.427500", "101739.377500", "101735.537500", "101739.487500", "101735.647500", "101739.597500", "101735.757500", "101739.707500", "101735.867500", "101739.817500", "101735.977500", "101739.927500", "101736.087500", "101740.037500", "101736.197500", "101740.145000", "101736.305000", "101740.255000", "101736.415000", "101740.365000", "101736.525000", "101740.475000", "101736.635000", "101740.585000", "101736.745000", "101740.695000", "101736.855000", "101740.805000", "101736.965000", "101740.915000", "101737.075000", "101741.022500", "101737.185000", "101744.992500", "101741.152500", "101745.102500", "101741.262500", "101745.212500", "101741.372500", "101745.322500", "101741.482500", "101745.432500", "101741.592500", "101745.542500", "101741.702500", "101745.652500", "101741.812500", "101745.762500", "101741.922500", "101745.870000", "101742.032500", "101745.980000", "101742.140000", "101746.090000", "101742.250000", "101746.200000", "101742.360000", "101746.310000", "101742.470000", "101746.420000", "101742.580000", "101746.530000", "101742.690000", "101746.640000", "101742.800000", "101746.750000", "101742.910000", "101746.857500", "101743.020000", "101746.967500", "101743.127500", "101747.077500", "101743.237500", "101747.187500", "101743.347500", "101747.297500", "101743.457500", "101747.407500", "101743.567500", "101747.517500", "101743.677500", "101747.627500", "101743.787500", "101747.737500", "101743.897500", "101747.845000", "101744.005000", "101747.955000", "101744.115000", "101748.065000", "101744.225000", "101748.175000", "101744.335000", "101748.285000", "101744.445000", "101748.395000", "101744.555000", "101748.505000", "101744.665000", "101748.615000", "101744.775000", "101748.722500", "101744.885000", "101752.692500", "101748.852500", "101752.802500", "101748.962500", "101752.912500", "101749.072500", "101753.022500", "101749.182500", "101753.132500", "101749.292500", "101753.242500", "101749.402500", "101753.352500", "101749.512500", "101753.462500", "101749.622500", "101753.570000", "101749.732500", "101753.680000", "101749.840000", "101753.790000", "101749.950000", "101753.900000", "101750.060000", "101754.010000", "101750.170000", "101754.120000", "101750.280000", "101754.230000", "101750.390000", "101754.340000", "101750.500000", "101754.450000", "101750.610000", "101754.557500", "101750.720000", "101754.667500", "101750.827500", "101754.777500", "101750.937500", "101754.887500", "101751.047500", "101754.997500", "101751.157500", "101755.107500", "101751.267500", "101755.217500", "101751.377500", "101755.327500", "101751.487500", "101755.437500", "101751.597500", "101755.545000", "101751.705000", "101755.655000", "101751.815000", "101755.765000", "101751.925000", "101755.875000", "101752.035000", "101755.985000", "101752.145000", "101756.095000", "101752.255000", "101756.205000", "101752.365000", "101756.315000", "101752.475000", "101756.422500", "101752.585000", "101800.392500", "101756.552500", "101800.502500", "101756.662500", "101800.612500", "101756.772500", "101800.722500", "101756.882500", "101800.832500", "101756.992500", "101800.942500", "101757.102500", "101801.052500", "101757.212500", "101801.162500", "101757.322500", "101801.270000", "101757.432500", "101801.380000", "101757.540000", "101801.490000", "101757.650000", "101801.600000", "101757.760000", "101801.710000", "101757.870000", "101801.820000", "101757.980000", "101801.930000", "101758.090000", "101802.040000", "101758.200000", "101802.150000", "101758.310000", "101802.257500", "101758.420000", "101802.367500", "101758.527500", "101802.477500", "101758.637500", "101802.587500", "101758.747500", "101802.697500", "101758.857500", "101802.807500", "101758.967500", "101802.917500", "101759.077500", "101803.027500", "101759.187500", "101803.137500", "101759.297500", "101803.245000", "101759.405000", "101803.355000", "101759.515000", "101803.465000", "101759.625000", "101803.575000", "101759.735000", "101803.685000", "101759.845000", "101803.795000", "101759.955000", "101803.905000", "101800.065000", "101804.015000", "101800.175000", "101804.122500", "101800.285000", "101808.092500", "101804.252500", "101808.202500", "101804.362500", "101808.312500", "101804.472500", "101808.422500", "101804.582500", "101808.532500", "101804.692500", "101808.642500", "101804.802500", "101808.752500", "101804.912500", "101808.862500", "101805.022500", "101808.970000", "101805.132500", "101809.080000", "101805.240000", "101809.190000", "101805.350000", "101809.300000", "101805.460000", "101809.410000", "101805.570000", "101809.520000", "101805.680000", "101809.630000", "101805.790000", "101809.740000", "101805.900000", "101809.850000", "101806.010000", "101809.957500", "101806.120000", "101810.067500", "101806.227500", "101810.177500", "101806.337500", "101810.287500", "101806.447500", "101810.397500", "101806.557500", "101810.507500", "101806.667500", "101810.617500", "101806.777500", "101810.727500", "101806.887500", "101810.837500", "101806.997500", "101810.945000", "101807.105000", "101811.055000", "101807.215000", "101811.165000", "101807.325000", "101811.275000", "101807.435000", "101811.385000", "101807.545000", "101811.495000", "101807.655000", "101811.605000", "101807.765000", "101811.715000", "101807.875000", "101811.822500", "101807.985000", "101815.792500", "101811.952500", "101815.902500", "101812.062500", "101816.012500", "101812.172500", "101816.122500", "101812.282500", "101816.232500", "101812.392500", "101816.342500", "101812.502500", "101816.452500", "101812.612500", "101816.562500", "101812.722500", "101816.670000", "101812.832500", "101816.780000", "101812.940000", "101816.890000", "101813.050000", "101817.000000", "101813.160000", "101817.110000", "101813.270000", "101817.220000", "101813.380000", "101817.330000", "101813.490000", "101817.440000", "101813.600000", "101817.550000", "101813.710000", "101817.657500", "101813.820000", "101817.767500", "101813.927500", "101817.877500", "101814.037500", "101817.987500", "101814.147500", "101818.097500", "101814.257500", "101818.207500", "101814.367500", "101818.317500", "101814.477500", "101818.427500", "101814.587500", "101818.537500", "101814.697500", "101818.645000", "101814.805000", "101818.755000", "101814.915000", "101818.865000", "101815.025000", "101818.975000", "101815.135000", "101819.085000", "101815.245000", "101819.195000", "101815.355000", "101819.305000", "101815.465000", "101819.415000", "101815.575000", "101819.522500", "101815.685000", "101823.492500", "101819.652500", "101823.602500", "101819.762500", "101823.712500", "101819.872500", "101823.822500", "101819.982500", "101823.932500", "101820.092500", "101824.042500", "101820.202500", "101824.152500", "101820.312500", "101824.262500", "101820.422500", "101824.370000", "101820.532500", "101824.480000", "101820.640000", "101824.590000", "101820.750000", "101824.700000", "101820.860000", "101824.810000", "101820.970000", "101824.920000", "101821.080000", "101825.030000", "101821.190000", "101825.140000", "101821.300000", "101825.250000", "101821.410000", "101825.357500", "101821.520000", "101825.467500", "101821.627500", "101825.577500", "101821.737500", "101825.687500", "101821.847500", "101825.797500", "101821.957500", "101825.907500", "101822.067500", "101826.017500", "101822.177500", "101826.127500", "101822.287500", "101826.237500", "101822.397500", "101826.345000", "101822.505000", "101826.455000", "101822.615000", "101826.565000", "101822.725000", "101826.675000", "101822.835000", "101826.785000", "101822.945000", "101826.895000", "101823.055000", "101827.005000", "101823.165000", "101827.115000", "101823.275000", "101827.222500", "101823.385000", "101831.192500", "101827.352500", "101831.302500", "101827.462500", "101831.412500", "101827.572500", "101831.522500", "101827.682500", "101831.632500", "101827.792500", "101831.742500", "101827.902500", "101831.852500", "101828.012500", "101831.962500", "101828.122500", "101832.070000", "101828.232500", "101832.180000", "101828.340000", "101832.290000", "101828.450000", "101832.400000", "101828.560000", "101832.510000", "101828.670000", "101832.620000", "101828.780000", "101832.730000", "101828.890000", "101832.840000", "101829.000000", "101832.950000", "101829.110000", "101833.057500", "101829.220000", "101833.167500", "101829.327500", "101833.277500", "101829.437500", "101833.387500", "101829.547500", "101833.497500", "101829.657500", "101833.607500", "101829.767500", "101833.717500", "101829.877500", "101833.827500", "101829.987500", "101833.937500", "101830.097500", "101834.045000", "101830.205000", "101834.155000", "101830.315000", "101834.265000", "101830.425000", "101834.375000", "101830.535000", "101834.485000", "101830.645000", "101834.595000", "101830.755000", "101834.705000", "101830.865000", "101834.815000", "101830.975000", "101834.922500", "101831.085000", "101838.892500", "101835.052500", "101839.002500", "101835.162500", "101839.112500", "101835.272500", "101839.222500", "101835.382500", "101839.332500", "101835.492500", "101839.442500", "101835.602500", "101839.552500", "101835.712500", "101839.662500", "101835.822500", "101839.770000", "101835.932500", "101839.880000", "101836.040000", "101839.990000", "101836.150000", "101840.100000", "101836.260000", "101840.210000", "101836.370000", "101840.320000", "101836.480000", "101840.430000", "101836.590000", "101840.540000", "101836.700000", "101840.650000", "101836.810000", "101840.757500", "101836.920000", "101840.867500", "101837.027500", "101840.977500", "101837.137500", "101841.087500", "101837.247500", "101841.197500", "101837.357500", "101841.307500", "101837.467500", "101841.417500", "101837.577500", "101841.527500", "101837.687500", "101841.637500", "101837.797500", "101841.745000", "101837.905000", "101841.855000", "101838.015000", "101841.965000", "101838.125000", "101842.075000", "101838.235000", "101842.185000", "101838.345000", "101842.295000", "101838.455000", "101842.405000", "101838.565000", "101842.515000", "101838.675000", "101842.622500", "101838.785000", "101846.592500", "101842.752500", "101846.702500", "101842.862500", "101846.812500", "101842.972500", "101846.922500", "101843.082500", "101847.032500", "101843.192500", "101847.142500", "101843.302500", "101847.252500", "101843.412500", "101847.362500", "101843.522500", "101847.470000", "101843.632500", "101847.580000", "101843.740000", "101847.690000", "101843.850000", "101847.800000", "101843.960000", "101847.910000", "101844.070000", "101848.020000", "101844.180000", "101848.130000", "101844.290000", "101848.240000", "101844.400000", "101848.350000", "101844.510000", "101848.457500", "101844.620000", "101848.567500", "101844.727500", "101848.677500", "101844.837500", "101848.787500", "101844.947500", "101848.897500", "101845.057500", "101849.007500", "101845.167500", "101849.117500", "101845.277500", "101849.227500", "101845.387500", "101849.337500", "101845.497500", "101849.445000", "101845.605000", "101849.555000", "101845.715000", "101849.665000", "101845.825000", "101849.775000", "101845.935000", "101849.885000", "101846.045000", "101849.995000", "101846.155000", "101850.105000", "101846.265000", "101850.215000", "101846.375000", "101850.322500", "101846.485000", "101854.292500", "101850.452500", "101854.402500", "101850.562500", "101854.512500", "101850.672500", "101854.622500", "101850.782500", "101854.732500", "101850.892500", "101854.842500", "101851.002500", "101854.952500", "101851.112500", "101855.062500", "101851.222500", "101855.170000", "101851.332500", "101855.280000", "101851.440000", "101855.390000", "101851.550000", "101855.500000", "101851.660000", "101855.610000", "101851.770000", "101855.720000", "101851.880000", "101855.830000", "101851.990000", "101855.940000", "101852.100000", "101856.050000", "101852.210000", "101856.157500", "101852.320000", "101856.267500", "101852.427500", "101856.377500", "101852.537500", "101856.487500", "101852.647500", "101856.597500", "101852.757500", "101856.707500", "101852.867500", "101856.817500", "101852.977500", "101856.927500", "101853.087500", "101857.037500", "101853.197500", "101857.145000", "101853.305000", "101857.255000", "101853.415000", "101857.365000", "101853.525000", "101857.475000", "101853.635000", "101857.585000", "101853.745000", "101857.695000", "101853.855000", "101857.805000", "101853.965000", "101857.915000", "101854.075000", "101858.022500", "101854.185000", "101901.992500", "101858.152500", "101902.102500", "101858.262500", "101902.212500", "101858.372500", "101902.322500", "101858.482500", "101902.432500", "101858.592500", "101902.542500", "101858.702500", "101902.652500", "101858.812500", "101902.762500", "101858.922500", "101902.870000", "101859.032500", "101902.980000", "101859.140000", "101903.090000", "101859.250000", "101903.200000", "101859.360000", "101903.310000", "101859.470000", "101903.420000", "101859.580000", "101903.530000", "101859.690000", "101903.640000", "101859.800000", "101903.750000", "101859.910000", "101903.857500", "101900.020000", "101903.967500", "101900.127500", "101904.077500", "101900.237500", "101904.187500", "101900.347500", "101904.297500", "101900.457500", "101904.407500", "101900.567500", "101904.517500", "101900.677500", "101904.627500", "101900.787500", "101904.737500", "101900.897500", "101904.845000", "101901.005000", "101904.955000", "101901.115000", "101905.065000", "101901.225000", "101905.175000", "101901.335000", "101905.285000", "101901.445000", "101905.395000", "101901.555000", "101905.505000", "101901.665000", "101905.615000", "101901.775000", "101905.722500", "101901.885000", "101909.692500", "101905.852500", "101909.802500", "101905.962500", "101909.912500", "101906.072500", "101910.022500", "101906.182500", "101910.132500", "101906.292500", "101910.242500", "101906.402500", "101910.352500", "101906.512500", "101910.462500", "101906.622500", "101910.570000", "101906.732500", "101910.680000", "101906.840000", "101910.790000", "101906.950000", "101910.900000", "101907.060000", "101911.010000", "101907.170000", "101911.120000", "101907.280000", "101911.230000", "101907.390000", "101911.340000", "101907.500000", "101911.450000", "101907.610000", "101911.557500", "101907.720000", "101911.667500", "101907.827500", "101911.777500", "101907.937500", "101911.887500", "101908.047500", "101911.997500", "101908.157500", "101912.107500", "101908.267500", "101912.217500", "101908.377500", "101912.327500", "101908.487500", "101912.437500", "101908.597500", "101912.545000", "101908.705000", "101912.655000", "101908.815000", "101912.765000", "101908.925000", "101912.875000", "101909.035000", "101912.985000", "101909.145000", "101913.095000", "101909.255000", "101913.205000", "101909.365000", "101913.315000", "101909.475000", "101913.422500", "101909.585000", "101917.392500", "101913.552500", "101917.502500", "101913.662500", "101917.612500", "101913.772500", "101917.722500", "101913.882500", "101917.832500", "101913.992500", "101917.942500", "101914.102500", "101918.052500", "101914.212500", "101918.162500", "101914.322500", "101918.270000", "101914.432500", "101918.380000", "101914.540000", "101918.490000", "101914.650000", "101918.600000", "101914.760000", "101918.710000", "101914.870000", "101918.820000", "101914.980000", "101918.930000", "101915.090000", "101919.040000", "101915.200000", "101919.150000", "101915.310000", "101919.257500", "101915.420000", "101919.367500", "101915.527500", "101919.477500", "101915.637500", "101919.587500", "101915.747500", "101919.697500", "101915.857500", "101919.807500", "101915.967500", "101919.917500", "101916.077500", "101920.027500", "101916.187500", "101920.137500", "101916.297500", "101920.245000", "101916.405000", "101920.355000", "101916.515000", "101920.465000", "101916.625000", "101920.575000", "101916.735000", "101920.685000", "101916.845000", "101920.795000", "101916.955000", "101920.905000", "101917.065000", "101921.015000", "101917.175000", "101921.122500", "101917.285000", "101925.092500", "101921.252500", "101925.202500", "101921.362500", "101925.312500", "101921.472500", "101925.422500", "101921.582500", "101925.532500", "101921.692500", "101925.642500", "101921.802500", "101925.752500", "101921.912500", "101925.862500", "101922.022500", "101925.970000", "101922.132500", "101926.080000", "101922.240000", "101926.190000", "101922.350000", "101926.300000", "101922.460000", "101926.410000", "101922.570000", "101926.520000", "101922.680000", "101926.630000", "101922.790000", "101926.740000", "101922.900000", "101926.850000", "101923.010000", "101926.957500", "101923.120000", "101927.067500", "101923.227500", "101927.177500", "101923.337500", "101927.287500", "101923.447500", "101927.397500", "101923.557500", "101927.507500", "101923.667500", "101927.617500", "101923.777500", "101927.727500", "101923.887500", "101927.837500", "101923.997500", "101927.945000", "101924.105000", "101928.055000", "101924.215000", "101928.165000", "101924.325000", "101928.275000", "101924.435000", "101928.385000", "101924.545000", "101928.495000", "101924.655000", "101928.605000", "101924.765000", "101928.715000", "101924.875000", "101928.822500", "101924.985000", "101932.792500", "101928.952500", "101932.902500", "101929.062500", "101933.012500", "101929.172500", "101933.122500", "101929.282500", "101933.232500", "101929.392500", "101933.342500", "101929.502500", "101933.452500", "101929.612500", "101933.562500", "101929.722500", "101933.670000", "101929.832500", "101933.780000", "101929.940000", "101933.890000", "101930.050000", "101934.000000", "101930.160000", "101934.110000", "101930.270000", "101934.220000", "101930.380000", "101934.330000", "101930.490000", "101934.440000", "101930.600000", "101934.550000", "101930.710000", "101934.657500", "101930.820000", "101934.767500", "101930.927500", "101934.877500", "101931.037500", "101934.987500", "101931.147500", "101935.097500", "101931.257500", "101935.207500", "101931.367500", "101935.317500", "101931.477500", "101935.427500", "101931.587500", "101935.537500", "101931.697500", "101935.645000", "101931.805000", "101935.755000", "101931.915000", "101935.865000", "101932.025000", "101935.975000", "101932.135000", "101936.085000", "101932.245000", "101936.195000", "101932.355000", "101936.305000", "101932.465000", "101936.415000", "101932.575000", "101936.522500", "101932.685000", "101940.492500", "101936.652500", "101940.602500", "101936.762500", "101940.712500", "101936.872500", "101940.822500", "101936.982500", "101940.932500", "101937.092500", "101941.042500", "101937.202500", "101941.152500", "101937.312500", "101941.262500", "101937.422500", "101941.370000", "101937.532500", "101941.480000", "101937.640000", "101941.590000", "101937.750000", "101941.700000", "101937.860000", "101941.810000", "101937.970000", "101941.920000", "101938.080000", "101942.030000", "101938.190000", "101942.140000", "101938.300000", "101942.250000", "101938.410000", "101942.357500", "101938.520000", "101942.467500", "101938.627500", "101942.577500", "101938.737500", "101942.687500", "101938.847500", "101942.797500", "101938.957500", "101942.907500", "101939.067500", "101943.017500", "101939.177500", "101943.127500", "101939.287500", "101943.237500", "101939.397500", "101943.345000", "101939.505000", "101943.455000", "101939.615000", "101943.565000", "101939.725000", "101943.675000", "101939.835000", "101943.785000", "101939.945000", "101943.895000", "101940.055000", "101944.005000", "101940.165000", "101944.115000", "101940.275000", "101944.222500", "101940.385000", "101948.192500", "101944.352500", "101948.302500", "101944.462500", "101948.412500", "101944.572500", "101948.522500", "101944.682500", "101948.632500", "101944.792500", "101948.742500", "101944.902500", "101948.852500", "101945.012500", "101948.962500", "101945.122500", "101949.070000", "101945.232500", "101949.180000", "101945.340000", "101949.290000", "101945.450000", "101949.400000", "101945.560000", "101949.510000", "101945.670000", "101949.620000", "101945.780000", "101949.730000", "101945.890000", "101949.840000", "101946.000000", "101949.950000", "101946.110000", "101950.057500", "