{
  "AcquisitionMatrixPE": 122,
  "AcquisitionNumber": 1,
  "AcquisitionTime": "10:36:39.590000",
  "BandwidthPerPixelPhaseEncode": 28.76,
  "BaseResolution": 122,
  "BodyPartExamined": "BRAIN",
  "CoilCombinationMethod": "Adaptive Combine",
  "ConsistencyInfo": "N4_VE11C_LATEST_20160120",
  "ConversionSoftware": "dcm2niix",
  "ConversionSoftwareVersion": "v1.0.20220720",
  "DerivedVendorReportedEchoSpacing": 0.000570008,
  "DeviceSerialNumber": "66112",
  "DiffusionScheme": "Monopolar",
  "DwellTime": 2e-06,
  "EchoTime": 0.075,
  "EchoTrainLength": 61,
  "EffectiveEchoSpacing": 0.000285004,
  "FlipAngle": 90,
  "HeudiconvVersion": "0.13.1",
  "ImageOrientationPatientDICOM": [0.980126, -0.198344, -0.00343207, 0.18963, 0.931703, 0.30979],
  "ImageOrientationText": "Tra>Cor(17.7)>Sag(3.3)",
  "ImageType": [
    "ORIGINAL",
    "PRIMARY",
    "DIFFUSION",
    "NONE",
    "ND",
    "NORM"
],
  "ImagingFrequency": 123.253,
  "InPlanePhaseEncodingDirectionDICOM": "COL",
  "InstitutionAddress": "Maynard 3,Hanover,NH,US,03755",
  "InstitutionName": "Dartmouth College - PBS",
  "InstitutionalDepartmentName": "Department",
  "MRAcquisitionType": "2D",
  "MagneticFieldStrength": 3,
  "Manufacturer": "Siemens",
  "ManufacturersModelName": "Prisma",
  "MatrixCoilMode": "GRAPPA",
  "Modality": "MR",
  "NonlinearGradientCorrection": false,
  "ParallelReductionFactorInPlane": 2,
  "PartialFourier": 1,
  "PatientPosition": "HFS",
  "PercentPhaseFOV": 100,
  "PercentSampling": 100,
  "PhaseEncodingDirection": "j-",
  "PhaseEncodingSteps": 122,
  "PhaseResolution": 1,
  "PixelBandwidth": 2050,
  "ProcedureStepDescription": "dbic^QA",
  "ProtocolName": "dwi_acq-DTI-30-p2",
  "PulseSequenceDetails": "%SiemensSeq%\\ep2d_diff",
  "ReceiveCoilActiveElements": "HC1-7;NC1,2",
  "ReceiveCoilName": "HeadNeck_64",
  "ReconMatrixPE": 122,
  "RefLinesPE": 38,
  "RepetitionTime": 7.7,
  "SAR": 0.0662876,
  "ScanOptions": "FS",
  "ScanningSequence": "EP",
  "SequenceName": "*ep_b0",
  "SequenceVariant": "SK\\SP",
  "SeriesDescription": "dwi_acq-DTI-30-p2",
  "SeriesNumber": 8,
  "ShimSetting": [4144, -7679, -7513, 226, -92, -387, -83, 141],
  "SliceThickness": 2,
  "SliceTiming": [3.84375, 0, 3.95312, 0.10938, 4.0625, 0.21875, 4.17188, 0.32812, 4.28125, 0.4375, 4.39062, 0.54688, 4.5, 0.65625, 4.60938, 0.77344, 4.71875, 0.88281, 4.82812, 0.98438, 4.9375, 1.09375, 5.04688, 1.21094, 5.15625, 1.32031, 5.26562, 1.42969, 5.375, 1.53906, 5.48438, 1.64844, 5.59375, 1.75781, 5.70312, 1.86719, 5.8125, 1.97656, 5.92188, 2.08594, 6.03125, 2.19531, 6.14844, 2.30469, 6.25781, 2.41406, 6.36719, 2.52344, 6.47656, 2.63281, 6.58594, 2.74219, 6.69531, 2.85156, 6.80469, 2.96094, 6.91406, 3.07031, 7.02344, 3.17969, 7.13281, 3.28906, 7.24219, 3.40625, 7.35156, 3.51562, 7.46094, 3.625, 7.57031, 3.73438],
  "SoftwareVersions": "syngo MR E11",
  "SpacingBetweenSlices": 2,
  "SpoilingState": true,
  "StationName": "AWP66112",
  "TotalReadoutTime": 0.0344855,
  "TxRefAmp": 217.627,
  "dcmmeta_affine": [
    [-1.9281175136566162, 0.3730422258377075, 0.11649489402770996, 85.34596252441406],
    [0.3901854455471039, 1.8328583240509033, 0.6085700988769531, -154.421142578125],
    [-0.006751615088433027, -0.6094237565994263, 1.9015998840332031, -32.16411590576172],
    [0.0, 0.0, 0.0, 1.0]
],
  "dcmmeta_reorient_transform": [
    [0.0, -1.0, 0.0, 121.0],
    [1.0, 0.0, 0.0, 0.0],
    [0.0, 0.0, -1.0, 69.0],
    [0.0, 0.0, 0.0, 1.0]
],
  "dcmmeta_shape": [122, 122, 70, 31],
  "dcmmeta_slice_dim": 2,
  "dcmmeta_version": 0.6,
  "global": {
    "const": {
      "AccessionNumber": "qa64",
      "AcquisitionMatrix": [122, 0, 0, 122],
      "AngioFlag": "N",
      "BitsAllocated": 16,
      "BitsStored": 12,
      "BodyPartExamined": "BRAIN",
      "Columns": 122,
      "EchoNumbers": 1,
      "EchoTime": 75.0,
      "EchoTrainLength": 61,
      "FlipAngle": 90.0,
      "HighBit": 11,
      "ImageOrientationPatient": [0.98012640753275, -0.1983442616928, -0.0034320708753, 0.18962978816979, 0.9317029837135, 0.30979040265646],
      "ImageType": [
        "ORIGINAL",
        "PRIMARY",
        "DIFFUSION",
        "NONE",
        "ND",
        "NORM"
],
      "ImagedNucleus": "1H",
      "ImagingFrequency": 123.252507,
      "InPlanePhaseEncodingDirection": "COL",
      "MRAcquisitionType": "2D",
      "MagneticFieldStrength": 3.0,
      "Manufacturer": "SIEMENS",
      "ManufacturerModelName": "Prisma",
      "Modality": "MR",
      "NumberOfAverages": 1.0,
      "NumberOfPhaseEncodingSteps": 122,
      "PercentPhaseFieldOfView": 100.0,
      "PercentSampling": 100.0,
      "PerformedProcedureStepStartTime": "102021.766000",
      "PhotometricInterpretation": "MONOCHROME2",
      "PixelBandwidth": 2050.0,
      "PixelRepresentation": 0,
      "PixelSpacing": [1.9672131538391, 1.9672131538391],
      "ProtocolName": "dwi_acq-DTI-30-p2",
      "RepetitionTime": 7700.0,
      "Rows": 122,
      "SAR": 0.06628761374862,
      "SamplesPerPixel": 1,
      "ScanOptions": "FS",
      "ScanningSequence": "EP",
      "SequenceVariant": [
        "SK",
        "SP"
],
      "SeriesDescription": "dwi_acq-DTI-30-p2",
      "SeriesNumber": 8,
      "SeriesTime": "103643.093000",
      "SliceThickness": 2.0,
      "SmallestImagePixelValue": 0,
      "SoftwareVersions": "syngo MR E11",
      "SpacingBetweenSlices": 2.0,
      "SpecificCharacterSet": "ISO_IR 100",
      "StudyID": "1",
      "StudyTime": "102021.701000",
      "TransmitCoilName": "Body",
      "VariableFlipAngleFlag": "N",
      "WindowCenterWidthExplanation": "Algo1",
      "dBdt": 0.0},
    "slices": {
      "AcquisitionTime": ["103639.590000", "103635.750000", "103639.700000", "103635.860000", "103639.810000", "103635.970000", "103639.920000", "103636.080000", "103640.030000", "103636.190000", "103640.140000", "103636.300000", "103640.250000", "103636.410000", "103640.360000", "103636.520000", "103640.470000", "103636.630000", "103640.577500", "103636.737500", "103640.687500", "103636.847500", "103640.797500", "103636.957500", "103640.907500", "103637.067500", "103641.017500", "103637.177500", "103641.127500", "103637.287500", "103641.237500", "103637.397500", "103641.347500", "103637.507500", "103641.455000", "103637.617500", "103641.565000", "103637.725000", "103641.675000", "103637.835000", "103641.785000", "103637.945000", "103641.895000", "103638.055000", "103642.005000", "103638.165000", "103642.115000", "103638.275000", "103642.225000", "103638.385000", "103642.335000", "103638.495000", "103642.442500", "103638.602500", "103642.552500", "103638.712500", "103642.662500", "103638.822500", "103642.772500", "103638.932500", "103642.882500", "103639.042500", "103642.992500", "103639.152500", "103643.102500", "103639.262500", "103643.212500", "103639.372500", "103643.320000", "103639.482500", "103647.290000", "103643.450000", "103647.400000", "103643.560000", "103647.510000", "103643.670000", "103647.620000", "103643.780000", "103647.730000", "103643.890000", "103647.840000", "103644.000000", "103647.950000", "103644.110000", "103648.060000", "103644.220000", "103648.170000", "103644.330000", "103648.277500", "103644.437500", "103648.387500", "103644.547500", "103648.497500", "103644.657500", "103648.607500", "103644.767500", "103648.717500", "103644.877500", "103648.827500", "103644.987500", "103648.937500", "103645.097500", "103649.047500", "103645.207500", "103649.155000", "103645.317500", "103649.265000", "103645.425000", "103649.375000", "103645.535000", "103649.485000", "103645.645000", "103649.595000", "103645.755000", "103649.705000", "103645.865000", "103649.815000", "103645.975000", "103649.925000", "103646.085000", "103650.035000", "103646.195000", "103650.142500", "103646.302500", "103650.252500", "103646.412500", "103650.362500", "103646.522500", "103650.472500", "103646.632500", "103650.582500", "103646.742500", "103650.692500", "103646.852500", "103650.802500", "103646.962500", "103650.912500", "103647.072500", "103651.020000", "103647.182500", "103654.990000", "103651.150000", "103655.100000", "103651.260000", "103655.210000", "103651.370000", "103655.320000", "103651.480000", "103655.430000", "103651.590000", "103655.540000", "103651.700000", "103655.650000", "103651.810000", "103655.760000", "103651.920000", "103655.870000", "103652.030000", "103655.977500", "103652.137500", "103656.087500", "103652.247500", "103656.197500", "103652.357500", "103656.307500", "103652.467500", "103656.417500", "103652.577500", "103656.527500", "103652.687500", "103656.637500", "103652.797500", "103656.747500", "103652.907500", "103656.855000", "103653.017500", "103656.965000", "103653.125000", "103657.075000", "103653.235000", "103657.185000", "103653.345000", "103657.295000", "103653.455000", "103657.405000", "103653.565000", "103657.515000", "103653.675000", "103657.625000", "103653.785000", "103657.735000", "103653.895000", "103657.842500", "103654.002500", "103657.952500", "103654.112500", "103658.062500", "103654.222500", "103658.172500", "103654.332500", "103658.282500", "103654.442500", "103658.392500", "103654.552500", "103658.502500", "103654.662500", "103658.612500", "103654.772500", "103658.720000", "103654.882500", "103702.690000", "103658.850000", "103702.800000", "103658.960000", "103702.910000", "103659.070000", "103703.020000", "103659.180000", "103703.130000", "103659.290000", "103703.240000", "103659.400000", "103703.350000", "103659.510000", "103703.460000", "103659.620000", "103703.570000", "103659.730000", "103703.677500", "103659.837500", "103703.787500", "103659.947500", "103703.897500", "103700.057500", "103704.007500", "103700.167500", "103704.117500", "103700.277500", "103704.227500", "103700.387500", "103704.337500", "103700.497500", "103704.447500", "103700.607500", "103704.555000", "103700.717500", "103704.665000", "103700.825000", "103704.775000", "103700.935000", "103704.885000", "103701.045000", "103704.995000", "103701.155000", "103705.105000", "103701.265000", "103705.215000", "103701.375000", "103705.325000", "103701.485000", "103705.435000", "103701.595000", "103705.542500", "103701.702500", "103705.652500", "103701.812500", "103705.762500", "103701.922500", "103705.872500", "103702.032500", "103705.982500", "103702.142500", "103706.092500", "103702.252500", "103706.202500", "103702.362500", "103706.312500", "103702.472500", "103706.420000", "103702.582500", "103710.390000", "103706.550000", "103710.500000", "103706.660000", "103710.610000", "103706.770000", "103710.720000", "103706.880000", "103710.830000", "103706.990000", "103710.940000", "103707.100000", "103711.050000", "103707.210000", "103711.160000", "103707.320000", "103711.270000", "103707.430000", "103711.377500", "103707.537500", "103711.487500", "103707.647500", "103711.597500", "103707.757500", "103711.707500", "103707.867500", "103711.817500", "103707.977500", "103711.927500", "103708.087500", "103712.037500", "103708.197500", "103712.147500", "103708.307500", "103712.255000", "103708.417500", "103712.365000", "103708.525000", "103712.475000", "103708.635000", "103712.585000", "103708.745000", "103712.695000", "103708.855000", "103712.805000", "103708.965000", "103712.915000", "103709.075000", "103713.025000", "103709.185000", "103713.135000", "103709.295000", "103713.242500", "103709.402500", "103713.352500", "103709.512500", "103713.462500", "103709.622500", "103713.572500", "103709.732500", "103713.682500", "103709.842500", "103713.792500", "103709.952500", "103713.902500", "103710.062500", "103714.012500", "103710.172500", "103714.120000", "103710.282500", "103718.090000", "103714.250000", "103718.200000", "103714.360000", "103718.310000", "103714.470000", "103718.420000", "103714.580000", "103718.530000", "103714.690000", "103718.640000", "103714.800000", "103718.750000", "103714.910000", "103718.860000", "103715.020000", "103718.970000", "103715.130000", "103719.077500", "103715.237500", "103719.187500", "103715.347500", "103719.297500", "103715.457500", "103719.407500", "103715.567500", "103719.517500", "103715.677500", "103719.627500", "103715.787500", "103719.737500", "103715.897500", "103719.847500", "103716.007500", "103719.955000", "103716.117500", "103720.065000", "103716.225000", "103720.175000", "103716.335000", "103720.285000", "103716.445000", "103720.395000", "103716.555000", "103720.505000", "103716.665000", "103720.615000", "103716.775000", "103720.725000", "103716.885000", "103720.835000", "103716.995000", "103720.942500", "103717.102500", "103721.052500", "103717.212500", "103721.162500", "103717.322500", "103721.272500", "103717.432500", "103721.382500", "103717.542500", "103721.492500", "103717.652500", "103721.602500", "103717.762500", "103721.712500", "103717.872500", "103721.820000", "103717.982500", "103725.790000", "103721.950000", "103725.900000", "103722.060000", "103726.010000", "103722.170000", "103726.120000", "103722.280000", "103726.230000", "103722.390000", "103726.340000", "103722.500000", "103726.450000", "103722.610000", "103726.560000", "103722.720000", "103726.670000", "103722.830000", "103726.777500", "103722.937500", "103726.887500", "103723.047500", "103726.997500", "103723.157500", "103727.107500", "103723.267500", "103727.217500", "103723.377500", "103727.327500", "103723.487500", "103727.437500", "103723.597500", "103727.547500", "103723.707500", "103727.655000", "103723.817500", "103727.765000", "103723.925000", "103727.875000", "103724.035000", "103727.985000", "103724.145000", "103728.095000", "103724.255000", "103728.205000", "103724.365000", "103728.315000", "103724.475000", "103728.425000", "103724.585000", "103728.535000", "103724.695000", "103728.642500", "103724.802500", "103728.752500", "103724.912500", "103728.862500", "103725.022500", "103728.972500", "103725.132500", "103729.082500", "103725.242500", "103729.192500", "103725.352500", "103729.302500", "103725.462500", "103729.412500", "103725.572500", "103729.520000", "103725.682500", "103733.490000", "103729.650000", "103733.600000", "103729.760000", "103733.710000", "103729.870000", "103733.820000", "103729.980000", "103733.930000", "103730.090000", "103734.040000", "103730.200000", "103734.150000", "103730.310000", "103734.260000", "103730.420000", "103734.370000", "103730.530000", "103734.477500", "103730.637500", "103734.587500", "103730.747500", "103734.697500", "103730.857500", "103734.807500", "103730.967500", "103734.917500", "103731.077500", "103735.027500", "103731.187500", "103735.137500", "103731.297500", "103735.247500", "103731.407500", "103735.355000", "103731.517500", "103735.465000", "103731.625000", "103735.575000", "103731.735000", "103735.685000", "103731.845000", "103735.795000", "103731.955000", "103735.905000", "103732.065000", "103736.015000", "103732.175000", "103736.125000", "103732.285000", "103736.235000", "103732.395000", "103736.342500", "103732.502500", "103736.452500", "103732.612500", "103736.562500", "103732.722500", "103736.672500", "103732.832500", "103736.782500", "103732.942500", "103736.892500", "103733.052500", "103737.002500", "103733.162500", "103737.112500", "103733.272500", "103737.220000", "103733.382500", "103741.190000", "103737.350000", "103741.300000", "103737.460000", "103741.410000", "103737.570000", "103741.520000", "103737.680000", "103741.630000", "103737.790000", "103741.740000", "103737.900000", "103741.850000", "103738.010000", "103741.960000", "103738.120000", "103742.070000", "103738.230000", "103742.177500", "103738.337500", "103742.287500", "103738.447500", "103742.397500", "103738.557500", "103742.507500", "103738.667500", "103742.617500", "103738.777500", "103742.727500", "103738.887500", "103742.837500", "103738.997500", "103742.947500", "103739.107500", "103743.055000", "103739.217500", "103743.165000", "103739.325000", "103743.275000", "103739.435000", "103743.385000", "103739.545000", "103743.495000", "103739.655000", "103743.605000", "103739.765000", "103743.715000", "103739.875000", "103743.825000", "103739.985000", "103743.935000", "103740.095000", "103744.042500", "103740.202500", "103744.152500", "103740.312500", "103744.262500", "103740.422500", "103744.372500", "103740.532500", "103744.482500", "103740.642500", "103744.592500", "103740.752500", "103744.702500", "103740.862500", "103744.812500", "103740.972500", "103744.920000", "103741.082500", "103748.890000", "103745.050000", "103749.000000", "103745.160000", "103749.110000", "103745.270000", "103749.220000", "103745.380000", "103749.330000", "103745.490000", "103749.440000", "103745.600000", "103749.550000", "103745.710000", "103749.660000", "103745.820000", "103749.770000", "103745.930000", "103749.877500", "103746.037500", "103749.987500", "103746.147500", "103750.097500", "103746.257500", "103750.207500", "103746.367500", "103750.317500", "103746.477500", "103750.427500", "103746.587500", "103750.537500", "103746.697500", "103750.647500", "103746.807500", "103750.755000", "103746.917500", "103750.865000", "103747.025000", "103750.975000", "103747.135000", "103751.085000", "103747.245000", "103751.195000", "103747.355000", "103751.305000", "103747.465000", "103751.415000", "103747.575000", "103751.525000", "103747.685000", "103751.635000", "103747.795000", "103751.742500", "103747.902500", "103751.852500", "103748.012500", "103751.962500", "103748.122500", "103752.072500", "103748.232500", "103752.182500", "103748.342500", "103752.292500", "103748.452500", "103752.402500", "103748.562500", "103752.512500", "103748.672500", "103752.620000", "103748.782500", "103756.590000", "103752.750000", "103756.700000", "103752.860000", "103756.810000", "103752.970000", "103756.920000", "103753.080000", "103757.030000", "103753.190000", "103757.140000", "103753.300000", "103757.250000", "103753.410000", "103757.360000", "103753.520000", "103757.470000", "103753.630000", "103757.577500", "103753.737500", "103757.687500", "103753.847500", "103757.797500", "103753.957500", "103757.907500", "103754.067500", "103758.017500", "103754.177500", "103758.127500", "103754.287500", "103758.237500", "103754.397500", "103758.347500", "103754.507500", "103758.455000", "103754.617500", "103758.565000", "103754.725000", "103758.675000", "103754.835000", "103758.785000", "103754.945000", "103758.895000", "103755.055000", "103759.005000", "103755.165000", "103759.115000", "103755.275000", "103759.225000", "103755.385000", "103759.335000", "103755.495000", "103759.442500", "103755.602500", "103759.552500", "103755.712500", "103759.662500", "103755.822500", "103759.772500", "103755.932500", "103759.882500", "103756.042500", "103759.992500", "103756.152500", "103800.102500", "103756.262500", "103800.212500", "103756.372500", "103800.320000", "103756.482500", "103804.290000", "103800.450000", "103804.400000", "103800.560000", "103804.510000", "103800.670000", "103804.620000", "103800.780000", "103804.730000", "103800.890000", "103804.840000", "103801.000000", "103804.950000", "103801.110000", "103805.060000", "103801.220000", "103805.170000", "103801.330000", "103805.277500", "103801.437500", "103805.387500", "103801.547500", "103805.497500", "103801.657500", "103805.607500", "103801.767500", "103805.717500", "103801.877500", "103805.827500", "103801.987500", "103805.937500", "103802.097500", "103806.047500", "103802.207500", "103806.155000", "103802.317500", "103806.265000", "103802.425000", "103806.375000", "103802.535000", "103806.485000", "103802.645000", "103806.595000", "103802.755000", "103806.705000", "103802.865000", "103806.815000", "103802.975000", "103806.925000", "103803.085000", "103807.035000", "103803.195000", "103807.142500", "103803.302500", "103807.252500", "103803.412500", "103807.362500", "103803.522500", "103807.472500", "103803.632500", "103807.582500", "103803.742500", "103807.692500", "103803.852500", "103807.802500", "103803.962500", "103807.912500", "103804.072500", "103808.020000", "103804.182500", "103811.990000", "103808.150000", "103812.100000", "103808.260000", "103812.210000", "103808.370000", "103812.320000", "103808.480000", "103812.430000", "103808.590000", "103812.540000", "103808.700000", "103812.650000", "103808.810000", "103812.760000", "103808.920000", "103812.870000", "103809.030000", "103812.977500", "103809.137500", "103813.087500", "103809.247500", "103813.197500", "103809.357500", "103813.307500", "103809.467500", "103813.417500", "103809.577500", "103813.527500", "103809.687500", "103813.637500", "103809.797500", "103813.747500", "103809.907500", "103813.855000", "103810.017500", "103813.965000", "103810.125000", "103814.075000", "103810.235000", "103814.185000", "103810.345000", "103814.295000", "103810.455000", "103814.405000", "103810.565000", "103814.515000", "103810.675000", "103814.625000", "103810.785000", "103814.735000", "103810.895000", "103814.842500", "103811.002500", "103814.952500", "103811.112500", "103815.062500", "103811.222500", "103815.172500", "103811.332500", "103815.282500", "103811.442500", "103815.392500", "103811.552500", "103815.502500", "103811.662500", "103815.612500", "103811.772500", "103815.720000", "103811.882500", "103819.690000", "103815.850000", "103819.800000", "103815.960000", "103819.910000", "103816.070000", "103820.020000", "103816.180000", "103820.130000", "103816.290000", "103820.240000", "103816.400000", "103820.350000", "103816.510000", "103820.460000", "103816.620000", "103820.570000", "103816.730000", "103820.677500", "103816.837500", "103820.787500", "103816.947500", "103820.897500", "103817.057500", "103821.007500", "103817.167500", "103821.117500", "103817.277500", "103821.227500", "103817.387500", "103821.337500", "103817.497500", "103821.447500", "103817.607500", "103821.555000", "103817.717500", "103821.665000", "103817.825000", "103821.775000", "103817.935000", "103821.885000", "103818.045000", "103821.995000", "103818.155000", "103822.105000", "103818.265000", "103822.215000", "103818.375000", "103822.325000", "103818.485000", "103822.435000", "103818.595000", "103822.542500", "103818.702500", "103822.652500", "103818.812500", "103822.762500", "103818.922500", "103822.872500", "103819.032500", "103822.982500", "103819.142500", "103823.092500", "103819.252500", "103823.202500", "103819.362500", "103823.312500", "103819.472500", "103823.420000", "103819.582500", "103827.390000", "103823.550000", "103827.500000", "103823.660000", "103827.610000", "103823.770000", "103827.720000", "103823.880000", "103827.830000", "103823.990000", "103827.940000", "103824.100000", "103828.050000", "103824.210000", "103828.160000", "103824.320000", "103828.270000", "103824.430000", "103828.377500", "103824.537500", "103828.487500", "103824.647500", "103828.597500", "103824.757500", "103828.707500", "103824.867500", "103828.817500", "103824.977500", "103828.927500", "103825.087500", "103829.037500", "103825.197500", "103829.147500", "103825.307500", "103829.255000", "103825.417500", "103829.365000", "103825.525000", "103829.475000", "103825.635000", "103829.585000", "103825.745000", "103829.695000", "103825.855000", "103829.805000", "103825.965000", "103829.915000", "103826.075000", "103830.025000", "103826.185000", "103830.135000", "103826.295000", "103830.242500", "103826.402500", "103830.352500", "103826.512500", "103830.462500", "103826.622500", "103830.572500", "103826.732500", "103830.682500", "103826.842500", "103830.792500", "103826.952500", "103830.902500", "103827.062500", "103831.012500", "103827.172500", "103831.120000", "103827.282500", "103835.090000", "103831.250000", "103835.200000", "103831.360000", "103835.310000", "103831.470000", "103835.420000", "103831.580000", "103835.530000", "103831.690000", "103835.640000", "103831.800000", "103835.750000", "103831.910000", "103835.860000", "103832.020000", "103835.970000", "103832.130000", "103836.077500", "103832.237500", "103836.187500", "103832.347500", "103836.297500", "103832.457500", "103836.407500", "103832.567500", "103836.517500", "103832.677500", "103836.627500", "103832.787500", "103836.737500", "103832.897500", "103836.847500", "103833.007500", "103836.955000", "103833.117500", "103837.065000", "103833.225000", "103837.175000", "103833.335000", "103837.285000", "103833.445000", "103837.395000", "103833.555000", "103837.505000", "103833.665000", "103837.615000", "103833.775000", "103837.725000", "103833.885000", "103837.835000", "103833.995000", "103837.942500", "103834.102500", "103838.052500", "103834.212500", "103838.162500", "103834.322500", "103838.272500", "103834.432500", "103838.382500", "103834.542500", "103838.492500", "103834.652500", "103838.602500", "103834.762500", "103838.712500", "103834.872500", "103838.820000", "103834.982500", "103842.790000", "103838.950000", "103842.900000", "103839.060000", "103843.010000", "103839.170000", "103843.120000", "103839.280000", "103843.230000", "103839.390000", "103843.340000", "103839.500000", "103843.450000", "103839.610000", "103843.560000", "103839.720000", "103843.670000", "103839.830000", "103843.777500", "103839.937500", "103843.887500", "103840.047500", "103843.997500", "103840.157500", "103844.107500", "103840.267500", "103844.217500", "103840.377500", "103844.327500", "103840.487500", "103844.437500", "103840.597500", "103844.547500", "103840.707500", "103844.655000", "103840.817500", "103844.765000", "103840.925000", "103844.875000", "103841.035000", "103844.985000", "103841.145000", "103845.095000", "103841.255000", "103845.205000", "103841.365000", "103845.315000", "103841.475000", "103845.425000", "103841.585000", "103845.535000", "103841.695000", "103845.642500", "103841.802500", "103845.752500", "103841.912500", "103845.862500", "103842.022500", "103845.972500", "103842.132500", "103846.082500", "103842.242500", "103846.192500", "103842.352500", "103846.302500", "103842.462500", "103846.412500", "103842.572500", "103846.520000", "103842.682500", "103850.490000", "103846.650000", "103850.600000", "103846.760000", "103850.710000", "103846.870000", "103850.820000", "103846.980000", "103850.930000", "103847.090000", "103851.040000", "103847.200000", "103851.150000", "103847.310000", "103851.260000", "103847.420000", "103851.370000", "103847.530000", "103851.477500", "103847.637500", "103851.587500", "103847.747500", "103851.697500", "103847.857500", "103851.807500", "103847.967500", "103851.917500", "103848.077500", "103852.027500", "103848.187500", "103852.137500", "103848.297500", "103852.247500", "103848.407500", "103852.355000", "103848.517500", "103852.465000", "103848.625000", "103852.575000", "103848.735000", "103852.685000", "103848.845000", "103852.795000", "103848.955000", "103852.905000", "103849.065000", "103853.015000", "103849.175000", "103853.125000", "103849.285000", "103853.235000", "103849.395000", "103853.342500", "103849.502500", "103853.452500", "103849.612500", "103853.562500", "103849.722500", "103853.672500", "103849.832500", "103853.782500", "103849.942500", "103853.892500", "103850.052500", "103854.002500", "103850.162500", "103854.112500", "103850.272500", "103854.220000", "103850.382500", "103858.190000", "103854.350000", "103858.300000", "103854.460000", "103858.410000", "103854.570000", "103858.520000", "103854.680000", "103858.630000", "103854.790000", "103858.740000", "103854.900000", "103858.850000", "103855.010000", "103858.960000", "103855.120000", "103859.070000", "103855.230000", "103859.177500", "103855.337500", "103859.287500", "103855.447500", "103859.397500", "103855.557500", "103859.507500", "103855.667500", "103859.617500", "103855.777500", "103859.727500", "103855.887500", "103859.837500", "103855.997500", "103859.947500", "103856.107500", "103900.055000", "103856.217500", "103900.165000", "103856.325000", "103900.275000", "103856.435000", "103900.385000", "103856.545000", "103900.495000", "103856.655000", "103900.605000", "103856.765000", "103900.715000", "103856.875000", "103900.825000", "103856.985000", "103900.935000", "103857.095000", "103901.042500", "103857.202500", "103901.152500", "103857.312500", "103901.262500", "103857.422500", "103901.372500", "103857.532500", "103901.482500", "103857.642500", "103901.592500", "103857.752500", "103901.702500", "103857.862500", "103901.812500", "103857.972500", "103901.920000", "103858.082500", "103905.890000", "103902.050000", "103906.000000", "103902.160000", "103906.110000", "103902.270000", "103906.220000", "103902.380000", "103906.330000", "103902.490000", "103906.440000", "103902.600000", "103906.550000", "103902.710000", "103906.660000", "103902.820000", "103906.770000", "103902.930000", "103906.877500", "103903.037500", "103906.987500", "103903.147500", "103907.097500", "103903.257500", "103907.207500", "103903.367500", "103907.317500", "103903.477500", "103907.427500", "103903.587500", "103907.537500", "103903.697500", "103907.647500", "103903.807500", "103907.755000", "103903.917500", "103907.865000", "103904.025000", "103907.975000", "103904.135000", "103908.085000", "103904.245000", "103908.195000", "103904.355000", "103908.305000", "103904.465000", "103908.415000", "103904.575000", "103908.525000", "103904.685000", "103908.635000", "103904.795000", "103908.742500", "103904.902500", "103908.852500", "103905.012500", "103908.962500", "103905.122500", "103909.072500", "103905.232500", "103909.182500", "103905.342500", "103909.292500", "103905.452500", "103909.402500", "103905.562500", "103909.512500", "103905.672500", "103909.620000", "103905.782500", "103913.590000", "103909.750000", "103913.700000", "103909.860000", "103913.810000", "103909.970000", "103913.920000", "103910.080000", "103914.030000", "103910.190000", "103914.140000", "103910.300000", "103914.250000", "103910.410000", "103914.360000", "103910.520000", "103914.470000", "103910.630000", "103914.577500", "103910.737500", "103914.687500", "103910.847500", "103914.797500", "103910.957500", "103914.907500", "103911.067500", "103915.017500", "103911.177500", "103915.127500", "103911.287500", "103915.237500", "103911.397500", "103915.347500", "103911.507500", "103915