{
  "AcquisitionMatrixPE": 122,
  "AcquisitionNumber": 1,
  "AcquisitionTime": "09:59:39.187500",
  "BandwidthPerPixelPhaseEncode": 28.76,
  "BaseResolution": 122,
  "BodyPartExamined": "BRAIN",
  "CoilCombinationMethod": "Adaptive Combine",
  "ConsistencyInfo": "N4_VE11C_LATEST_20160120",
  "ConversionSoftware": "dcm2niix",
  "ConversionSoftwareVersion": "v1.0.20220720",
  "DerivedVendorReportedEchoSpacing": 0.000570008,
  "DeviceSerialNumber": "66112",
  "DiffusionScheme": "Monopolar",
  "DwellTime": 2e-06,
  "EchoTime": 0.075,
  "EchoTrainLength": 61,
  "EffectiveEchoSpacing": 0.000285004,
  "FlipAngle": 90,
  "HeudiconvVersion": "0.13.1",
  "ImageOrientationPatientDICOM": [0.984285, -0.176565, 0.00288307, 0.167363, 0.937947, 0.303718],
  "ImageOrientationText": "Tra>Cor(17.4)>Sag(3.2)",
  "ImageType": [
    "ORIGINAL",
    "PRIMARY",
    "DIFFUSION",
    "NONE",
    "ND",
    "NORM"
],
  "ImagingFrequency": 123.252,
  "InPlanePhaseEncodingDirectionDICOM": "COL",
  "InstitutionAddress": "Maynard 3,Hanover,NH,US,03755",
  "InstitutionName": "Dartmouth College - PBS",
  "InstitutionalDepartmentName": "Department",
  "MRAcquisitionType": "2D",
  "MagneticFieldStrength": 3,
  "Manufacturer": "Siemens",
  "ManufacturersModelName": "Prisma",
  "MatrixCoilMode": "GRAPPA",
  "Modality": "MR",
  "NonlinearGradientCorrection": false,
  "ParallelReductionFactorInPlane": 2,
  "PartialFourier": 1,
  "PatientPosition": "HFS",
  "PercentPhaseFOV": 100,
  "PercentSampling": 100,
  "PhaseEncodingDirection": "j-",
  "PhaseEncodingSteps": 122,
  "PhaseResolution": 1,
  "PixelBandwidth": 2050,
  "ProcedureStepDescription": "dbic^QA",
  "ProtocolName": "dwi_acq-DTI-30-p2",
  "PulseSequenceDetails": "%SiemensSeq%\\ep2d_diff",
  "ReceiveCoilActiveElements": "HEA;HEP",
  "ReceiveCoilName": "Head_32",
  "ReconMatrixPE": 122,
  "RefLinesPE": 38,
  "RepetitionTime": 7.7,
  "SAR": 0.102313,
  "ScanOptions": "FS",
  "ScanningSequence": "EP",
  "SequenceName": "*ep_b0",
  "SequenceVariant": "SK\\SP",
  "SeriesDescription": "dwi_acq-DTI-30-p2",
  "SeriesNumber": 8,
  "ShimSetting": [4144, -7688, -7521, 266, -73, -132, -33, 56],
  "SliceThickness": 2,
  "SliceTiming": [3.84375, 0, 3.95312, 0.11719, 4.0625, 0.22656, 4.17188, 0.33594, 4.28125, 0.44531, 4.39062, 0.55469, 4.5, 0.66406, 4.60938, 0.77344, 4.71875, 0.88281, 4.82812, 0.99219, 4.9375, 1.10156, 5.05469, 1.21094, 5.16406, 1.32031, 5.27344, 1.42969, 5.38281, 1.53906, 5.49219, 1.64844, 5.60156, 1.75781, 5.71094, 1.86719, 5.82031, 1.97656, 5.92969, 2.08594, 6.03906, 2.19531, 6.14844, 2.3125, 6.25781, 2.42188, 6.36719, 2.53125, 6.47656, 2.64062, 6.58594, 2.75, 6.69531, 2.85938, 6.80469, 2.96875, 6.91406, 3.07812, 7.02344, 3.1875, 7.13281, 3.29688, 7.25, 3.40625, 7.35938, 3.51562, 7.46094, 3.625, 7.57031, 3.73438],
  "SoftwareVersions": "syngo MR E11",
  "SpacingBetweenSlices": 2,
  "SpoilingState": true,
  "StationName": "AWP66112",
  "TotalReadoutTime": 0.0344855,
  "TxRefAmp": 232.243,
  "dcmmeta_affine": [
    [-1.9362980127334595, 0.3292386531829834, 0.11265993118286133, 93.5495834350586],
    [0.34734058380126953, 1.8451423645019531, 0.596923828125, -152.0647735595703],
    [0.005671609193086624, -0.5974773168563843, 1.905517578125, -26.393585205078125],
    [0.0, 0.0, 0.0, 1.0]
],
  "dcmmeta_reorient_transform": [
    [0.0, -1.0, 0.0, 121.0],
    [1.0, 0.0, 0.0, 0.0],
    [0.0, 0.0, -1.0, 69.0],
    [0.0, 0.0, 0.0, 1.0]
],
  "dcmmeta_shape": [122, 122, 70, 31],
  "dcmmeta_slice_dim": 2,
  "dcmmeta_version": 0.6,
  "global": {
    "const": {
      "AccessionNumber": "qa",
      "AcquisitionMatrix": [122, 0, 0, 122],
      "AngioFlag": "N",
      "BitsAllocated": 16,
      "BitsStored": 12,
      "BodyPartExamined": "BRAIN",
      "Columns": 122,
      "EchoNumbers": 1,
      "EchoTime": 75.0,
      "EchoTrainLength": 61,
      "FlipAngle": 90.0,
      "HighBit": 11,
      "ImageOrientationPatient": [0.98428479722997, -0.1765647922453, 0.00288306804301, 0.16736298388648, 0.93794735144999, 0.30371762795821],
      "ImageType": [
        "ORIGINAL",
        "PRIMARY",
        "DIFFUSION",
        "NONE",
        "ND",
        "NORM"
],
      "ImagedNucleus": "1H",
      "ImagingFrequency": 123.252446,
      "InPlanePhaseEncodingDirection": "COL",
      "MRAcquisitionType": "2D",
      "MagneticFieldStrength": 3.0,
      "Manufacturer": "SIEMENS",
      "ManufacturerModelName": "Prisma",
      "Modality": "MR",
      "NumberOfAverages": 1.0,
      "NumberOfPhaseEncodingSteps": 122,
      "PercentPhaseFieldOfView": 100.0,
      "PercentSampling": 100.0,
      "PerformedProcedureStepStartTime": "094401.044000",
      "PhotometricInterpretation": "MONOCHROME2",
      "PixelBandwidth": 2050.0,
      "PixelRepresentation": 0,
      "PixelSpacing": [1.9672131538391, 1.9672131538391],
      "ProtocolName": "dwi_acq-DTI-30-p2",
      "RepetitionTime": 7700.0,
      "Rows": 122,
      "SAR": 0.10231345101455,
      "SamplesPerPixel": 1,
      "ScanOptions": "FS",
      "ScanningSequence": "EP",
      "SequenceVariant": [
        "SK",
        "SP"
],
      "SeriesDescription": "dwi_acq-DTI-30-p2",
      "SeriesNumber": 8,
      "SeriesTime": "095956.205000",
      "SliceThickness": 2.0,
      "SmallestImagePixelValue": 0,
      "SoftwareVersions": "syngo MR E11",
      "SpacingBetweenSlices": 2.0,
      "SpecificCharacterSet": "ISO_IR 100",
      "StudyID": "40",
      "StudyTime": "094400.955000",
      "TransmitCoilName": "Body",
      "VariableFlipAngleFlag": "N",
      "WindowCenterWidthExplanation": "Algo1",
      "dBdt": 0.0},
    "slices": {
      "AcquisitionTime": ["095939.187500", "095935.347500", "095939.297500", "095935.457500", "095939.407500", "095935.567500", "095939.517500", "095935.677500", "095939.627500", "095935.787500", "095939.737500", "095935.897500", "095939.847500", "095936.007500", "095939.955000", "095936.117500", "095940.065000", "095936.225000", "095940.175000", "095936.335000", "095940.285000", "095936.445000", "095940.395000", "095936.555000", "095940.505000", "095936.665000", "095940.615000", "095936.775000", "095940.725000", "095936.885000", "095940.835000", "095936.995000", "095940.942500", "095937.102500", "095941.052500", "095937.212500", "095941.162500", "095937.322500", "095941.272500", "095937.432500", "095941.382500", "095937.542500", "095941.492500", "095937.652500", "095941.602500", "095937.762500", "095941.712500", "095937.872500", "095941.820000", "095937.982500", "095941.930000", "095938.090000", "095942.040000", "095938.200000", "095942.150000", "095938.310000", "095942.260000", "095938.420000", "095942.370000", "095938.530000", "095942.480000", "095938.640000", "095942.590000", "095938.750000", "095942.700000", "095938.860000", "095942.807500", "095938.970000", "095942.917500", "095939.077500", "095946.887500", "095943.047500", "095946.997500", "095943.157500", "095947.107500", "095943.267500", "095947.217500", "095943.377500", "095947.327500", "095943.487500", "095947.437500", "095943.597500", "095947.547500", "095943.707500", "095947.655000", "095943.817500", "095947.765000", "095943.925000", "095947.875000", "095944.035000", "095947.985000", "095944.145000", "095948.095000", "095944.255000", "095948.205000", "095944.365000", "095948.315000", "095944.475000", "095948.425000", "095944.585000", "095948.535000", "095944.695000", "095948.642500", "095944.802500", "095948.752500", "095944.912500", "095948.862500", "095945.022500", "095948.972500", "095945.132500", "095949.082500", "095945.242500", "095949.192500", "095945.352500", "095949.302500", "095945.462500", "095949.412500", "095945.572500", "095949.520000", "095945.682500", "095949.630000", "095945.790000", "095949.740000", "095945.900000", "095949.850000", "095946.010000", "095949.960000", "095946.120000", "095950.070000", "095946.230000", "095950.180000", "095946.340000", "095950.290000", "095946.450000", "095950.400000", "095946.560000", "095950.507500", "095946.670000", "095950.617500", "095946.777500", "095954.587500", "095950.747500", "095954.697500", "095950.857500", "095954.807500", "095950.967500", "095954.917500", "095951.077500", "095955.027500", "095951.187500", "095955.137500", "095951.297500", "095955.247500", "095951.407500", "095955.355000", "095951.517500", "095955.465000", "095951.625000", "095955.575000", "095951.735000", "095955.685000", "095951.845000", "095955.795000", "095951.955000", "095955.905000", "095952.065000", "095956.015000", "095952.175000", "095956.125000", "095952.285000", "095956.235000", "095952.395000", "095956.342500", "095952.502500", "095956.452500", "095952.612500", "095956.562500", "095952.722500", "095956.672500", "095952.832500", "095956.782500", "095952.942500", "095956.892500", "095953.052500", "095957.002500", "095953.162500", "095957.112500", "095953.272500", "095957.220000", "095953.382500", "095957.330000", "095953.490000", "095957.440000", "095953.600000", "095957.550000", "095953.710000", "095957.660000", "095953.820000", "095957.770000", "095953.930000", "095957.880000", "095954.040000", "095957.990000", "095954.150000", "095958.100000", "095954.260000", "095958.207500", "095954.370000", "095958.317500", "095954.477500", "100002.287500", "095958.447500", "100002.397500", "095958.557500", "100002.507500", "095958.667500", "100002.617500", "095958.777500", "100002.727500", "095958.887500", "100002.837500", "095958.997500", "100002.947500", "095959.107500", "100003.055000", "095959.217500", "100003.165000", "095959.325000", "100003.275000", "095959.435000", "100003.385000", "095959.545000", "100003.495000", "095959.655000", "100003.605000", "095959.765000", "100003.715000", "095959.875000", "100003.825000", "095959.985000", "100003.935000", "100000.095000", "100004.042500", "100000.202500", "100004.152500", "100000.312500", "100004.262500", "100000.422500", "100004.372500", "100000.532500", "100004.482500", "100000.642500", "100004.592500", "100000.752500", "100004.702500", "100000.862500", "100004.812500", "100000.972500", "100004.920000", "100001.082500", "100005.030000", "100001.190000", "100005.140000", "100001.300000", "100005.250000", "100001.410000", "100005.360000", "100001.520000", "100005.470000", "100001.630000", "100005.580000", "100001.740000", "100005.690000", "100001.850000", "100005.800000", "100001.960000", "100005.907500", "100002.070000", "100006.017500", "100002.177500", "100009.987500", "100006.147500", "100010.097500", "100006.257500", "100010.207500", "100006.367500", "100010.317500", "100006.477500", "100010.427500", "100006.587500", "100010.537500", "100006.697500", "100010.647500", "100006.807500", "100010.755000", "100006.917500", "100010.865000", "100007.025000", "100010.975000", "100007.135000", "100011.085000", "100007.245000", "100011.195000", "100007.355000", "100011.305000", "100007.465000", "100011.415000", "100007.575000", "100011.525000", "100007.685000", "100011.635000", "100007.795000", "100011.742500", "100007.902500", "100011.852500", "100008.012500", "100011.962500", "100008.122500", "100012.072500", "100008.232500", "100012.182500", "100008.342500", "100012.292500", "100008.452500", "100012.402500", "100008.562500", "100012.512500", "100008.672500", "100012.620000", "100008.782500", "100012.730000", "100008.890000", "100012.840000", "100009.000000", "100012.950000", "100009.110000", "100013.060000", "100009.220000", "100013.170000", "100009.330000", "100013.280000", "100009.440000", "100013.390000", "100009.550000", "100013.500000", "100009.660000", "100013.607500", "100009.770000", "100013.717500", "100009.877500", "100017.687500", "100013.847500", "100017.797500", "100013.957500", "100017.907500", "100014.067500", "100018.017500", "100014.177500", "100018.127500", "100014.287500", "100018.237500", "100014.397500", "100018.347500", "100014.507500", "100018.455000", "100014.617500", "100018.565000", "100014.725000", "100018.675000", "100014.835000", "100018.785000", "100014.945000", "100018.895000", "100015.055000", "100019.005000", "100015.165000", "100019.115000", "100015.275000", "100019.225000", "100015.385000", "100019.335000", "100015.495000", "100019.442500", "100015.602500", "100019.552500", "100015.712500", "100019.662500", "100015.822500", "100019.772500", "100015.932500", "100019.882500", "100016.042500", "100019.992500", "100016.152500", "100020.102500", "100016.262500", "100020.212500", "100016.372500", "100020.320000", "100016.482500", "100020.430000", "100016.590000", "100020.540000", "100016.700000", "100020.650000", "100016.810000", "100020.760000", "100016.920000", "100020.870000", "100017.030000", "100020.980000", "100017.140000", "100021.090000", "100017.250000", "100021.200000", "100017.360000", "100021.307500", "100017.470000", "100021.417500", "100017.577500", "100025.387500", "100021.547500", "100025.497500", "100021.657500", "100025.607500", "100021.767500", "100025.717500", "100021.877500", "100025.827500", "100021.987500", "100025.937500", "100022.097500", "100026.047500", "100022.207500", "100026.155000", "100022.317500", "100026.265000", "100022.425000", "100026.375000", "100022.535000", "100026.485000", "100022.645000", "100026.595000", "100022.755000", "100026.705000", "100022.865000", "100026.815000", "100022.975000", "100026.925000", "100023.085000", "100027.035000", "100023.195000", "100027.142500", "100023.302500", "100027.252500", "100023.412500", "100027.362500", "100023.522500", "100027.472500", "100023.632500", "100027.582500", "100023.742500", "100027.692500", "100023.852500", "100027.802500", "100023.962500", "100027.912500", "100024.072500", "100028.020000", "100024.182500", "100028.130000", "100024.290000", "100028.240000", "100024.400000", "100028.350000", "100024.510000", "100028.460000", "100024.620000", "100028.570000", "100024.730000", "100028.680000", "100024.840000", "100028.790000", "100024.950000", "100028.900000", "100025.060000", "100029.007500", "100025.170000", "100029.117500", "100025.277500", "100033.087500", "100029.247500", "100033.197500", "100029.357500", "100033.307500", "100029.467500", "100033.417500", "100029.577500", "100033.527500", "100029.687500", "100033.637500", "100029.797500", "100033.747500", "100029.907500", "100033.855000", "100030.017500", "100033.965000", "100030.125000", "100034.075000", "100030.235000", "100034.185000", "100030.345000", "100034.295000", "100030.455000", "100034.405000", "100030.565000", "100034.515000", "100030.675000", "100034.625000", "100030.785000", "100034.735000", "100030.895000", "100034.842500", "100031.002500", "100034.952500", "100031.112500", "100035.062500", "100031.222500", "100035.172500", "100031.332500", "100035.282500", "100031.442500", "100035.392500", "100031.552500", "100035.502500", "100031.662500", "100035.612500", "100031.772500", "100035.720000", "100031.882500", "100035.830000", "100031.990000", "100035.940000", "100032.100000", "100036.050000", "100032.210000", "100036.160000", "100032.320000", "100036.270000", "100032.430000", "100036.380000", "100032.540000", "100036.490000", "100032.650000", "100036.600000", "100032.760000", "100036.707500", "100032.870000", "100036.817500", "100032.977500", "100040.787500", "100036.947500", "100040.897500", "100037.057500", "100041.007500", "100037.167500", "100041.117500", "100037.277500", "100041.227500", "100037.387500", "100041.337500", "100037.497500", "100041.447500", "100037.607500", "100041.555000", "100037.717500", "100041.665000", "100037.825000", "100041.775000", "100037.935000", "100041.885000", "100038.045000", "100041.995000", "100038.155000", "100042.105000", "100038.265000", "100042.215000", "100038.375000", "100042.325000", "100038.485000", "100042.435000", "100038.595000", "100042.542500", "100038.702500", "100042.652500", "100038.812500", "100042.762500", "100038.922500", "100042.872500", "100039.032500", "100042.982500", "100039.142500", "100043.092500", "100039.252500", "100043.202500", "100039.362500", "100043.312500", "100039.472500", "100043.420000", "100039.582500", "100043.530000", "100039.690000", "100043.640000", "100039.800000", "100043.750000", "100039.910000", "100043.860000", "100040.020000", "100043.970000", "100040.130000", "100044.080000", "100040.240000", "100044.190000", "100040.350000", "100044.300000", "100040.460000", "100044.407500", "100040.570000", "100044.517500", "100040.677500", "100048.487500", "100044.647500", "100048.597500", "100044.757500", "100048.707500", "100044.867500", "100048.817500", "100044.977500", "100048.927500", "100045.087500", "100049.037500", "100045.197500", "100049.147500", "100045.307500", "100049.255000", "100045.417500", "100049.365000", "100045.525000", "100049.475000", "100045.635000", "100049.585000", "100045.745000", "100049.695000", "100045.855000", "100049.805000", "100045.965000", "100049.915000", "100046.075000", "100050.025000", "100046.185000", "100050.135000", "100046.295000", "100050.242500", "100046.402500", "100050.352500", "100046.512500", "100050.462500", "100046.622500", "100050.572500", "100046.732500", "100050.682500", "100046.842500", "100050.792500", "100046.952500", "100050.902500", "100047.062500", "100051.012500", "100047.172500", "100051.120000", "100047.282500", "100051.230000", "100047.390000", "100051.340000", "100047.500000", "100051.450000", "100047.610000", "100051.560000", "100047.720000", "100051.670000", "100047.830000", "100051.780000", "100047.940000", "100051.890000", "100048.050000", "100052.000000", "100048.160000", "100052.107500", "100048.270000", "100052.217500", "100048.377500", "100056.187500", "100052.347500", "100056.297500", "100052.457500", "100056.407500", "100052.567500", "100056.517500", "100052.677500", "100056.627500", "100052.787500", "100056.737500", "100052.897500", "100056.847500", "100053.007500", "100056.955000", "100053.117500", "100057.065000", "100053.225000", "100057.175000", "100053.335000", "100057.285000", "100053.445000", "100057.395000", "100053.555000", "100057.505000", "100053.665000", "100057.615000", "100053.775000", "100057.725000", "100053.885000", "100057.835000", "100053.995000", "100057.942500", "100054.102500", "100058.052500", "100054.212500", "100058.162500", "100054.322500", "100058.272500", "100054.432500", "100058.382500", "100054.542500", "100058.492500", "100054.652500", "100058.602500", "100054.762500", "100058.712500", "100054.872500", "100058.820000", "100054.982500", "100058.930000", "100055.090000", "100059.040000", "100055.200000", "100059.150000", "100055.310000", "100059.260000", "100055.420000", "100059.370000", "100055.530000", "100059.480000", "100055.640000", "100059.590000", "100055.750000", "100059.700000", "100055.860000", "100059.807500", "100055.970000", "100059.917500", "100056.077500", "100103.887500", "100100.047500", "100103.997500", "100100.157500", "100104.107500", "100100.267500", "100104.217500", "100100.377500", "100104.327500", "100100.487500", "100104.437500", "100100.597500", "100104.547500", "100100.707500", "100104.655000", "100100.817500", "100104.765000", "100100.925000", "100104.875000", "100101.035000", "100104.985000", "100101.145000", "100105.095000", "100101.255000", "100105.205000", "100101.365000", "100105.315000", "100101.475000", "100105.425000", "100101.585000", "100105.535000", "100101.695000", "100105.642500", "100101.802500", "100105.752500", "100101.912500", "100105.862500", "100102.022500", "100105.972500", "100102.132500", "100106.082500", "100102.242500", "100106.192500", "100102.352500", "100106.302500", "100102.462500", "100106.412500", "100102.572500", "100106.520000", "100102.682500", "100106.630000", "100102.790000", "100106.740000", "100102.900000", "100106.850000", "100103.010000", "100106.960000", "100103.120000", "100107.070000", "100103.230000", "100107.180000", "100103.340000", "100107.290000", "100103.450000", "100107.400000", "100103.560000", "100107.507500", "100103.670000", "100107.617500", "100103.777500", "100111.587500", "100107.747500", "100111.697500", "100107.857500", "100111.807500", "100107.967500", "100111.917500", "100108.077500", "100112.027500", "100108.187500", "100112.137500", "100108.297500", "100112.247500", "100108.407500", "100112.355000", "100108.517500", "100112.465000", "100108.625000", "100112.575000", "100108.735000", "100112.685000", "100108.845000", "100112.795000", "100108.955000", "100112.905000", "100109.065000", "100113.015000", "100109.175000", "100113.125000", "100109.285000", "100113.235000", "100109.395000", "100113.342500", "100109.502500", "100113.452500", "100109.612500", "100113.562500", "100109.722500", "100113.672500", "100109.832500", "100113.782500", "100109.942500", "100113.892500", "100110.052500", "100114.002500", "100110.162500", "100114.112500", "100110.272500", "100114.220000", "100110.382500", "100114.330000", "100110.490000", "100114.440000", "100110.600000", "100114.550000", "100110.710000", "100114.660000", "100110.820000", "100114.770000", "100110.930000", "100114.880000", "100111.040000", "100114.990000", "100111.150000", "100115.100000", "100111.260000", "100115.207500", "100111.370000", "100115.317500", "100111.477500", "100119.287500", "100115.447500", "100119.397500", "100115.557500", "100119.507500", "100115.667500", "100119.617500", "100115.777500", "100119.727500", "100115.887500", "100119.837500", "100115.997500", "100119.947500", "100116.107500", "100120.055000", "100116.217500", "100120.165000", "100116.325000", "100120.275000", "100116.435000", "100120.385000", "100116.545000", "100120.495000", "100116.655000", "100120.605000", "100116.765000", "100120.715000", "100116.875000", "100120.825000", "100116.985000", "100120.935000", "100117.095000", "100121.042500", "100117.202500", "100121.152500", "100117.312500", "100121.262500", "100117.422500", "100121.372500", "100117.532500", "100121.482500", "100117.642500", "100121.592500", "100117.752500", "100121.702500", "100117.862500", "100121.812500", "100117.972500", "100121.920000", "100118.082500", "100122.030000", "100118.190000", "100122.140000", "100118.300000", "100122.250000", "100118.410000", "100122.360000", "100118.520000", "100122.470000", "100118.630000", "100122.580000", "100118.740000", "100122.690000", "100118.850000", "100122.800000", "100118.960000", "100122.907500", "100119.070000", "100123.017500", "100119.177500", "100126.987500", "100123.147500", "100127.097500", "100123.257500", "100127.207500", "100123.367500", "100127.317500", "100123.477500", "100127.427500", "100123.587500", "100127.537500", "100123.697500", "100127.647500", "100123.807500", "100127.755000", "100123.917500", "100127.865000", "100124.025000", "100127.975000", "100124.135000", "100128.085000", "100124.245000", "100128.195000", "100124.355000", "100128.305000", "100124.465000", "100128.415000", "100124.575000", "100128.525000", "100124.685000", "100128.635000", "100124.795000", "100128.742500", "100124.902500", "100128.852500", "100125.012500", "100128.962500", "100125.122500", "100129.072500", "100125.232500", "100129.182500", "100125.342500", "100129.292500", "100125.452500", "100129.402500", "100125.562500", "100129.512500", "100125.672500", "100129.620000", "100125.782500", "100129.730000", "100125.890000", "100129.840000", "100126.000000", "100129.950000", "100126.110000", "100130.060000", "100126.220000", "100130.170000", "100126.330000", "100130.280000", "100126.440000", "100130.390000", "100126.550000", "100130.500000", "100126.660000", "100130.607500", "100126.770000", "100130.717500", "100126.877500", "100134.687500", "100130.847500", "100134.797500", "100130.957500", "100134.907500", "100131.067500", "100135.017500", "100131.177500", "100135.127500", "100131.287500", "100135.237500", "100131.397500", "100135.347500", "100131.507500", "100135.455000", "100131.617500", "100135.565000", "100131.725000", "100135.675000", "100131.835000", "100135.785000", "100131.945000", "100135.895000", "100132.055000", "100136.005000", "100132.165000", "100136.115000", "100132.275000", "100136.225000", "100132.385000", "100136.335000", "100132.495000", "100136.442500", "100132.602500", "100136.552500", "100132.712500", "100136.662500", "100132.822500", "100136.772500", "100132.932500", "100136.882500", "100133.042500", "100136.992500", "100133.152500", "100137.102500", "100133.262500", "100137.212500", "100133.372500", "100137.320000", "100133.482500", "100137.430000", "100133.590000", "100137.540000", "100133.700000", "100137.650000", "100133.810000", "100137.760000", "100133.920000", "100137.870000", "100134.030000", "100137.980000", "100134.140000", "100138.090000", "100134.250000", "100138.200000", "100134.360000", "100138.307500", "100134.470000", "100138.417500", "100134.577500", "100142.387500", "100138.547500", "100142.497500", "100138.657500", "100142.607500", "100138.767500", "100142.717500", "100138.877500", "100142.827500", "100138.987500", "100142.937500", "100139.097500", "100143.047500", "100139.207500", "100143.155000", "100139.317500", "100143.265000", "100139.425000", "100143.375000", "100139.535000", "100143.485000", "100139.645000", "100143.595000", "100139.755000", "100143.705000", "100139.865000", "100143.815000", "100139.975000", "100143.925000", "100140.085000", "100144.035000", "100140.195000", "100144.142500", "100140.302500", "100144.252500", "100140.412500", "100144.362500", "100140.522500", "100144.472500", "100140.632500", "100144.582500", "100140.742500", "100144.692500", "100140.852500", "100144.802500", "100140.962500", "100144.912500", "100141.072500", "100145.020000", "100141.182500", "100145.130000", "100141.290000", "100145.240000", "100141.400000", "100145.350000", "100141.510000", "100145.460000", "100141.620000", "100145.570000", "100141.730000", "100145.680000", "100141.840000", "100145.790000", "100141.950000", "100145.900000", "100142.060000", "100146.007500", "100142.170000", "100146.117500", "100142.277500", "100150.087500", "100146.247500", "100150.197500", "100146.357500", "100150.307500", "100146.467500", "100150.417500", "100146.577500", "100150.527500", "100146.687500", "100150.637500", "100146.797500", "100150.747500", "100146.907500", "100150.855000", "100147.017500", "100150.965000", "100147.125000", "100151.075000", "100147.235000", "100151.185000", "100147.345000", "100151.295000", "100147.455000", "100151.405000", "100147.565000", "100151.515000", "100147.675000", "100151.625000", "100147.785000", "100151.735000", "100147.895000", "100151.842500", "100148.002500", "100151.952500", "100148.112500", "100152.062500", "100148.222500", "100152.172500", "100148.332500", "100152.282500", "100148.442500", "100152.392500", "100148.552500", "100152.502500", "100148.662500", "100152.612500", "100148.772500", "100152.720000", "100148.882500", "100152.830000", "100148.990000", "100152.940000", "100149.100000", "100153.050000", "100149.210000", "100153.160000", "100149.320000", "100153.270000", "100149.430000", "100153.380000", "100149.540000", "100153.490000", "100149.650000", "100153.600000", "100149.760000", "100153.707500", "100149.870000", "100153.817500", "100149.977500", "100157.787500", "100153.947500", "100157.897500", "100154.057500", "100158.007500", "100154.167500", "100158.117500", "100154.277500", "100158.227500", "100154.387500", "100158.337500", "100154.497500", "100158.447500", "100154.607500", "100158.555000", "100154.717500", "100158.665000", "100154.825000", "100158.775000", "100154.935000", "100158.885000", "100155.045000", "100158.995000", "100155.155000", "100159.105000", "100155.265000", "100159.215000", "100155.375000", "100159.325000", "100155.485000", "100159.435000", "100155.595000", "100159.542500", "100155.702500", "100159.652500", "100155.812500", "100159.762500", "100155.922500", "100159.872500", "100156.032500", "100159.982500", "100156.142500", "100200.092500", "100156.252500", "100200.202500", "100156.362500", "100200.312500", "100156.472500", "100200.420000", "100156.582500", "100200.530000", "100156.690000", "100200.640000", "100156.800000", "100200.750000", "100156.910000", "100200.860000", "100157.020000", "100200.970000", "100157.130000", "100201.080000", "100157.240000", "100201.190000", "100157.350000", "100201.300000", "100157.460000", "100201.407500", "100157.570000", "100201.517500", "100157.677500", "100205.487500", "100201.647500", "100205.597500", "100201.757500", "100205.707500", "100201.867500", "100205.817500", "100201.977500", "100205.927500", "100202.087500", "100206.037500", "100202.197500", "100206.147500", "100202.307500", "100206.255000", "100202.417500", "100206.365000", "100202.525000", "100206.475000", "100202.635000", "100206.585000", "100202.745000", "100206.695000", "100202.855000", "100206.805000", "100202.965000", "100206.915000", "100203.075000", "100207.025000", "100203.185000", "100207.135000", "100203.295000", "100207.242500", "100203.402500", "100207.352500", "100203.512500", "100207.462500", "100203.622500", "100207.572500", "100203.732500", "100207.682500", "100203.842500", "100207.792500", "100203.952500", "100207.902500", "100204.062500", "100208.012500", "100204.172500", "100208.120000", "100204.282500", "100208.230000", "100204.390000", "100208.340000", "100204.500000", "100208.450000", "100204.610000", "100208.560000", "100204.720000", "100208.670000", "100204.830000", "100208.780000", "100204.940000", "100208.890000", "100205.050000", "100209.000000", "100205.160000", "100209.107500", "100205.270000", "100209.217500", "100205.377500", "100213.187500", "100209.347500", "100213.297500", "100209.457500", "100213.407500", "100209.567500", "100213.517500", "100209.677500", "100213.627500", "100209.787500", "100213.737500", "100209.897500", "100213.847500", "100210.007500", "100213.955000", "100210.117500", "100214.065000", "100210.225000", "100214.175000", "100210.335000", "100214.285000", "100210.445000", "100214.395000", "100210.555000", "100214.505000", "100210.665000", "100214.615000", "100210.775000", "100214.725000", "100210.885000", "100214.835000", "100210.995000", "100214.942500", "100211.102500", "100215.052500", "100211.21