{
  "AcquisitionMatrixPE": 122,
  "AcquisitionNumber": 1,
  "AcquisitionTime": "10:03:58.465000",
  "BandwidthPerPixelPhaseEncode": 27.785,
  "BaseResolution": 122,
  "BodyPartExamined": "BRAIN",
  "CoilCombinationMethod": "Adaptive Combine",
  "ConsistencyInfo": "N4_VE11C_LATEST_20160120",
  "ConversionSoftware": "dcm2niix",
  "ConversionSoftwareVersion": "v1.0.20220720",
  "DerivedVendorReportedEchoSpacing": 0.000590011,
  "DeviceSerialNumber": "66112",
  "DiffusionScheme": "Monopolar",
  "DwellTime": 2e-06,
  "EchoTime": 0.068,
  "EchoTrainLength": 61,
  "EffectiveEchoSpacing": 0.000295005,
  "FlipAngle": 90,
  "HeudiconvVersion": "0.13.1",
  "ImageOrientationPatientDICOM": [0.984285, -0.176565, 0.00288307, 0.167363, 0.937947, 0.303718],
  "ImageOrientationText": "Tra>Cor(17.4)>Sag(3.2)",
  "ImageType": [
    "ORIGINAL",
    "PRIMARY",
    "DIFFUSION",
    "NONE",
    "ND",
    "NORM"
],
  "ImagingFrequency": 123.252,
  "InPlanePhaseEncodingDirectionDICOM": "COL",
  "InstitutionAddress": "Maynard 3,Hanover,NH,US,03755",
  "InstitutionName": "Dartmouth College - PBS",
  "InstitutionalDepartmentName": "Department",
  "MRAcquisitionType": "2D",
  "MagneticFieldStrength": 3,
  "Manufacturer": "Siemens",
  "ManufacturersModelName": "Prisma",
  "Modality": "MR",
  "MultibandAccelerationFactor": 4,
  "NonlinearGradientCorrection": false,
  "ParallelReductionFactorInPlane": 2,
  "PartialFourier": 1,
  "PatientPosition": "HFS",
  "PercentPhaseFOV": 100,
  "PercentSampling": 100,
  "PhaseEncodingDirection": "j-",
  "PhaseEncodingSteps": 122,
  "PhaseResolution": 1,
  "PixelBandwidth": 2050,
  "ProcedureStepDescription": "dbic^QA",
  "ProtocolName": "dwi_acq-DTI-30-p2-s4",
  "PulseSequenceDetails": "%SiemensSeq%\\ep2d_diff",
  "ReceiveCoilActiveElements": "HEA;HEP",
  "ReceiveCoilName": "Head_32",
  "ReconMatrixPE": 122,
  "RefLinesPE": 38,
  "RepetitionTime": 3.6,
  "SAR": 0.161081,
  "ScanOptions": "FS",
  "ScanningSequence": "EP",
  "SequenceName": "*ep_b0",
  "SequenceVariant": "SK\\SP",
  "SeriesDescription": "dwi_acq-DTI-30-p2-s4",
  "SeriesNumber": 9,
  "ShimSetting": [4144, -7688, -7520, 266, -72, -133, -32, 56],
  "SliceThickness": 2,
  "SliceTiming": [2.58594, 0, 1.78906, 0.19531, 1.98438, 0.39844, 2.1875, 0.59375, 2.38281, 0.99219, 2.78125, 1.1875, 2.97656, 1.39062, 3.17969, 1.58594, 3.375, 0.78906, 2.58594, 0, 1.78906, 0.19531, 1.98438, 0.39844, 2.1875, 0.59375, 2.38281, 0.99219, 2.78125, 1.1875, 2.97656, 1.39062, 3.17969, 1.58594, 3.375, 0.78906, 2.58594, 0, 1.78906, 0.19531, 1.98438, 0.39844, 2.1875, 0.59375, 2.38281, 0.99219, 2.78125, 1.1875, 2.97656, 1.39062, 3.17969, 1.58594, 3.375, 0.78906, 2.58594, 0, 1.78906, 0.19531, 1.98438, 0.39844, 2.1875, 0.59375, 2.38281, 0.99219, 2.78125, 1.1875, 2.97656, 1.39062, 3.17969, 1.58594, 3.375, 0.78906],
  "SoftwareVersions": "syngo MR E11",
  "SpacingBetweenSlices": 2,
  "SpoilingState": true,
  "StationName": "AWP66112",
  "TotalReadoutTime": 0.0356956,
  "TxRefAmp": 232.243,
  "dcmmeta_affine": [
    [-1.9362980127334595, 0.3292386531829834, 0.11266016960144043, 93.4369125366211],
    [0.34734058380126953, 1.8451423645019531, 0.5969257354736328, -152.66183471679688],
    [0.005671609193086624, -0.5974773168563843, 1.905517578125, -28.299102783203125],
    [0.0, 0.0, 0.0, 1.0]
],
  "dcmmeta_reorient_transform": [
    [0.0, -1.0, 0.0, 121.0],
    [1.0, 0.0, 0.0, 0.0],
    [0.0, 0.0, -1.0, 71.0],
    [0.0, 0.0, 0.0, 1.0]
],
  "dcmmeta_shape": [122, 122, 72, 31],
  "dcmmeta_slice_dim": 2,
  "dcmmeta_version": 0.6,
  "global": {
    "const": {
      "AccessionNumber": "qa",
      "AcquisitionMatrix": [122, 0, 0, 122],
      "AngioFlag": "N",
      "BitsAllocated": 16,
      "BitsStored": 12,
      "BodyPartExamined": "BRAIN",
      "Columns": 122,
      "EchoNumbers": 1,
      "EchoTime": 68.0,
      "EchoTrainLength": 61,
      "FlipAngle": 90.0,
      "HighBit": 11,
      "ImageOrientationPatient": [0.98428479722997, -0.1765647922453, 0.00288306804301, 0.16736298388648, 0.93794735144999, 0.30371762795821],
      "ImageType": [
        "ORIGINAL",
        "PRIMARY",
        "DIFFUSION",
        "NONE",
        "ND",
        "NORM"
],
      "ImagedNucleus": "1H",
      "ImagingFrequency": 123.252449,
      "InPlanePhaseEncodingDirection": "COL",
      "MRAcquisitionType": "2D",
      "MagneticFieldStrength": 3.0,
      "Manufacturer": "SIEMENS",
      "ManufacturerModelName": "Prisma",
      "Modality": "MR",
      "NumberOfAverages": 1.0,
      "NumberOfPhaseEncodingSteps": 122,
      "PercentPhaseFieldOfView": 100.0,
      "PercentSampling": 100.0,
      "PerformedProcedureStepStartTime": "094401.044000",
      "PhotometricInterpretation": "MONOCHROME2",
      "PixelBandwidth": 2050.0,
      "PixelRepresentation": 0,
      "PixelSpacing": [1.9672131538391, 1.9672131538391],
      "ProtocolName": "dwi_acq-DTI-30-p2-s4",
      "RepetitionTime": 3600.0,
      "Rows": 122,
      "SAR": 0.1610812467345,
      "SamplesPerPixel": 1,
      "ScanOptions": "FS",
      "ScanningSequence": "EP",
      "SequenceVariant": [
        "SK",
        "SP"
],
      "SeriesDescription": "dwi_acq-DTI-30-p2-s4",
      "SeriesNumber": 9,
      "SeriesTime": "100407.147000",
      "SliceThickness": 2.0,
      "SmallestImagePixelValue": 0,
      "SoftwareVersions": "syngo MR E11",
      "SpacingBetweenSlices": 2.0,
      "SpecificCharacterSet": "ISO_IR 100",
      "StudyID": "40",
      "StudyTime": "094400.955000",
      "TransmitCoilName": "Body",
      "VariableFlipAngleFlag": "N",
      "WindowCenterWidthExplanation": "Algo1",
      "dBdt": 0.0},
    "slices": {
      "AcquisitionTime": ["100358.465000", "100355.880000", "100357.670000", "100356.080000", "100357.870000", "100356.277500", "100358.067500", "100356.477500", "100358.267500", "100356.875000", "100358.665000", "100357.072500", "100358.862500", "100357.272500", "100359.062500", "100357.472500", "100359.260000", "100356.675000", "100358.465000", "100355.880000", "100357.670000", "100356.080000", "100357.870000", "100356.277500", "100358.067500", "100356.477500", "100358.267500", "100356.875000", "100358.665000", "100357.072500", "100358.862500", "100357.272500", "100359.062500", "100357.472500", "100359.260000", "100356.675000", "100358.465000", "100355.880000", "100357.670000", "100356.080000", "100357.870000", "100356.277500", "100358.067500", "100356.477500", "100358.267500", "100356.875000", "100358.665000", "100357.072500", "100358.862500", "100357.272500", "100359.062500", "100357.472500", "100359.260000", "100356.675000", "100358.465000", "100355.880000", "100357.670000", "100356.080000", "100357.870000", "100356.277500", "100358.067500", "100356.477500", "100358.267500", "100356.875000", "100358.665000", "100357.072500", "100358.862500", "100357.272500", "100359.062500", "100357.472500", "100359.260000", "100356.675000", "100402.065000", "100359.480000", "100401.270000", "100359.680000", "100401.470000", "100359.877500", "100401.667500", "100400.077500", "100401.867500", "100400.475000", "100402.265000", "100400.672500", "100402.462500", "100400.872500", "100402.662500", "100401.072500", "100402.860000", "100400.275000", "100402.065000", "100359.480000", "100401.270000", "100359.680000", "100401.470000", "100359.877500", "100401.667500", "100400.077500", "100401.867500", "100400.475000", "100402.265000", "100400.672500", "100402.462500", "100400.872500", "100402.662500", "100401.072500", "100402.860000", "100400.275000", "100402.065000", "100359.480000", "100401.270000", "100359.680000", "100401.470000", "100359.877500", "100401.667500", "100400.077500", "100401.867500", "100400.475000", "100402.265000", "100400.672500", "100402.462500", "100400.872500", "100402.662500", "100401.072500", "100402.860000", "100400.275000", "100402.065000", "100359.480000", "100401.270000", "100359.680000", "100401.470000", "100359.877500", "100401.667500", "100400.077500", "100401.867500", "100400.475000", "100402.265000", "100400.672500", "100402.462500", "100400.872500", "100402.662500", "100401.072500", "100402.860000", "100400.275000", "100405.665000", "100403.080000", "100404.870000", "100403.280000", "100405.070000", "100403.477500", "100405.267500", "100403.677500", "100405.467500", "100404.075000", "100405.865000", "100404.272500", "100406.062500", "100404.472500", "100406.262500", "100404.672500", "100406.460000", "100403.875000", "100405.665000", "100403.080000", "100404.870000", "100403.280000", "100405.070000", "100403.477500", "100405.267500", "100403.677500", "100405.467500", "100404.075000", "100405.865000", "100404.272500", "100406.062500", "100404.472500", "100406.262500", "100404.672500", "100406.460000", "100403.875000", "100405.665000", "100403.080000", "100404.870000", "100403.280000", "100405.070000", "100403.477500", "100405.267500", "100403.677500", "100405.467500", "100404.075000", "100405.865000", "100404.272500", "100406.062500", "100404.472500", "100406.262500", "100404.672500", "100406.460000", "100403.875000", "100405.665000", "100403.080000", "100404.870000", "100403.280000", "100405.070000", "100403.477500", "100405.267500", "100403.677500", "100405.467500", "100404.075000", "100405.865000", "100404.272500", "100406.062500", "100404.472500", "100406.262500", "100404.672500", "100406.460000", "100403.875000", "100409.265000", "100406.680000", "100408.470000", "100406.880000", "100408.670000", "100407.077500", "100408.867500", "100407.277500", "100409.067500", "100407.675000", "100409.465000", "100407.872500", "100409.662500", "100408.072500", "100409.862500", "100408.272500", "100410.060000", "100407.475000", "100409.265000", "100406.680000", "100408.470000", "100406.880000", "100408.670000", "100407.077500", "100408.867500", "100407.277500", "100409.067500", "100407.675000", "100409.465000", "100407.872500", "100409.662500", "100408.072500", "100409.862500", "100408.272500", "100410.060000", "100407.475000", "100409.265000", "100406.680000", "100408.470000", "100406.880000", "100408.670000", "100407.077500", "100408.867500", "100407.277500", "100409.067500", "100407.675000", "100409.465000", "100407.872500", "100409.662500", "100408.072500", "100409.862500", "100408.272500", "100410.060000", "100407.475000", "100409.265000", "100406.680000", "100408.470000", "100406.880000", "100408.670000", "100407.077500", "100408.867500", "100407.277500", "100409.067500", "100407.675000", "100409.465000", "100407.872500", "100409.662500", "100408.072500", "100409.862500", "100408.272500", "100410.060000", "100407.475000", "100412.865000", "100410.280000", "100412.070000", "100410.480000", "100412.270000", "100410.677500", "100412.467500", "100410.877500", "100412.667500", "100411.275000", "100413.065000", "100411.472500", "100413.262500", "100411.672500", "100413.462500", "100411.872500", "100413.660000", "100411.075000", "100412.865000", "100410.280000", "100412.070000", "100410.480000", "100412.270000", "100410.677500", "100412.467500", "100410.877500", "100412.667500", "100411.275000", "100413.065000", "100411.472500", "100413.262500", "100411.672500", "100413.462500", "100411.872500", "100413.660000", "100411.075000", "100412.865000", "100410.280000", "100412.070000", "100410.480000", "100412.270000", "100410.677500", "100412.467500", "100410.877500", "100412.667500", "100411.275000", "100413.065000", "100411.472500", "100413.262500", "100411.672500", "100413.462500", "100411.872500", "100413.660000", "100411.075000", "100412.865000", "100410.280000", "100412.070000", "100410.480000", "100412.270000", "100410.677500", "100412.467500", "100410.877500", "100412.667500", "100411.275000", "100413.065000", "100411.472500", "100413.262500", "100411.672500", "100413.462500", "100411.872500", "100413.660000", "100411.075000", "100416.465000", "100413.880000", "100415.670000", "100414.080000", "100415.870000", "100414.277500", "100416.067500", "100414.477500", "100416.267500", "100414.875000", "100416.665000", "100415.072500", "100416.862500", "100415.272500", "100417.062500", "100415.472500", "100417.260000", "100414.675000", "100416.465000", "100413.880000", "100415.670000", "100414.080000", "100415.870000", "100414.277500", "100416.067500", "100414.477500", "100416.267500", "100414.875000", "100416.665000", "100415.072500", "100416.862500", "100415.272500", "100417.062500", "100415.472500", "100417.260000", "100414.675000", "100416.465000", "100413.880000", "100415.670000", "100414.080000", "100415.870000", "100414.277500", "100416.067500", "100414.477500", "100416.267500", "100414.875000", "100416.665000", "100415.072500", "100416.862500", "100415.272500", "100417.062500", "100415.472500", "100417.260000", "100414.675000", "100416.465000", "100413.880000", "100415.670000", "100414.080000", "100415.870000", "100414.277500", "100416.067500", "100414.477500", "100416.267500", "100414.875000", "100416.665000", "100415.072500", "100416.862500", "100415.272500", "100417.062500", "100415.472500", "100417.260000", "100414.675000", "100420.065000", "100417.480000", "100419.270000", "100417.680000", "100419.470000", "100417.877500", "100419.667500", "100418.077500", "100419.867500", "100418.475000", "100420.265000", "100418.672500", "100420.462500", "100418.872500", "100420.662500", "100419.072500", "100420.860000", "100418.275000", "100420.065000", "100417.480000", "100419.270000", "100417.680000", "100419.470000", "100417.877500", "100419.667500", "100418.077500", "100419.867500", "100418.475000", "100420.265000", "100418.672500", "100420.462500", "100418.872500", "100420.662500", "100419.072500", "100420.860000", "100418.275000", "100420.065000", "100417.480000", "100419.270000", "100417.680000", "100419.470000", "100417.877500", "100419.667500", "100418.077500", "100419.867500", "100418.475000", "100420.265000", "100418.672500", "100420.462500", "100418.872500", "100420.662500", "100419.072500", "100420.860000", "100418.275000", "100420.065000", "100417.480000", "100419.270000", "100417.680000", "100419.470000", "100417.877500", "100419.667500", "100418.077500", "100419.867500", "100418.475000", "100420.265000", "100418.672500", "100420.462500", "100418.872500", "100420.662500", "100419.072500", "100420.860000", "100418.275000", "100423.665000", "100421.080000", "100422.870000", "100421.280000", "100423.070000", "100421.477500", "100423.267500", "100421.677500", "100423.467500", "100422.075000", "100423.865000", "100422.272500", "100424.062500", "100422.472500", "100424.262500", "100422.672500", "100424.460000", "100421.875000", "100423.665000", "100421.080000", "100422.870000", "100421.280000", "100423.070000", "100421.477500", "100423.267500", "100421.677500", "100423.467500", "100422.075000", "100423.865000", "100422.272500", "100424.062500", "100422.472500", "100424.262500", "100422.672500", "100424.460000", "100421.875000", "100423.665000", "100421.080000", "100422.870000", "100421.280000", "100423.070000", "100421.477500", "100423.267500", "100421.677500", "100423.467500", "100422.075000", "100423.865000", "100422.272500", "100424.062500", "100422.472500", "100424.262500", "100422.672500", "100424.460000", "100421.875000", "100423.665000", "100421.080000", "100422.870000", "100421.280000", "100423.070000", "100421.477500", "100423.267500", "100421.677500", "100423.467500", "100422.075000", "100423.865000", "100422.272500", "100424.062500", "100422.472500", "100424.262500", "100422.672500", "100424.460000", "100421.875000", "100427.265000", "100424.680000", "100426.470000", "100424.880000", "100426.670000", "100425.077500", "100426.867500", "100425.277500", "100427.067500", "100425.675000", "100427.465000", "100425.872500", "100427.662500", "100426.072500", "100427.862500", "100426.272500", "100428.060000", "100425.475000", "100427.265000", "100424.680000", "100426.470000", "100424.880000", "100426.670000", "100425.077500", "100426.867500", "100425.277500", "100427.067500", "100425.675000", "100427.465000", "100425.872500", "100427.662500", "100426.072500", "100427.862500", "100426.272500", "100428.060000", "100425.475000", "100427.265000", "100424.680000", "100426.470000", "100424.880000", "100426.670000", "100425.077500", "100426.867500", "100425.277500", "100427.067500", "100425.675000", "100427.465000", "100425.872500", "100427.662500", "100426.072500", "100427.862500", "100426.272500", "100428.060000", "100425.475000", "100427.265000", "100424.680000", "100426.470000", "100424.880000", "100426.670000", "100425.077500", "100426.867500", "100425.277500", "100427.067500", "100425.675000", "100427.465000", "100425.872500", "100427.662500", "100426.072500", "100427.862500", "100426.272500", "100428.060000", "100425.475000", "100430.865000", "100428.280000", "100430.070000", "100428.480000", "100430.270000", "100428.677500", "100430.467500", "100428.877500", "100430.667500", "100429.275000", "100431.065000", "100429.472500", "100431.262500", "100429.672500", "100431.462500", "100429.872500", "100431.660000", "100429.075000", "100430.865000", "100428.280000", "100430.070000", "100428.480000", "100430.270000", "100428.677500", "100430.467500", "100428.877500", "100430.667500", "100429.275000", "100431.065000", "100429.472500", "100431.262500", "100429.672500", "100431.462500", "100429.872500", "100431.660000", "100429.075000", "100430.865000", "100428.280000", "100430.070000", "100428.480000", "100430.270000", "100428.677500", "100430.467500", "100428.877500", "100430.667500", "100429.275000", "100431.065000", "100429.472500", "100431.262500", "100429.672500", "100431.462500", "100429.872500", "100431.660000", "100429.075000", "100430.865000", "100428.280000", "100430.070000", "100428.480000", "100430.270000", "100428.677500", "100430.467500", "100428.877500", "100430.667500", "100429.275000", "100431.065000", "100429.472500", "100431.262500", "100429.672500", "100431.462500", "100429.872500", "100431.660000", "100429.075000", "100434.465000", "100431.880000", "100433.670000", "100432.080000", "100433.870000", "100432.277500", "100434.067500", "100432.477500", "100434.267500", "100432.875000", "100434.665000", "100433.072500", "100434.862500", "100433.272500", "100435.062500", "100433.472500", "100435.260000", "100432.675000", "100434.465000", "100431.880000", "100433.670000", "100432.080000", "100433.870000", "100432.277500", "100434.067500", "100432.477500", "100434.267500", "100432.875000", "100434.665000", "100433.072500", "100434.862500", "100433.272500", "100435.062500", "100433.472500", "100435.260000", "100432.675000", "100434.465000", "100431.880000", "100433.670000", "100432.080000", "100433.870000", "100432.277500", "100434.067500", "100432.477500", "100434.267500", "100432.875000", "100434.665000", "100433.072500", "100434.862500", "100433.272500", "100435.062500", "100433.472500", "100435.260000", "100432.675000", "100434.465000", "100431.880000", "100433.670000", "100432.080000", "100433.870000", "100432.277500", "100434.067500", "100432.477500", "100434.267500", "100432.875000", "100434.665000", "100433.072500", "100434.862500", "100433.272500", "100435.062500", "100433.472500", "100435.260000", "100432.675000", "100438.065000", "100435.480000", "100437.270000", "100435.680000", "100437.470000", "100435.877500", "100437.667500", "100436.077500", "100437.867500", "100436.475000", "100438.265000", "100436.672500", "100438.462500", "100436.872500", "100438.662500", "100437.072500", "100438.860000", "100436.275000", "100438.065000", "100435.480000", "100437.270000", "100435.680000", "100437.470000", "100435.877500", "100437.667500", "100436.077500", "100437.867500", "100436.475000", "100438.265000", "100436.672500", "100438.462500", "100436.872500", "100438.662500", "100437.072500", "100438.860000", "100436.275000", "100438.065000", "100435.480000", "100437.270000", "100435.680000", "100437.470000", "100435.877500", "100437.667500", "100436.077500", "100437.867500", "100436.475000", "100438.265000", "100436.672500", "100438.462500", "100436.872500", "100438.662500", "100437.072500", "100438.860000", "100436.275000", "100438.065000", "100435.480000", "100437.270000", "100435.680000", "100437.470000", "100435.877500", "100437.667500", "100436.077500", "100437.867500", "100436.475000", "100438.265000", "100436.672500", "100438.462500", "100436.872500", "100438.662500", "100437.072500", "100438.860000", "100436.275000", "100441.665000", "100439.080000", "100440.870000", "100439.280000", "100441.070000", "100439.477500", "100441.267500", "100439.677500", "100441.467500", "100440.075000", "100441.865000", "100440.272500", "100442.062500", "100440.472500", "100442.262500", "100440.672500", "100442.460000", "100439.875000", "100441.665000", "100439.080000", "100440.870000", "100439.280000", "100441.070000", "100439.477500", "100441.267500", "100439.677500", "100441.467500", "100440.075000", "100441.865000", "100440.272500", "100442.062500", "100440.472500", "100442.262500", "100440.672500", "100442.460000", "100439.875000", "100441.665000", "100439.080000", "100440.870000", "100439.280000", "100441.070000", "100439.477500", "100441.267500", "100439.677500", "100441.467500", "100440.075000", "100441.865000", "100440.272500", "100442.062500", "100440.472500", "100442.262500", "100440.672500", "100442.460000", "100439.875000", "100441.665000", "100439.080000", "100440.870000", "100439.280000", "100441.070000", "100439.477500", "100441.267500", "100439.677500", "100441.467500", "100440.075000", "100441.865000", "100440.272500", "100442.062500", "100440.472500", "100442.262500", "100440.672500", "100442.460000", "100439.875000", "100445.265000", "100442.680000", "100444.470000", "100442.880000", "100444.670000", "100443.077500", "100444.867500", "100443.277500", "100445.067500", "100443.675000", "100445.465000", "100443.872500", "100445.662500", "100444.072500", "100445.862500", "100444.272500", "100446.060000", "100443.475000", "100445.265000", "100442.680000", "100444.470000", "100442.880000", "100444.670000", "100443.077500", "100444.867500", "100443.277500", "100445.067500", "100443.675000", "100445.465000", "100443.872500", "100445.662500", "100444.072500", "100445.862500", "100444.272500", "100446.060000", "100443.475000", "100445.265000", "100442.680000", "100444.470000", "100442.880000", "100444.670000", "100443.077500", "100444.867500", "100443.277500", "100445.067500", "100443.675000", "100445.465000", "100443.872500", "100445.662500", "100444.072500", "100445.862500", "100444.272500", "100446.060000", "100443.475000", "100445.265000", "100442.680000", "100444.470000", "100442.880000", "100444.670000", "100443.077500", "100444.867500", "100443.277500", "100445.067500", "100443.675000", "100445.465000", "100443.872500", "100445.662500", "100444.072500", "100445.862500", "100444.272500", "100446.060000", "100443.475000", "100448.865000", "100446.280000", "100448.070000", "100446.480000", "100448.270000", "100446.677500", "100448.467500", "100446.877500", "100448.667500", "100447.275000", "100449.065000", "100447.472500", "100449.262500", "100447.672500", "100449.462500", "100447.872500", "100449.660000", "100447.075000", "100448.865000", "100446.280000", "100448.070000", "100446.480000", "100448.270000", "100446.677500", "100448.467500", "100446.877500", "100448.667500", "100447.275000", "100449.065000", "100447.472500", "100449.262500", "100447.672500", "100449.462500", "100447.872500", "100449.660000", "100447.075000", "100448.865000", "100446.280000", "100448.070000", "100446.480000", "100448.270000", "100446.677500", "100448.467500", "100446.877500", "100448.667500", "100447.275000", "100449.065000", "100447.472500", "100449.262500", "100447.672500", "100449.462500", "100447.872500", "100449.660000", "100447.075000", "100448.865000", "100446.280000", "100448.070000", "100446.480000", "100448.270000", "100446.677500", "100448.467500", "100446.877500", "100448.667500", "100447.275000", "100449.065000", "100447.472500", "100449.262500", "100447.672500", "100449.462500", "100447.872500", "100449.660000", "100447.075000", "100452.465000", "100449.880000", "100451.670000", "100450.080000", "100451.870000", "100450.277500", "100452.067500", "100450.477500", "100452.267500", "100450.875000", "100452.665000", "100451.072500", "100452.862500", "100451.272500", "100453.062500", "100451.472500", "100453.260000", "100450.675000", "100452.465000", "100449.880000", "100451.670000", "100450.080000", "100451.870000", "100450.277500", "100452.067500", "100450.477500", "100452.267500", "100450.875000", "100452.665000", "100451.072500", "100452.862500", "100451.272500", "100453.062500", "100451.472500", "100453.260000", "100450.675000", "100452.465000", "100449.880000", "100451.670000", "100450.080000", "100451.870000", "100450.277500", "100452.067500", "100450.477500", "100452.267500", "100450.875000", "100452.665000", "100451.072500", "100452.862500", "100451.272500", "100453.062500", "100451.472500", "100453.260000", "100450.675000", "100452.465000", "100449.880000", "100451.670000", "100450.080000", "100451.870000", "100450.277500", "100452.067500", "100450.477500", "100452.267500", "100450.875000", "100452.665000", "100451.072500", "100452.862500", "100451.272500", "100453.062500", "100451.472500", "100453.260000", "100450.675000", "100456.065000", "100453.480000", "100455.270000", "100453.680000", "100455.470000", "100453.877500", "100455.667500", "100454.077500", "100455.867500", "100454.475000", "100456.265000", "100454.672500", "100456.462500", "100454.872500", "100456.662500", "100455.072500", "100456.860000", "100454.275000", "100456.065000", "100453.480000", "100455.270000", "100453.680000", "100455.470000", "100453.877500", "100455.667500", "100454.077500", "100455.867500", "100454.475000", "100456.265000", "100454.672500", "100456.462500", "100454.872500", "100456.662500", "100455.072500", "100456.860000", "100454.275000", "100456.065000", "100453.480000", "100455.270000", "100453.680000", "100455.470000", "100453.877500", "100455.667500", "100454.077500", "100455.867500", "100454.475000", "100456.265000", "100454.672500", "100456.462500", "100454.872500", "100456.662500", "100455.072500", "100456.860000", "100454.275000", "100456.065000", "100453.480000", "100455.270000", "100453.680000", "100455.470000", "100453.877500", "100455.667500", "100454.077500", "100455.867500", "100454.475000", "100456.265000", "100454.672500", "100456.462500", "100454.872500", "100456.662500", "100455.072500", "100456.860000", "100454.275000", "100459.665000", "100457.080000", "100458.870000", "100457.280000", "100459.070000", "100457.477500", "100459.267500", "100457.677500", "100459.467500", "100458.075000", "100459.865000", "100458.272500", "100500.062500", "100458.472500", "100500.262500", "100458.672500", "100500.460000", "100457.875000", "100459.665000", "100457.080000", "100458.870000", "100457.280000", "100459.070000", "100457.477500", "100459.267500", "100457.677500", "100459.467500", "100458.075000", "100459.865000", "100458.272500", "100500.062500", "100458.472500", "100500.262500", "100458.672500", "100500.460000", "100457.875000", "100459.665000", "100457.080000", "100458.870000", "100457.280000", "100459.070000", "100457.477500", "100459.267500", "100457.677500", "100459.467500", "100458.075000", "100459.865000", "100458.272500", "100500.062500", "100458.472500", "100500.262500", "100458.672500", "100500.460000", "100457.875000", "100459.665000", "100457.080000", "100458.870000", "100457.280000", "100459.070000", "100457.477500", "100459.267500", "100457.677500", "100459.467500", "100458.075000", "100459.865000", "100458.272500", "100500.062500", "100458.472500", "100500.262500", "100458.672500", "100500.460000", "100457.875000", "100503.265000", "100500.680000", "100502.470000", "100500.880000", "100502.670000", "100501.077500", "100502.867500", "100501.277500", "100503.067500", "100501.675000", "100503.465000", "100501.872500", "100503.662500", "100502.072500", "100503.862500", "100502.272500", "100504.060000", "100501.475000", "100503.265000", "100500.680000", "100502.470000", "100500.880000", "100502.670000", "100501.077500", "100502.867500", "100501.277500", "100503.067500", "100501.675000", "100503.465000", "100501.872500", "100503.662500", "100502.072500", "100503.862500", "100502.272500", "100504.060000", "100501.475000", "100503.265000", "100500.680000", "100502.470000", "100500.880000", "100502.670000", "100501.077500", "100502.867500", "100501.277500", "100503.067500", "100501.675000", "100503.465000", "100501.872500", "100503.662500", "100502.072500", "100503.862500", "100502.272500", "100504.060000", "100501.475000", "100503.265000", "100500.680000", "100502.470000", "100500.880000", "100502.670000", "100501.077500", "100502.867500", "100501.277500", "100503.067500", "100501.675000", "100503.465000", "100501.872500", "100503.662500", "100502.072500", "100503.862500", "100502.272500", "100504.060000", "100501.475000", "100506.865000", "100504.280000", "100506.070000", "100504.480000", "100506.270000", "100504.677500", "100506.467500", "100504.877500", "100506.667500", "100505.275000", "100507.065000", "100505.472500", "100507.262500", "100505.672500", "100507.462500", "100505.872500", "100507.660000", "100505.075000", "100506.865000", "100504.280000", "100506.070000", "100504.480000", "100506.270000", "100504.677500", "100506.467500", "100504.877500", "100506.667500", "100505.275000", "100507.065000", "100505.472500", "100507.262500", "100505.672500", "100507.462500", "100505.872500", "100507.660000", "100505.075000", "100506.865000", "100504.280000", "100506.070000", "100504.480000", "100506.270000", "100504.677500", "100506.467500", "100504.877500", "100506.667500", "100505.275000", "100507.065000", "100505.472500", "100507.262500", "100505.672500", "100507.462500", "100505.872500", "100507.660000", "100505.075000", "100506.865000", "100504.280000", "100506.070000", "100504.480000", "100506.270000", "100504.677500", "100506.467500", "100504.877500", "100506.667500", "100505.275000", "100507.065000", "100505.472500", "100