{
  "AcquisitionMatrixPE": 80,
  "AcquisitionNumber": 1,
  "AcquisitionTime": "09:02:58.165000",
  "BandwidthPerPixelPhaseEncode": 44.643,
  "BaseResolution": 80,
  "BodyPartExamined": "BRAIN",
  "CoilCombinationMethod": "Sum of Squares",
  "ConsistencyInfo": "N4_VE11C_LATEST_20160120",
  "ConversionSoftware": "dcm2niix",
  "ConversionSoftwareVersion": "v1.0.20220720",
  "DerivedVendorReportedEchoSpacing": 0.000559998,
  "DeviceSerialNumber": "66112",
  "DwellTime": 2.7e-06,
  "EchoTime": 0.035,
  "EchoTrainLength": 39,
  "EffectiveEchoSpacing": 0.000279999,
  "FlipAngle": 90,
  "HeudiconvVersion": "0.13.1",
  "ImageOrientationPatientDICOM": [0.98624, 0.165115, 0.00827251, -0.159559, 0.937574, 0.309024],
  "ImageOrientationText": "Tra>Cor(17.8)>Sag(-2.5)",
  "ImageType": [
    "ORIGINAL",
    "PRIMARY",
    "M",
    "ND",
    "NORM",
    "MOSAIC"
],
  "ImagingFrequency": 123.252,
  "InPlanePhaseEncodingDirectionDICOM": "COL",
  "InstitutionAddress": "Maynard 3,Hanover,NH,US,03755",
  "InstitutionName": "Dartmouth College - PBS",
  "InstitutionalDepartmentName": "Department",
  "MRAcquisitionType": "2D",
  "MagneticFieldStrength": 3,
  "Manufacturer": "Siemens",
  "ManufacturersModelName": "Prisma",
  "Modality": "MR",
  "MultibandAccelerationFactor": 4,
  "NonlinearGradientCorrection": false,
  "ParallelReductionFactorInPlane": 2,
  "PartialFourier": 1,
  "PatientPosition": "HFS",
  "PercentPhaseFOV": 100,
  "PercentSampling": 100,
  "PhaseEncodingDirection": "j-",
  "PhaseEncodingSteps": 79,
  "PhaseResolution": 1,
  "PixelBandwidth": 2315,
  "ProcedureStepDescription": "dbic^QA",
  "ProtocolName": "func-bold_task-rest_acq-p2-s4-3.5mm",
  "PulseSequenceDetails": "%SiemensSeq%\\ep2d_bold",
  "ReceiveCoilActiveElements": "HEA;HEP",
  "ReceiveCoilName": "Head_32",
  "ReconMatrixPE": 80,
  "RefLinesPE": 24,
  "RepetitionTime": 2,
  "SAR": 0.0178999,
  "ScanOptions": "FS",
  "ScanningSequence": "EP",
  "SequenceName": "*epfid2d1_80",
  "SequenceVariant": "SK",
  "SeriesDescription": "func-bold_task-rest_acq-p2-s4-3.5mm",
  "SeriesNumber": 7,
  "ShimSetting": [4146, -7688, -7518, 305, -42, -238, -45, 56],
  "SliceThickness": 3.5,
  "SliceTiming": [1.485, 0, 0.99, 0.2475, 1.2375, 0.7425, 1.7325, 0.495, 1.485, 0, 0.99, 0.2475, 1.2375, 0.7425, 1.7325, 0.495, 1.485, 0, 0.99, 0.2475, 1.2375, 0.7425, 1.7325, 0.495, 1.485, 0, 0.99, 0.2475, 1.2375, 0.7425, 1.7325, 0.495],
  "SoftwareVersions": "syngo MR E11",
  "SpacingBetweenSlices": 3.99,
  "StationName": "AWP66112",
  "TaskName": "rest",
  "TotalReadoutTime": 0.0221199,
  "TxRefAmp": 230.705,
  "dcmmeta_affine": [
    [-2.95871901512146, -0.4786780774593353, -0.17264088988304138, 142.69615173339844],
    [-0.49534451961517334, 2.8127217292785645, 1.2213066816329956, -100.65202331542969],
    [0.024817543104290962, -0.9270727038383484, 3.794562339782715, -35.98910140991211],
    [0.0, 0.0, 0.0, 1.0]
],
  "dcmmeta_reorient_transform": [
    [0.0, -1.0, 0.0, 79.0],
    [1.0, 0.0, 0.0, 0.0],
    [0.0, 0.0, 1.0, 0.0],
    [0.0, 0.0, 0.0, 1.0]
],
  "dcmmeta_shape": [80, 80, 32, 200],
  "dcmmeta_slice_dim": 2,
  "dcmmeta_version": 0.6,
  "global": {
    "const": {
      "AccessionNumber": "qa",
      "AcquisitionMatrix": [80, 0, 0, 80],
      "AngioFlag": "N",
      "BitsAllocated": 16,
      "BitsStored": 12,
      "BodyPartExamined": "BRAIN",
      "Columns": 480,
      "EchoNumbers": 1,
      "EchoTime": 35.0,
      "EchoTrainLength": 39,
      "FlipAngle": 90.0,
      "HighBit": 11,
      "ImageOrientationPatient": [0.98623965468148, 0.16511483590815, 0.00827251453753, -0.1595593609976, 0.93757390550036, 0.30902424183683],
      "ImagePositionPatient": [-600.88875794743, -783.16623477177, -299.60590152801],
      "ImageType": [
        "ORIGINAL",
        "PRIMARY",
        "M",
        "ND",
        "NORM",
        "MOSAIC"
],
      "ImagedNucleus": "1H",
      "ImagingFrequency": 123.252451,
      "InPlanePhaseEncodingDirection": "COL",
      "MRAcquisitionType": "2D",
      "MagneticFieldStrength": 3.0,
      "Manufacturer": "SIEMENS",
      "ManufacturerModelName": "Prisma",
      "Modality": "MR",
      "NumberOfAverages": 1.0,
      "NumberOfPhaseEncodingSteps": 79,
      "PercentPhaseFieldOfView": 100.0,
      "PercentSampling": 100.0,
      "PerformedProcedureStepStartTime": "085021.727000",
      "PhotometricInterpretation": "MONOCHROME2",
      "PixelBandwidth": 2315.0,
      "PixelRepresentation": 0,
      "PixelSpacing": [3.0, 3.0],
      "ProtocolName": "func-bold_task-rest_acq-p2-s4-3.5mm",
      "RepetitionTime": 2000.0,
      "Rows": 480,
      "SAR": 0.01789990705932,
      "SamplesPerPixel": 1,
      "ScanOptions": "FS",
      "ScanningSequence": "EP",
      "SequenceName": "*epfid2d1_80",
      "SequenceVariant": "SK",
      "SeriesDescription": "func-bold_task-rest_acq-p2-s4-3.5mm",
      "SeriesNumber": 7,
      "SeriesTime": "090357.250000",
      "SliceLocation": -71.209295544533,
      "SliceThickness": 3.5,
      "SmallestImagePixelValue": 0,
      "SoftwareVersions": "syngo MR E11",
      "SpacingBetweenSlices": 3.9899998934118,
      "SpecificCharacterSet": "ISO_IR 100",
      "StudyID": "30",
      "StudyTime": "085021.641000",
      "TransmitCoilName": "Body",
      "VariableFlipAngleFlag": "N",
      "WindowCenterWidthExplanation": "Algo1",
      "dBdt": 0.0},
    "slices": {}
  },
  "time": {
    "samples": {
      "AcquisitionNumber": [1, 2, 3, 4, 5, 6, 7, 8, 9, 10, 11, 12, 13, 14, 15, 16, 17, 18, 19, 20, 21, 22, 23, 24, 25, 26, 27, 28, 29, 30, 31, 32, 33, 34, 35, 36, 37, 38, 39, 40, 41, 42, 43, 44, 45, 46, 47, 48, 49, 50, 51, 52, 53, 54, 55, 56, 57, 58, 59, 60, 61, 62, 63, 64, 65, 66, 67, 68, 69, 70, 71, 72, 73, 74, 75, 76, 77, 78, 79, 80, 81, 82, 83, 84, 85, 86, 87, 88, 89, 90, 91, 92, 93, 94, 95, 96, 97, 98, 99, 100, 101, 102, 103, 104, 105, 106, 107, 108, 109, 110, 111, 112, 113, 114, 115, 116, 117, 118, 119, 120, 121, 122, 123, 124, 125, 126, 127, 128, 129, 130, 131, 132, 133, 134, 135, 136, 137, 138, 139, 140, 141, 142, 143, 144, 145, 146, 147, 148, 149, 150, 151, 152, 153, 154, 155, 156, 157, 158, 159, 160, 161, 162, 163, 164, 165, 166, 167, 168, 169, 170, 171, 172, 173, 174, 175, 176, 177, 178, 179, 180, 181, 182, 183, 184, 185, 186, 187, 188, 189, 190, 191, 192, 193, 194, 195, 196, 197, 198, 199, 200],
      "AcquisitionTime": ["090258.165000", "090300.165000", "090302.165000", "090304.165000", "090306.165000", "090308.165000", "090310.165000", "090312.165000", "090314.165000", "090316.165000", "090318.165000", "090320.165000", "090322.165000", "090324.165000", "090326.165000", "090328.165000", "090330.165000", "090332.165000", "090334.165000", "090336.165000", "090338.165000", "090340.165000", "090342.165000", "090344.165000", "090346.165000", "090348.165000", "090350.165000", "090352.165000", "090354.165000", "090356.165000", "090358.165000", "090400.165000", "090402.165000", "090404.165000", "090406.165000", "090408.165000", "090410.165000", "090412.165000", "090414.165000", "090416.165000", "090418.165000", "090420.165000", "090422.165000", "090424.165000", "090426.165000", "090428.165000", "090430.165000", "090432.165000", "090434.165000", "090436.165000", "090438.165000", "090440.165000", "090442.165000", "090444.165000", "090446.165000", "090448.165000", "090450.165000", "090452.165000", "090454.165000", "090456.165000", "090458.165000", "090500.165000", "090502.165000", "090504.165000", "090506.165000", "090508.165000", "090510.165000", "090512.165000", "090514.165000", "090516.165000", "090518.165000", "090520.165000", "090522.165000", "090524.165000", "090526.165000", "090528.165000", "090530.165000", "090532.165000", "090534.165000", "090536.165000", "090538.165000", "090540.165000", "090542.165000", "090544.165000", "090546.165000", "090548.165000", "090550.165000", "090552.165000", "090554.165000", "090556.165000", "090558.165000", "090600.165000", "090602.165000", "090604.165000", "090606.165000", "090608.165000", "090610.165000", "090612.165000", "090614.165000", "090616.165000", "090618.165000", "090620.165000", "090622.165000", "090624.165000", "090626.165000", "090628.165000", "090630.165000", "090632.165000", "090634.165000", "090636.165000", "090638.165000", "090640.165000", "090642.165000", "090644.165000", "090646.165000", "090648.165000", "090650.165000", "090652.165000", "090654.165000", "090656.165000", "090658.165000", "090700.165000", "090702.165000", "090704.165000", "090706.165000", "090708.165000", "090710.165000", "090712.165000", "090714.165000", "090716.165000", "090718.165000", "090720.165000", "090722.165000", "090724.165000", "090726.165000", "090728.165000", "090730.165000", "090732.165000", "090734.165000", "090736.165000", "090738.165000", "090740.165000", "090742.165000", "090744.165000", "090746.165000", "090748.165000", "090750.165000", "090752.165000", "090754.165000", "090756.165000", "090758.165000", "090800.165000", "090802.165000", "090804.165000", "090806.165000", "090808.165000", "090810.165000", "090812.165000", "090814.165000", "090816.165000", "090818.165000", "090820.165000", "090822.165000", "090824.165000", "090826.165000", "090828.165000", "090830.165000", "090832.165000", "090834.165000", "090836.165000", "090838.165000", "090840.165000", "090842.165000", "090844.165000", "090846.165000", "090848.165000", "090850.165000", "090852.165000", "090854.165000", "090856.165000", "090858.165000", "090900.165000", "090902.165000", "090904.165000", "090906.165000", "090908.165000", "090910.165000", "090912.165000", "090914.165000", "090916.165000", "090918.165000", "090920.165000", "090922.165000", "090924.165000", "090926.165000", "090928.165000", "090930.165000", "090932.165000", "090934.165000", "090936.165000"],
      "ContentTime": ["090357.253000", "090357.257000", "090357.259000", "090357.270000", "090357.277000", "090357.280000", "090357.285000", "090357.287000", "090357.290000", "090357.293000", "090357.296000", "090357.299000", "090357.301000", "090357.304000", "090357.307000", "090357.309000", "090357.312000", "090357.314000", "090357.317000", "090357.319000", "090357.322000", "090357.324000", "090357.331000", "090357.333000", "090357.336000", "090357.338000", "090357.346000", "090357.348000", "090357.351000", "090437.248000", "090437.250000", "090437.253000", "090437.255000", "090437.258000", "090437.260000", "090437.263000", "090437.265000", "090437.268000", "090437.281000", "090437.283000", "090437.286000", "090437.288000", "090437.291000", "090437.294000", "090437.296000", "090437.299000", "090437.302000", "090437.304000", "090437.307000", "090517.247000", "090517.250000", "090517.253000", "090517.255000", "090517.258000", "090517.260000", "090517.263000", "090517.265000", "090517.276000", "090517.278000", "090517.281000", "090517.283000", "090517.286000", "090517.288000", "090517.292000", "090517.295000", "090517.303000", "090517.305000", "090517.308000", "090517.310000", "090557.248000", "090557.251000", "090557.254000", "090557.256000", "090557.259000", "090557.261000", "090557.264000", "090557.266000", "090557.269000", "090557.271000", "090557.274000", "090557.276000", "090557.279000", "090557.281000", "090557.284000", "090557.286000", "090557.289000", "090557.291000", "090557.294000", "090557.298000", "090637.248000", "090637.251000", "090637.254000", "090637.256000", "090637.259000", "090637.261000", "090637.264000", "090637.266000", "090637.269000", "090637.271000", "090637.274000", "090637.276000", "090637.279000", "090637.281000", "090637.284000", "090637.287000", "090637.289000", "090637.292000", "090637.295000", "090637.297000", "090717.247000", "090717.250000", "090717.253000", "090717.264000", "090717.267000", "090717.269000", "090717.272000", "090717.274000", "090717.277000", "090717.280000", "090717.283000", "090717.286000", "090717.288000", "090717.291000", "090717.294000", "090717.296000", "090717.299000", "090717.301000", "090717.304000", "090717.306000", "090757.248000", "090757.251000", "090757.254000", "090757.256000", "090757.259000", "090757.261000", "090757.264000", "090757.266000", "090757.269000", "090757.271000", "090757.274000", "090757.276000", "090757.279000", "090757.281000", "090757.284000", "090757.286000", "090757.289000", "090757.291000", "090757.294000", "090757.298000", "090837.249000", "090837.252000", "090837.255000", "090837.257000", "090837.260000", "090837.262000", "090837.265000", "090837.268000", "090837.270000", "090837.273000", "090837.276000", "090837.278000", "090837.281000", "090837.284000", "090837.286000", "090837.289000", "090837.291000", "090837.294000", "090837.296000", "090837.299000", "090857.249000", "090857.251000", "090857.254000", "090857.256000", "090857.259000", "090857.261000", "090857.264000", "090857.266000", "090857.269000", "090857.272000", "090937.248000", "090937.250000", "090937.253000", "090937.256000", "090937.258000", "090937.261000", "090937.263000", "090937.266000", "090937.268000", "090937.271000", "090937.273000", "090937.276000", "090937.278000", "090937.281000", "090937.283000", "090937.287000", "090937.290000", "090937.293000", "090937.295000", "090937.298000", "090937.424000"],
      "InstanceCreationTime": ["090357.253000", "090357.257000", "090357.259000", "090357.270000", "090357.277000", "090357.280000", "090357.285000", "090357.287000", "090357.290000", "090357.293000", "090357.296000", "090357.299000", "090357.301000", "090357.304000", "090357.307000", "090357.309000", "090357.312000", "090357.314000", "090357.317000", "090357.319000", "090357.322000", "090357.324000", "090357.331000", "090357.333000", "090357.336000", "090357.338000", "090357.346000", "090357.348000", "090357.351000", "090437.248000", "090437.250000", "090437.253000", "090437.255000", "090437.258000", "090437.260000", "090437.263000", "090437.265000", "090437.268000", "090437.281000", "090437.283000", "090437.286000", "090437.288000", "090437.291000", "090437.294000", "090437.296000", "090437.299000", "090437.302000", "090437.304000", "090437.307000", "090517.247000", "090517.250000", "090517.253000", "090517.255000", "090517.258000", "090517.260000", "090517.263000", "090517.265000", "090517.276000", "090517.278000", "090517.281000", "090517.283000", "090517.286000", "090517.288000", "090517.292000", "090517.295000", "090517.303000", "090517.305000", "090517.308000", "090517.310000", "090557.248000", "090557.251000", "090557.254000", "090557.256000", "090557.259000", "090557.261000", "090557.264000", "090557.266000", "090557.269000", "090557.271000", "090557.274000", "090557.276000", "090557.279000", "090557.281000", "090557.284000", "090557.286000", "090557.289000", "090557.291000", "090557.294000", "090557.298000", "090637.248000", "090637.251000", "090637.254000", "090637.256000", "090637.259000", "090637.261000", "090637.264000", "090637.266000", "090637.269000", "090637.271000", "090637.274000", "090637.276000", "090637.279000", "090637.281000", "090637.284000", "090637.287000", "090637.289000", "090637.292000", "090637.295000", "090637.297000", "090717.247000", "090717.250000", "090717.253000", "090717.264000", "090717.267000", "090717.269000", "090717.272000", "090717.274000", "090717.277000", "090717.280000", "090717.283000", "090717.286000", "090717.288000", "090717.291000", "090717.294000", "090717.296000", "090717.299000", "090717.301000", "090717.304000", "090717.306000", "090757.248000", "090757.251000", "090757.254000", "090757.256000", "090757.259000", "090757.261000", "090757.264000", "090757.266000", "090757.269000", "090757.271000", "090757.274000", "090757.276000", "090757.279000", "090757.281000", "090757.284000", "090757.286000", "090757.289000", "090757.291000", "090757.294000", "090757.298000", "090837.249000", "090837.252000", "090837.255000", "090837.257000", "090837.260000", "090837.262000", "090837.265000", "090837.268000", "090837.270000", "090837.273000", "090837.276000", "090837.278000", "090837.281000", "090837.284000", "090837.286000", "090837.289000", "090837.291000", "090837.294000", "090837.296000", "090837.299000", "090857.249000", "090857.251000", "090857.254000", "090857.256000", "090857.259000", "090857.261000", "090857.264000", "090857.266000", "090857.269000", "090857.272000", "090937.248000", "090937.250000", "090937.253000", "090937.256000", "090937.258000", "090937.261000", "090937.263000", "090937.266000", "090937.268000", "090937.271000", "090937.273000", "090937.276000", "090937.278000", "090937.281000", "090937.283000", "090937.287000", "090937.290000", "090937.293000", "090937.295000", "090937.298000", "090937.424000"],
      "InstanceNumber": [1, 2, 3, 4, 5, 6, 7, 8, 9, 10, 11, 12, 13, 14, 15, 16, 17, 18, 19, 20, 21, 22, 23, 24, 25, 26, 27, 28, 29, 30, 31, 32, 33, 34, 35, 36, 37, 38, 39, 40, 41, 42, 43, 44, 45, 46, 47, 48, 49, 50, 51, 52, 53, 54, 55, 56, 57, 58, 59, 60, 61, 62, 63, 64, 65, 66, 67, 68, 69, 70, 71, 72, 73, 74, 75, 76, 77, 78, 79, 80, 81, 82, 83, 84, 85, 86, 87, 88, 89, 90, 91, 92, 93, 94, 95, 96, 97, 98, 99, 100, 101, 102, 103, 104, 105, 106, 107, 108, 109, 110, 111, 112, 113, 114, 115, 116, 117, 118, 119, 120, 121, 122, 123, 124, 125, 126, 127, 128, 129, 130, 131, 132, 133, 134, 135, 136, 137, 138, 139, 140, 141, 142, 143, 144, 145, 146, 147, 148, 149, 150, 151, 152, 153, 154, 155, 156, 157, 158, 159, 160, 161, 162, 163, 164, 165, 166, 167, 168, 169, 170, 171, 172, 173, 174, 175, 176, 177, 178, 179, 180, 181, 182, 183, 184, 185, 186, 187, 188, 189, 190, 191, 192, 193, 194, 195, 196, 197, 198, 199, 200],
      "LargestImagePixelValue": [2072, 2066, 2071, 2074, 2067, 2072, 2071, 2069, 2071, 2076, 2069, 2072, 2069, 2067, 2072, 2073, 2073, 2065, 2072, 2067, 2074, 2071, 2073, 2073, 2069, 2069, 2071, 2070, 2072, 2076, 2072, 2068, 2073, 2070, 2072, 2066, 2072, 2072, 2071, 2072, 2073, 2070, 2067, 2070, 2066, 2071, 2069, 2071, 2067, 2074, 2069, 2065, 2068, 2071, 2065, 2065, 2069, 2072, 2075, 2067, 2066, 2067, 2070, 2070, 2075, 2073, 2074, 2069, 2069, 2071, 2069, 2071, 2069, 2071, 2067, 2067, 2067, 2066, 2069, 2077, 2072, 2069, 2072, 2071, 2070, 2073, 2075, 2075, 2069, 2064, 2065, 2073, 2068, 2069, 2075, 2072, 2069, 2067, 2070, 2074, 2073, 2073, 2072, 2070, 2068, 2075, 2072, 2071, 2067, 2073, 2068, 2069, 2069, 2074, 2067, 2076, 2069, 2069, 2069, 2068, 2072, 2073, 2074, 2074, 2078, 2072, 2066, 2068, 2067, 2070, 2065, 2069, 2065, 2070, 2068, 2068, 2070, 2069, 2066, 2066, 2068, 2067, 2073, 2073, 2075, 2070, 2074, 2069, 2068, 2067, 2066, 2072, 2067, 2069, 2063, 2068, 2068, 2065, 2072, 2068, 2070, 2066, 2072, 2068, 2068, 2068, 2070, 2074, 2070, 2067, 2070, 2071, 2065, 2066, 2066, 2069, 2067, 2068, 2068, 2062, 2069, 2067, 2067, 2066, 2069, 2065, 2066, 2066, 2070, 2065, 2067, 2065, 2070, 2067, 2069, 2070, 2069, 2070, 2068, 2071],
      "WindowCenter": [931.0, 931.0, 931.0, 931.0, 931.0, 931.0, 931.0, 931.0, 931.0, 931.0, 931.0, 931.0, 931.0, 931.0, 931.0, 931.0, 931.0, 931.0, 931.0, 931.0, 931.0, 931.0, 931.0, 931.0, 931.0, 931.0, 931.0, 931.0, 931.0, 931.0, 931.0, 931.0, 931.0, 931.0, 931.0, 931.0, 931.0, 931.0, 931.0, 931.0, 931.0, 931.0, 931.0, 931.0, 931.0, 931.0, 932.0, 931.0, 931.0, 931.0, 931.0, 931.0, 931.0, 931.0, 931.0, 932.0, 931.0, 931.0, 931.0, 931.0, 931.0, 931.0, 931.0, 931.0, 931.0, 931.0, 931.0, 931.0, 931.0, 931.0, 932.0, 931.0, 931.0, 931.0, 931.0, 931.0, 931.0, 931.0, 931.0, 932.0, 931.0, 931.0, 931.0, 931.0, 931.0, 931.0, 931.0, 931.0, 931.0, 931.0, 931.0, 931.0, 931.0, 931.0, 931.0, 931.0, 932.0, 931.0, 931.0, 931.0, 931.0, 931.0, 931.0, 931.0, 931.0, 931.0, 931.0, 931.0, 931.0, 931.0, 931.0, 931.0, 931.0, 931.0, 931.0, 931.0, 931.0, 931.0, 932.0, 931.0, 931.0, 931.0, 931.0, 931.0, 931.0, 931.0, 931.0, 931.0, 931.0, 931.0, 931.0, 931.0, 931.0, 931.0, 932.0, 931.0, 931.0, 931.0, 931.0, 931.0, 931.0, 931.0, 931.0, 931.0, 931.0, 931.0, 931.0, 932.0, 931.0, 931.0, 931.0, 931.0, 931.0, 931.0, 931.0, 931.0, 931.0, 931.0, 931.0, 931.0, 931.0, 931.0, 931.0, 932.0, 931.0, 931.0, 931.0, 931.0, 931.0, 931.0, 931.0, 931.0, 931.0, 931.0, 931.0, 931.0, 931.0, 931.0, 931.0, 931.0, 931.0, 931.0, 931.0, 931.0, 931.0, 931.0, 931.0, 931.0, 931.0, 931.0, 931.0, 931.0, 931.0, 931.0, 931.0, 931.0, 931.0, 931.0, 931.0, 932.0],
      "WindowWidth": [2134.0, 2134.0, 2134.0, 2134.0, 2134.0, 2134.0, 2134.0, 2134.0, 2134.0, 2134.0, 2134.0, 2134.0, 2134.0, 2134.0, 2134.0, 2134.0, 2134.0, 2134.0, 2134.0, 2134.0, 2134.0, 2134.0, 2134.0, 2134.0, 2134.0, 2134.0, 2134.0, 2134.0, 2134.0, 2134.0, 2134.0, 2134.0, 2134.0, 2134.0, 2134.0, 2134.0, 2134.0, 2134.0, 2134.0, 2134.0, 2134.0, 2134.0, 2134.0, 2134.0, 2134.0, 2134.0, 2135.0, 2134.0, 2134.0, 2134.0, 2133.0, 2134.0, 2134.0, 2133.0, 2133.0, 2134.0, 2134.0, 2134.0, 2134.0, 2134.0, 2134.0, 2133.0, 2134.0, 2134.0, 2134.0, 2134.0, 2134.0, 2134.0, 2134.0, 2134.0, 2135.0, 2134.0, 2133.0, 2134.0, 2134.0, 2133.0, 2133.0, 2133.0, 2134.0, 2134.0, 2133.0, 2134.0, 2133.0, 2134.0, 2133.0, 2134.0, 2133.0, 2133.0, 2133.0, 2134.0, 2133.0, 2133.0, 2133.0, 2133.0, 2133.0, 2133.0, 2135.0, 2133.0, 2133.0, 2133.0, 2133.0, 2133.0, 2134.0, 2133.0, 2133.0, 2133.0, 2134.0, 2134.0, 2133.0, 2133.0, 2133.0, 2133.0, 2133.0, 2133.0, 2133.0, 2133.0, 2133.0, 2133.0, 2134.0, 2133.0, 2133.0, 2133.0, 2134.0, 2133.0, 2133.0, 2133.0, 2133.0, 2133.0, 2133.0, 2133.0, 2133.0, 2133.0, 2133.0, 2133.0, 2133.0, 2133.0, 2133.0, 2133.0, 2133.0, 2133.0, 2134.0, 2133.0, 2133.0, 2133.0, 2133.0, 2133.0, 2133.0, 2134.0, 2133.0, 2133.0, 2133.0, 2133.0, 2133.0, 2133.0, 2133.0, 2133.0, 2133.0, 2133.0, 2133.0, 2133.0, 2133.0, 2133.0, 2133.0, 2134.0, 2133.0, 2133.0, 2133.0, 2133.0, 2133.0, 2133.0, 2133.0, 2133.0, 2133.0, 2133.0, 2133.0, 2133.0, 2133.0, 2133.0, 2133.0, 2133.0, 2133.0, 2133.0, 2133.0, 2133.0, 2133.0, 2133.0, 2133.0, 2133.0, 2133.0, 2133.0, 2133.0, 2133.0, 2133.0, 2133.0, 2133.0, 2133.0, 2133.0, 2133.0, 2133.0, 2134.0]
    },
    "slices": {}
  }
}