{
  "AcquisitionMatrixPE": 80,
  "AcquisitionNumber": 1,
  "AcquisitionTime": "10:46:37.190000",
  "BandwidthPerPixelPhaseEncode": 44.643,
  "BaseResolution": 80,
  "BodyPartExamined": "BRAIN",
  "CoilCombinationMethod": "Sum of Squares",
  "ConsistencyInfo": "N4_VE11C_LATEST_20160120",
  "ConversionSoftware": "dcm2niix",
  "ConversionSoftwareVersion": "v1.0.20220720",
  "DerivedVendorReportedEchoSpacing": 0.000559998,
  "DeviceSerialNumber": "66112",
  "DwellTime": 2.7e-06,
  "EchoTime": 0.035,
  "EchoTrainLength": 39,
  "EffectiveEchoSpacing": 0.000279999,
  "FlipAngle": 90,
  "HeudiconvVersion": "0.13.1",
  "ImageOrientationPatientDICOM": [0.999955, 0.00865992, 0.00385591, -0.00942463, 0.951929, 0.306173],
  "ImageOrientationText": "Tra>Cor(17.8)>Sag(0.1)",
  "ImageType": [
    "ORIGINAL",
    "PRIMARY",
    "M",
    "ND",
    "NORM",
    "MOSAIC"
],
  "ImagingFrequency": 123.252,
  "InPlanePhaseEncodingDirectionDICOM": "COL",
  "InstitutionAddress": "Maynard 3,Hanover,NH,US,03755",
  "InstitutionName": "Dartmouth College - PBS",
  "InstitutionalDepartmentName": "Department",
  "MRAcquisitionType": "2D",
  "MagneticFieldStrength": 3,
  "Manufacturer": "Siemens",
  "ManufacturersModelName": "Prisma",
  "Modality": "MR",
  "MultibandAccelerationFactor": 4,
  "NonlinearGradientCorrection": false,
  "ParallelReductionFactorInPlane": 2,
  "PartialFourier": 1,
  "PatientPosition": "HFS",
  "PercentPhaseFOV": 100,
  "PercentSampling": 100,
  "PhaseEncodingDirection": "j-",
  "PhaseEncodingSteps": 79,
  "PhaseResolution": 1,
  "PixelBandwidth": 2315,
  "ProcedureStepDescription": "dbic^QA",
  "ProtocolName": "func-bold_task-rest_acq-p2-s4-3.5mm",
  "PulseSequenceDetails": "%SiemensSeq%\\ep2d_bold",
  "ReceiveCoilActiveElements": "HEA;HEP",
  "ReceiveCoilName": "Head_32",
  "ReconMatrixPE": 80,
  "RefLinesPE": 24,
  "RepetitionTime": 2,
  "SAR": 0.0177995,
  "ScanOptions": "FS",
  "ScanningSequence": "EP",
  "SequenceName": "*epfid2d1_80",
  "SequenceVariant": "SK",
  "SeriesDescription": "func-bold_task-rest_acq-p2-s4-3.5mm",
  "SeriesNumber": 7,
  "ShimSetting": [4142, -7703, -7531, 236, -71, -100, -29, 66],
  "SliceThickness": 3.5,
  "SliceTiming": [1.485, 0, 0.99, 0.2475, 1.2375, 0.7425, 1.7325, 0.495, 1.485, 0, 0.99, 0.2475, 1.2375, 0.7425, 1.7325, 0.495, 1.485, 0, 0.99, 0.2475, 1.2375, 0.7425, 1.7325, 0.495, 1.485, 0, 0.99, 0.2475, 1.2375, 0.7425, 1.7325, 0.495],
  "SoftwareVersions": "syngo MR E11",
  "SpacingBetweenSlices": 3.99,
  "StationName": "AWP66112",
  "TaskName": "rest",
  "TotalReadoutTime": 0.0221199,
  "TxRefAmp": 218.526,
  "dcmmeta_affine": [
    [-2.9998652935028076, -0.02827388606965542, 0.004066298715770245, 122.74632263183594],
    [-0.02597975544631481, 2.855787992477417, 1.2217193841934204, -134.6355438232422],
    [0.011567729525268078, -0.9185183048248291, 3.7983529567718506, -21.862428665161133],
    [0.0, 0.0, 0.0, 1.0]
],
  "dcmmeta_reorient_transform": [
    [0.0, -1.0, 0.0, 79.0],
    [1.0, 0.0, 0.0, 0.0],
    [0.0, 0.0, 1.0, 0.0],
    [0.0, 0.0, 0.0, 1.0]
],
  "dcmmeta_shape": [80, 80, 32, 200],
  "dcmmeta_slice_dim": 2,
  "dcmmeta_version": 0.6,
  "global": {
    "const": {
      "AccessionNumber": "qa",
      "AcquisitionMatrix": [80, 0, 0, 80],
      "AngioFlag": "N",
      "BitsAllocated": 16,
      "BitsStored": 12,
      "BodyPartExamined": "BRAIN",
      "Columns": 480,
      "EchoNumbers": 1,
      "EchoTime": 35.0,
      "EchoTrainLength": 39,
      "FlipAngle": 90.0,
      "HighBit": 11,
      "ImageOrientationPatient": [0.99995506787458, 0.00865991863424, 0.00385590990416, -0.0094246284437, 0.95192931349275, 0.30617275922579],
      "ImagePositionPatient": [-714.83094767173, -667.32524353036, -280.44257323108],
      "ImageType": [
        "ORIGINAL",
        "PRIMARY",
        "M",
        "ND",
        "NORM",
        "MOSAIC"
],
      "ImagedNucleus": "1H",
      "ImagingFrequency": 123.252353,
      "InPlanePhaseEncodingDirection": "COL",
      "MRAcquisitionType": "2D",
      "MagneticFieldStrength": 3.0,
      "Manufacturer": "SIEMENS",
      "ManufacturerModelName": "Prisma",
      "Modality": "MR",
      "NumberOfAverages": 1.0,
      "NumberOfPhaseEncodingSteps": 79,
      "PercentPhaseFieldOfView": 100.0,
      "PercentSampling": 100.0,
      "PerformedProcedureStepStartTime": "103335.888000",
      "PhotometricInterpretation": "MONOCHROME2",
      "PixelBandwidth": 2315.0,
      "PixelRepresentation": 0,
      "PixelSpacing": [3.0, 3.0],
      "ProtocolName": "func-bold_task-rest_acq-p2-s4-3.5mm",
      "RepetitionTime": 2000.0,
      "Rows": 480,
      "SAR": 0.01779953741783,
      "SamplesPerPixel": 1,
      "ScanOptions": "FS",
      "ScanningSequence": "EP",
      "SequenceName": "*epfid2d1_80",
      "SequenceVariant": "SK",
      "SeriesDescription": "func-bold_task-rest_acq-p2-s4-3.5mm",
      "SeriesNumber": 7,
      "SeriesTime": "104728.851000",
      "SliceLocation": -61.91201784671,
      "SliceThickness": 3.5,
      "SmallestImagePixelValue": 0,
      "SoftwareVersions": "syngo MR E11",
      "SpacingBetweenSlices": 3.9899999459703,
      "SpecificCharacterSet": "ISO_IR 100",
      "StudyID": "37",
      "StudyTime": "103335.842000",
      "TransmitCoilName": "Body",
      "VariableFlipAngleFlag": "N",
      "WindowCenterWidthExplanation": "Algo1",
      "dBdt": 0.0},
    "slices": {}
  },
  "time": {
    "samples": {
      "AcquisitionNumber": [1, 2, 3, 4, 5, 6, 7, 8, 9, 10, 11, 12, 13, 14, 15, 16, 17, 18, 19, 20, 21, 22, 23, 24, 25, 26, 27, 28, 29, 30, 31, 32, 33, 34, 35, 36, 37, 38, 39, 40, 41, 42, 43, 44, 45, 46, 47, 48, 49, 50, 51, 52, 53, 54, 55, 56, 57, 58, 59, 60, 61, 62, 63, 64, 65, 66, 67, 68, 69, 70, 71, 72, 73, 74, 75, 76, 77, 78, 79, 80, 81, 82, 83, 84, 85, 86, 87, 88, 89, 90, 91, 92, 93, 94, 95, 96, 97, 98, 99, 100, 101, 102, 103, 104, 105, 106, 107, 108, 109, 110, 111, 112, 113, 114, 115, 116, 117, 118, 119, 120, 121, 122, 123, 124, 125, 126, 127, 128, 129, 130, 131, 132, 133, 134, 135, 136, 137, 138, 139, 140, 141, 142, 143, 144, 145, 146, 147, 148, 149, 150, 151, 152, 153, 154, 155, 156, 157, 158, 159, 160, 161, 162, 163, 164, 165, 166, 167, 168, 169, 170, 171, 172, 173, 174, 175, 176, 177, 178, 179, 180, 181, 182, 183, 184, 185, 186, 187, 188, 189, 190, 191, 192, 193, 194, 195, 196, 197, 198, 199, 200],
      "AcquisitionTime": ["104637.190000", "104639.190000", "104641.190000", "104643.190000", "104645.190000", "104647.190000", "104649.190000", "104651.190000", "104653.190000", "104655.190000", "104657.190000", "104659.190000", "104701.190000", "104703.190000", "104705.190000", "104707.190000", "104709.190000", "104711.190000", "104713.190000", "104715.190000", "104717.190000", "104719.190000", "104721.190000", "104723.190000", "104725.190000", "104727.190000", "104729.190000", "104731.190000", "104733.190000", "104735.190000", "104737.190000", "104739.190000", "104741.190000", "104743.190000", "104745.190000", "104747.190000", "104749.190000", "104751.190000", "104753.190000", "104755.190000", "104757.190000", "104759.190000", "104801.190000", "104803.190000", "104805.190000", "104807.190000", "104809.190000", "104811.190000", "104813.190000", "104815.190000", "104817.190000", "104819.190000", "104821.190000", "104823.190000", "104825.190000", "104827.190000", "104829.190000", "104831.190000", "104833.190000", "104835.190000", "104837.190000", "104839.190000", "104841.190000", "104843.190000", "104845.190000", "104847.190000", "104849.190000", "104851.190000", "104853.190000", "104855.190000", "104857.190000", "104859.190000", "104901.190000", "104903.190000", "104905.190000", "104907.190000", "104909.190000", "104911.190000", "104913.190000", "104915.190000", "104917.190000", "104919.190000", "104921.190000", "104923.190000", "104925.190000", "104927.190000", "104929.190000", "104931.190000", "104933.190000", "104935.190000", "104937.190000", "104939.190000", "104941.190000", "104943.190000", "104945.190000", "104947.190000", "104949.190000", "104951.190000", "104953.190000", "104955.190000", "104957.190000", "104959.190000", "105001.190000", "105003.190000", "105005.190000", "105007.190000", "105009.190000", "105011.190000", "105013.190000", "105015.190000", "105017.190000", "105019.190000", "105021.190000", "105023.190000", "105025.190000", "105027.190000", "105029.190000", "105031.190000", "105033.190000", "105035.190000", "105037.190000", "105039.190000", "105041.190000", "105043.190000", "105045.190000", "105047.190000", "105049.190000", "105051.190000", "105053.190000", "105055.190000", "105057.190000", "105059.190000", "105101.190000", "105103.190000", "105105.190000", "105107.190000", "105109.190000", "105111.190000", "105113.190000", "105115.190000", "105117.190000", "105119.190000", "105121.190000", "105123.190000", "105125.190000", "105127.190000", "105129.190000", "105131.190000", "105133.190000", "105135.190000", "105137.190000", "105139.190000", "105141.190000", "105143.190000", "105145.190000", "105147.190000", "105149.190000", "105151.190000", "105153.190000", "105155.190000", "105157.190000", "105159.190000", "105201.190000", "105203.190000", "105205.190000", "105207.190000", "105209.190000", "105211.190000", "105213.190000", "105215.190000", "105217.190000", "105219.190000", "105221.190000", "105223.190000", "105225.190000", "105227.190000", "105229.190000", "105231.190000", "105233.190000", "105235.190000", "105237.190000", "105239.190000", "105241.190000", "105243.190000", "105245.190000", "105247.190000", "105249.190000", "105251.190000", "105253.190000", "105255.190000", "105257.190000", "105259.190000", "105301.190000", "105303.190000", "105305.190000", "105307.190000", "105309.190000", "105311.190000", "105313.190000", "105315.190000"],
      "ContentTime": ["104728.854000", "104728.857000", "104728.860000", "104728.870000", "104728.873000", "104728.879000", "104728.889000", "104728.891000", "104728.894000", "104728.896000", "104728.899000", "104728.901000", "104728.904000", "104728.906000", "104728.909000", "104728.911000", "104728.914000", "104728.916000", "104728.919000", "104728.921000", "104728.924000", "104728.926000", "104728.929000", "104728.931000", "104728.934000", "104728.936000", "104808.849000", "104808.852000", "104808.855000", "104808.857000", "104808.860000", "104808.862000", "104808.865000", "104808.867000", "104808.870000", "104808.872000", "104808.875000", "104808.877000", "104808.880000", "104808.882000", "104808.885000", "104808.887000", "104808.890000", "104808.892000", "104808.895000", "104808.897000", "104848.848000", "104848.851000", "104848.854000", "104848.856000", "104848.859000", "104848.861000", "104848.864000", "104848.866000", "104848.869000", "104848.871000", "104848.874000", "104848.876000", "104848.879000", "104848.881000", "104848.884000", "104848.886000", "104848.889000", "104848.891000", "104848.894000", "104848.897000", "104928.850000", "104928.852000", "104928.855000", "104928.857000", "104928.860000", "104928.862000", "104928.865000", "104928.867000", "104928.870000", "104928.872000", "104928.875000", "104928.877000", "104928.880000", "104928.882000", "104928.885000", "104928.887000", "104928.890000", "104928.892000", "104928.895000", "104928.898000", "105008.849000", "105008.852000", "105008.855000", "105008.857000", "105008.860000", "105008.862000", "105008.865000", "105008.867000", "105008.870000", "105008.873000", "105008.875000", "105008.878000", "105008.880000", "105008.883000", "105008.885000", "105008.888000", "105008.890000", "105008.893000", "105008.895000", "105008.898000", "105048.848000", "105048.851000", "105048.854000", "105048.856000", "105048.859000", "105048.861000", "105048.864000", "105048.866000", "105048.869000", "105048.871000", "105048.874000", "105048.876000", "105048.879000", "105048.881000", "105048.884000", "105048.886000", "105048.889000", "105048.891000", "105048.894000", "105048.896000", "105128.848000", "105128.851000", "105128.854000", "105128.856000", "105128.859000", "105128.861000", "105128.864000", "105128.866000", "105128.869000", "105128.872000", "105128.874000", "105128.877000", "105128.879000", "105128.882000", "105128.884000", "105128.887000", "105128.889000", "105128.892000", "105128.894000", "105128.897000", "105208.849000", "105208.852000", "105208.855000", "105208.857000", "105208.860000", "105208.862000", "105208.865000", "105208.867000", "105208.870000", "105208.872000", "105208.875000", "105208.878000", "105208.880000", "105208.883000", "105208.885000", "105208.888000", "105208.890000", "105208.893000", "105208.895000", "105208.898000", "105248.849000", "105248.852000", "105248.855000", "105248.857000", "105248.860000", "105248.862000", "105248.865000", "105248.867000", "105248.870000", "105248.872000", "105248.875000", "105248.877000", "105248.880000", "105248.882000", "105248.885000", "105248.888000", "105248.890000", "105248.893000", "105248.895000", "105248.898000", "105315.962000", "105315.965000", "105315.967000", "105315.970000", "105315.973000", "105315.976000", "105315.978000", "105315.981000", "105315.983000", "105315.986000", "105315.988000", "105315.991000", "105315.994000", "105315.997000"],
      "InstanceCreationTime": ["104728.854000", "104728.857000", "104728.860000", "104728.870000", "104728.873000", "104728.879000", "104728.889000", "104728.891000", "104728.894000", "104728.896000", "104728.899000", "104728.901000", "104728.904000", "104728.906000", "104728.909000", "104728.911000", "104728.914000", "104728.916000", "104728.919000", "104728.921000", "104728.924000", "104728.926000", "104728.929000", "104728.931000", "104728.934000", "104728.936000", "104808.849000", "104808.852000", "104808.855000", "104808.857000", "104808.860000", "104808.862000", "104808.865000", "104808.867000", "104808.870000", "104808.872000", "104808.875000", "104808.877000", "104808.880000", "104808.882000", "104808.885000", "104808.887000", "104808.890000", "104808.892000", "104808.895000", "104808.897000", "104848.848000", "104848.851000", "104848.854000", "104848.856000", "104848.859000", "104848.861000", "104848.864000", "104848.866000", "104848.869000", "104848.871000", "104848.874000", "104848.876000", "104848.879000", "104848.881000", "104848.884000", "104848.886000", "104848.889000", "104848.891000", "104848.894000", "104848.897000", "104928.850000", "104928.852000", "104928.855000", "104928.857000", "104928.860000", "104928.862000", "104928.865000", "104928.867000", "104928.870000", "104928.872000", "104928.875000", "104928.877000", "104928.880000", "104928.882000", "104928.885000", "104928.887000", "104928.890000", "104928.892000", "104928.895000", "104928.898000", "105008.849000", "105008.852000", "105008.855000", "105008.857000", "105008.860000", "105008.862000", "105008.865000", "105008.867000", "105008.870000", "105008.873000", "105008.875000", "105008.878000", "105008.880000", "105008.883000", "105008.885000", "105008.888000", "105008.890000", "105008.893000", "105008.895000", "105008.898000", "105048.848000", "105048.851000", "105048.854000", "105048.856000", "105048.859000", "105048.861000", "105048.864000", "105048.866000", "105048.869000", "105048.871000", "105048.874000", "105048.876000", "105048.879000", "105048.881000", "105048.884000", "105048.886000", "105048.889000", "105048.891000", "105048.894000", "105048.896000", "105128.848000", "105128.851000", "105128.854000", "105128.856000", "105128.859000", "105128.861000", "105128.864000", "105128.866000", "105128.869000", "105128.872000", "105128.874000", "105128.877000", "105128.879000", "105128.882000", "105128.884000", "105128.887000", "105128.889000", "105128.892000", "105128.894000", "105128.897000", "105208.849000", "105208.852000", "105208.855000", "105208.857000", "105208.860000", "105208.862000", "105208.865000", "105208.867000", "105208.870000", "105208.872000", "105208.875000", "105208.878000", "105208.880000", "105208.883000", "105208.885000", "105208.888000", "105208.890000", "105208.893000", "105208.895000", "105208.898000", "105248.849000", "105248.852000", "105248.855000", "105248.857000", "105248.860000", "105248.862000", "105248.865000", "105248.867000", "105248.870000", "105248.872000", "105248.875000", "105248.877000", "105248.880000", "105248.882000", "105248.885000", "105248.888000", "105248.890000", "105248.893000", "105248.895000", "105248.898000", "105315.962000", "105315.965000", "105315.967000", "105315.970000", "105315.973000", "105315.976000", "105315.978000", "105315.981000", "105315.983000", "105315.986000", "105315.988000", "105315.991000", "105315.994000", "105315.997000"],
      "InstanceNumber": [1, 2, 3, 4, 5, 6, 7, 8, 9, 10, 11, 12, 13, 14, 15, 16, 17, 18, 19, 20, 21, 22, 23, 24, 25, 26, 27, 28, 29, 30, 31, 32, 33, 34, 35, 36, 37, 38, 39, 40, 41, 42, 43, 44, 45, 46, 47, 48, 49, 50, 51, 52, 53, 54, 55, 56, 57, 58, 59, 60, 61, 62, 63, 64, 65, 66, 67, 68, 69, 70, 71, 72, 73, 74, 75, 76, 77, 78, 79, 80, 81, 82, 83, 84, 85, 86, 87, 88, 89, 90, 91, 92, 93, 94, 95, 96, 97, 98, 99, 100, 101, 102, 103, 104, 105, 106, 107, 108, 109, 110, 111, 112, 113, 114, 115, 116, 117, 118, 119, 120, 121, 122, 123, 124, 125, 126, 127, 128, 129, 130, 131, 132, 133, 134, 135, 136, 137, 138, 139, 140, 141, 142, 143, 144, 145, 146, 147, 148, 149, 150, 151, 152, 153, 154, 155, 156, 157, 158, 159, 160, 161, 162, 163, 164, 165, 166, 167, 168, 169, 170, 171, 172, 173, 174, 175, 176, 177, 178, 179, 180, 181, 182, 183, 184, 185, 186, 187, 188, 189, 190, 191, 192, 193, 194, 195, 196, 197, 198, 199, 200],
      "LargestImagePixelValue": [2347, 2345, 2346, 2350, 2348, 2343, 2349, 2347, 2350, 2348, 2345, 2348, 2347, 2347, 2346, 2353, 2349, 2346, 2353, 2351, 2348, 2347, 2345, 2346, 2347, 2354, 2349, 2345, 2348, 2350, 2352, 2348, 2350, 2351, 2347, 2349, 2349, 2345, 2352, 2352, 2345, 2353, 2349, 2354, 2348, 2348, 2350, 2346, 2349, 2351, 2352, 2351, 2348, 2355, 2354, 2349, 2350, 2352, 2344, 2349, 2348, 2349, 2351, 2352, 2351, 2356, 2348, 2350, 2350, 2350, 2350, 2349, 2346, 2352, 2349, 2346, 2351, 2345, 2346, 2348, 2351, 2349, 2351, 2349, 2346, 2346, 2349, 2347, 2354, 2347, 2349, 2356, 2348, 2353, 2349, 2348, 2350, 2345, 2350, 2345, 2349, 2347, 2350, 2348, 2353, 2349, 2348, 2349, 2350, 2347, 2347, 2355, 2352, 2346, 2346, 2345, 2352, 2348, 2350, 2348, 2349, 2353, 2347, 2350, 2347, 2348, 2356, 2347, 2349, 2346, 2352, 2349, 2352, 2350, 2348, 2352, 2350, 2347, 2347, 2352, 2345, 2349, 2353, 2349, 2347, 2351, 2348, 2349, 2351, 2346, 2348, 2348, 2348, 2348, 2347, 2349, 2345, 2350, 2349, 2348, 2353, 2347, 2352, 2347, 2351, 2345, 2350, 2348, 2347, 2347, 2349, 2349, 2348, 2349, 2352, 2347, 2348, 2348, 2348, 2346, 2346, 2354, 2349, 2353, 2349, 2347, 2350, 2350, 2352, 2352, 2349, 2345, 2346, 2351, 2344, 2349, 2349, 2349, 2349, 2346],
      "WindowCenter": [988.0, 988.0, 988.0, 989.0, 989.0, 990.0, 989.0, 988.0, 988.0, 988.0, 990.0, 988.0, 990.0, 988.0, 989.0, 988.0, 989.0, 990.0, 988.0, 989.0, 988.0, 988.0, 988.0, 990.0, 988.0, 989.0, 989.0, 989.0, 988.0, 989.0, 990.0, 988.0, 988.0, 988.0, 989.0, 988.0, 988.0, 990.0, 988.0, 989.0, 989.0, 989.0, 988.0, 989.0, 989.0, 990.0, 988.0, 989.0, 989.0, 989.0, 990.0, 989.0, 990.0, 989.0, 990.0, 989.0, 989.0, 988.0, 989.0, 990.0, 990.0, 990.0, 989.0, 989.0, 989.0, 989.0, 989.0, 989.0, 988.0, 989.0, 989.0, 989.0, 989.0, 988.0, 989.0, 989.0, 989.0, 989.0, 990.0, 988.0, 988.0, 989.0, 988.0, 989.0, 989.0, 990.0, 989.0, 988.0, 989.0, 989.0, 989.0, 989.0, 989.0, 990.0, 989.0, 989.0, 988.0, 989.0, 989.0, 989.0, 989.0, 989.0, 989.0, 989.0, 987.0, 989.0, 989.0, 988.0, 989.0, 989.0, 989.0, 988.0, 989.0, 989.0, 988.0, 990.0, 989.0, 987.0, 987.0, 988.0, 989.0, 989.0, 989.0, 988.0, 988.0, 989.0, 988.0, 990.0, 989.0, 989.0, 987.0, 989.0, 990.0, 990.0, 990.0, 988.0, 988.0, 990.0, 989.0, 988.0, 989.0, 990.0, 989.0, 989.0, 990.0, 988.0, 989.0, 989.0, 989.0, 989.0, 989.0, 987.0, 988.0, 988.0, 988.0, 989.0, 988.0, 988.0, 989.0, 990.0, 988.0, 988.0, 989.0, 988.0, 988.0, 988.0, 989.0, 989.0, 989.0, 988.0, 988.0, 988.0, 988.0, 988.0, 988.0, 988.0, 989.0, 989.0, 988.0, 989.0, 988.0, 989.0, 989.0, 987.0, 988.0, 988.0, 988.0, 988.0, 987.0, 988.0, 988.0, 989.0, 989.0, 989.0, 988.0, 988.0, 988.0, 988.0, 988.0, 989.0],
      "WindowWidth": [2365.0, 2365.0, 2365.0, 2365.0, 2365.0, 2366.0, 2365.0, 2365.0, 2365.0, 2365.0, 2366.0, 2365.0, 2366.0, 2365.0, 2365.0, 2365.0, 2365.0, 2366.0, 2365.0, 2366.0, 2365.0, 2365.0, 2365.0, 2366.0, 2365.0, 2365.0, 2366.0, 2366.0, 2365.0, 2365.0, 2366.0, 2365.0, 2365.0, 2365.0, 2365.0, 2365.0, 2365.0, 2366.0, 2365.0, 2365.0, 2365.0, 2365.0, 2365.0, 2365.0, 2365.0, 2366.0, 2365.0, 2365.0, 2365.0, 2365.0, 2366.0, 2365.0, 2366.0, 2365.0, 2366.0, 2365.0, 2365.0, 2365.0, 2365.0, 2366.0, 2366.0, 2366.0, 2365.0, 2365.0, 2366.0, 2365.0, 2365.0, 2365.0, 2365.0, 2365.0, 2365.0, 2365.0, 2365.0, 2364.0, 2365.0, 2365.0, 2365.0, 2365.0, 2365.0, 2364.0, 2364.0, 2365.0, 2364.0, 2365.0, 2365.0, 2365.0, 2365.0, 2365.0, 2365.0, 2365.0, 2365.0, 2365.0, 2365.0, 2365.0, 2365.0, 2365.0, 2365.0, 2365.0, 2365.0, 2365.0, 2365.0, 2365.0, 2364.0, 2365.0, 2364.0, 2365.0, 2365.0, 2364.0, 2365.0, 2365.0, 2365.0, 2365.0, 2365.0, 2365.0, 2363.0, 2365.0, 2365.0, 2364.0, 2364.0, 2364.0, 2365.0, 2365.0, 2365.0, 2364.0, 2364.0, 2365.0, 2364.0, 2365.0, 2365.0, 2364.0, 2364.0, 2365.0, 2365.0, 2365.0, 2365.0, 2364.0, 2364.0, 2365.0, 2364.0, 2364.0, 2364.0, 2365.0, 2365.0, 2364.0, 2365.0, 2365.0, 2365.0, 2364.0, 2364.0, 2364.0, 2362.0, 2362.0, 2363.0, 2363.0, 2363.0, 2364.0, 2363.0, 2363.0, 2364.0, 2365.0, 2362.0, 2363.0, 2363.0, 2363.0, 2363.0, 2363.0, 2364.0, 2364.0, 2363.0, 2363.0, 2363.0, 2363.0, 2363.0, 2362.0, 2363.0, 2362.0, 2364.0, 2363.0, 2362.0, 2362.0, 2363.0, 2363.0, 2364.0, 2362.0, 2363.0, 2362.0, 2363.0, 2362.0, 2361.0, 2362.0, 2363.0, 2363.0, 2364.0, 2364.0, 2362.0, 2363.0, 2363.0, 2362.0, 2363.0, 2363.0]
    },
    "slices": {}
  }
}