{
  "AcquisitionMatrixPE": 80,
  "AcquisitionNumber": 1,
  "AcquisitionTime": "09:40:28.772500",
  "BandwidthPerPixelPhaseEncode": 48.077,
  "BaseResolution": 80,
  "BodyPartExamined": "BRAIN",
  "CoilCombinationMethod": "Sum of Squares",
  "ConsistencyInfo": "N4_VE11E_LATEST_20181129",
  "ConversionSoftware": "dcm2niix",
  "ConversionSoftwareVersion": "v1.0.20220720",
  "DerivedVendorReportedEchoSpacing": 0.000519999,
  "DeviceSerialNumber": "66112",
  "DwellTime": 2.7e-06,
  "EchoTime": 0.035,
  "EchoTrainLength": 39,
  "EffectiveEchoSpacing": 0.00026,
  "FlipAngle": 90,
  "HeudiconvVersion": "0.13.1",
  "ImageOrientationPatientDICOM": [0.999572, 0.0286015, 0.00621577, -0.0291427, 0.952835, 0.302087],
  "ImageOrientationText": "Tra>Cor(17.6)>Sag(-0.2)",
  "ImageType": [
    "ORIGINAL",
    "PRIMARY",
    "M",
    "ND",
    "NORM",
    "MOSAIC"
],
  "ImagingFrequency": 123.259,
  "InPlanePhaseEncodingDirectionDICOM": "COL",
  "InstitutionAddress": "Maynard 3,Hanover,NH,US,03755",
  "InstitutionName": "Dartmouth College - PBS",
  "InstitutionalDepartmentName": "Department",
  "MRAcquisitionType": "2D",
  "MagneticFieldStrength": 3,
  "Manufacturer": "Siemens",
  "ManufacturersModelName": "Prisma",
  "MatrixCoilMode": "GRAPPA",
  "Modality": "MR",
  "NonlinearGradientCorrection": false,
  "ParallelReductionFactorInPlane": 2,
  "PartialFourier": 1,
  "PatientPosition": "HFS",
  "PercentPhaseFOV": 100,
  "PercentSampling": 100,
  "PhaseEncodingDirection": "j-",
  "PhaseEncodingSteps": 79,
  "PhaseResolution": 1,
  "PixelBandwidth": 2315,
  "ProcedureStepDescription": "dbic^QA",
  "ProtocolName": "func-bold_task-rest_acq-p2",
  "PulseSequenceDetails": "%SiemensSeq%\\ep2d_bold",
  "ReceiveCoilActiveElements": "HEA;HEP",
  "ReceiveCoilName": "Head_32",
  "ReconMatrixPE": 80,
  "RefLinesPE": 24,
  "RepetitionTime": 2,
  "SAR": 0.0813838,
  "ScanOptions": "FS",
  "ScanningSequence": "EP",
  "SequenceName": "*epfid2d1_80",
  "SequenceVariant": "SK",
  "SeriesDescription": "func-bold_task-rest_acq-p2",
  "SeriesNumber": 5,
  "ShimSetting": [4225, -7747, -7484, -14, -116, -37, 3, 82],
  "SliceThickness": 3.5,
  "SliceTiming": [0.99, 0, 1.055, 0.065, 1.1225, 0.1325, 1.1875, 0.1975, 1.2525, 0.265, 1.32, 0.33, 1.385, 0.395, 1.4525, 0.4625, 1.5175, 0.5275, 1.5825, 0.595, 1.65, 0.66, 1.715, 0.725, 1.7825, 0.7925, 1.8475, 0.8575, 1.9125, 0.925],
  "SoftwareVersions": "syngo MR E11",
  "SpacingBetweenSlices": 3.99,
  "StationName": "AWP66112",
  "TaskName": "rest",
  "TotalReadoutTime": 0.02054,
  "TxRefAmp": 222.97,
  "dcmmeta_affine": [
    [-2.9987146854400635, -0.08742817491292953, -0.010843061842024326, 124.61186981201172],
    [-0.08580459654331207, 2.858504056930542, 1.2055352926254272, -123.27526092529297],
    [0.018647322431206703, -0.9062623381614685, 3.803507089614868, -16.67646026611328],
    [0.0, 0.0, 0.0, 1.0]
],
  "dcmmeta_reorient_transform": [
    [0.0, -1.0, 0.0, 79.0],
    [1.0, 0.0, 0.0, 0.0],
    [0.0, 0.0, 1.0, 0.0],
    [0.0, 0.0, 0.0, 1.0]
],
  "dcmmeta_shape": [80, 80, 30, 200],
  "dcmmeta_slice_dim": 2,
  "dcmmeta_version": 0.6,
  "global": {
    "const": {
      "AccessionNumber": "qa",
      "AcquisitionMatrix": [80, 0, 0, 80],
      "AngioFlag": "N",
      "BitsAllocated": 16,
      "BitsStored": 12,
      "BodyPartExamined": "BRAIN",
      "Columns": 480,
      "EchoNumbers": 1,
      "EchoTime": 35.0,
      "EchoTrainLength": 39,
      "FlipAngle": 90.0,
      "HighBit": 11,
      "ImageOrientationPatient": [0.99957156644683, 0.02860153326124, 0.00621577397679, -0.0291427250251, 0.95283465210533, 0.30208744979796],
      "ImagePositionPatient": [-699.96234651311, -691.40826630115, -273.25312046474],
      "ImageType": [
        "ORIGINAL",
        "PRIMARY",
        "M",
        "ND",
        "NORM",
        "MOSAIC"
],
      "ImagedNucleus": "1H",
      "ImagingFrequency": 123.259235,
      "InPlanePhaseEncodingDirection": "COL",
      "MRAcquisitionType": "2D",
      "MagneticFieldStrength": 3.0,
      "Manufacturer": "SIEMENS",
      "ManufacturerModelName": "Prisma",
      "Modality": "MR",
      "NumberOfAverages": 1.0,
      "NumberOfPhaseEncodingSteps": 79,
      "PercentPhaseFieldOfView": 100.0,
      "PercentSampling": 100.0,
      "PerformedProcedureStepStartTime": "093652.361000",
      "PhotometricInterpretation": "MONOCHROME2",
      "PixelBandwidth": 2315.0,
      "PixelRepresentation": 0,
      "PixelSpacing": [3.0, 3.0],
      "ProtocolName": "func-bold_task-rest_acq-p2",
      "RepetitionTime": 2000.0,
      "Rows": 480,
      "SAR": 0.08138379301319,
      "SamplesPerPixel": 1,
      "ScanOptions": "FS",
      "ScanningSequence": "EP",
      "SequenceName": "*epfid2d1_80",
      "SequenceVariant": "SK",
      "SeriesDescription": "func-bold_task-rest_acq-p2",
      "SeriesNumber": 5,
      "SeriesTime": "094122.905000",
      "SliceLocation": -53.481926160006,
      "SliceThickness": 3.5,
      "SmallestImagePixelValue": 0,
      "SoftwareVersions": "syngo MR E11",
      "SpacingBetweenSlices": 3.9899999840363,
      "SpecificCharacterSet": "ISO_IR 100",
      "StudyID": "27",
      "StudyTime": "093652.309000",
      "TransmitCoilName": "Body",
      "VariableFlipAngleFlag": "N",
      "WindowCenterWidthExplanation": "Algo1"
    },
    "slices": {}
  },
  "time": {
    "samples": {
      "AcquisitionNumber": [1, 2, 3, 4, 5, 6, 7, 8, 9, 10, 11, 12, 13, 14, 15, 16, 17, 18, 19, 20, 21, 22, 23, 24, 25, 26, 27, 28, 29, 30, 31, 32, 33, 34, 35, 36, 37, 38, 39, 40, 41, 42, 43, 44, 45, 46, 47, 48, 49, 50, 51, 52, 53, 54, 55, 56, 57, 58, 59, 60, 61, 62, 63, 64, 65, 66, 67, 68, 69, 70, 71, 72, 73, 74, 75, 76, 77, 78, 79, 80, 81, 82, 83, 84, 85, 86, 87, 88, 89, 90, 91, 92, 93, 94, 95, 96, 97, 98, 99, 100, 101, 102, 103, 104, 105, 106, 107, 108, 109, 110, 111, 112, 113, 114, 115, 116, 117, 118, 119, 120, 121, 122, 123, 124, 125, 126, 127, 128, 129, 130, 131, 132, 133, 134, 135, 136, 137, 138, 139, 140, 141, 142, 143, 144, 145, 146, 147, 148, 149, 150, 151, 152, 153, 154, 155, 156, 157, 158, 159, 160, 161, 162, 163, 164, 165, 166, 167, 168, 169, 170, 171, 172, 173, 174, 175, 176, 177, 178, 179, 180, 181, 182, 183, 184, 185, 186, 187, 188, 189, 190, 191, 192, 193, 194, 195, 196, 197, 198, 199, 200],
      "AcquisitionTime": ["094028.772500", "094030.772500", "094032.772500", "094034.772500", "094036.772500", "094038.772500", "094040.772500", "094042.772500", "094044.772500", "094046.772500", "094048.772500", "094050.772500", "094052.772500", "094054.772500", "094056.772500", "094058.772500", "094100.772500", "094102.772500", "094104.772500", "094106.772500", "094108.772500", "094110.772500", "094112.772500", "094114.772500", "094116.772500", "094118.772500", "094120.772500", "094122.772500", "094124.772500", "094126.772500", "094128.772500", "094130.772500", "094132.772500", "094134.772500", "094136.772500", "094138.772500", "094140.772500", "094142.772500", "094144.772500", "094146.772500", "094148.772500", "094150.772500", "094152.772500", "094154.772500", "094156.772500", "094158.772500", "094200.772500", "094202.772500", "094204.772500", "094206.772500", "094208.772500", "094210.772500", "094212.772500", "094214.772500", "094216.772500", "094218.772500", "094220.772500", "094222.772500", "094224.772500", "094226.772500", "094228.772500", "094230.772500", "094232.772500", "094234.772500", "094236.772500", "094238.772500", "094240.772500", "094242.772500", "094244.772500", "094246.772500", "094248.772500", "094250.772500", "094252.772500", "094254.772500", "094256.772500", "094258.772500", "094300.772500", "094302.772500", "094304.772500", "094306.772500", "094308.772500", "094310.772500", "094312.772500", "094314.772500", "094316.772500", "094318.772500", "094320.772500", "094322.772500", "094324.772500", "094326.772500", "094328.772500", "094330.772500", "094332.772500", "094334.772500", "094336.772500", "094338.772500", "094340.772500", "094342.772500", "094344.772500", "094346.772500", "094348.772500", "094350.772500", "094352.772500", "094354.772500", "094356.772500", "094358.772500", "094400.772500", "094402.772500", "094404.772500", "094406.772500", "094408.772500", "094410.772500", "094412.772500", "094414.772500", "094416.772500", "094418.772500", "094420.772500", "094422.772500", "094424.772500", "094426.772500", "094428.772500", "094430.772500", "094432.772500", "094434.772500", "094436.772500", "094438.772500", "094440.772500", "094442.772500", "094444.772500", "094446.772500", "094448.772500", "094450.772500", "094452.772500", "094454.772500", "094456.772500", "094458.772500", "094500.772500", "094502.772500", "094504.772500", "094506.772500", "094508.772500", "094510.772500", "094512.772500", "094514.772500", "094516.772500", "094518.772500", "094520.772500", "094522.772500", "094524.772500", "094526.772500", "094528.772500", "094530.772500", "094532.772500", "094534.772500", "094536.772500", "094538.772500", "094540.772500", "094542.772500", "094544.772500", "094546.772500", "094548.772500", "094550.772500", "094552.772500", "094554.772500", "094556.772500", "094558.772500", "094600.772500", "094602.772500", "094604.772500", "094606.772500", "094608.772500", "094610.772500", "094612.772500", "094614.772500", "094616.772500", "094618.772500", "094620.772500", "094622.772500", "094624.772500", "094626.772500", "094628.772500", "094630.772500", "094632.772500", "094634.772500", "094636.772500", "094638.772500", "094640.772500", "094642.772500", "094644.772500", "094646.772500", "094648.772500", "094650.772500", "094652.772500", "094654.772500", "094656.772500", "094658.772500", "094700.772500", "094702.772500", "094704.772500", "094706.772500"],
      "ContentTime": ["094122.908000", "094123.109000", "094123.120000", "094123.131000", "094123.143000", "094123.154000", "094123.165000", "094123.177000", "094123.194000", "094123.205000", "094123.217000", "094123.231000", "094123.246000", "094123.257000", "094123.269000", "094123.280000", "094123.291000", "094123.313000", "094123.326000", "094123.337000", "094123.348000", "094123.360000", "094123.371000", "094123.383000", "094123.394000", "094123.406000", "094123.417000", "094202.904000", "094202.907000", "094202.909000", "094202.912000", "094202.914000", "094202.916000", "094202.919000", "094202.921000", "094202.923000", "094202.926000", "094202.928000", "094202.930000", "094202.933000", "094202.935000", "094202.937000", "094202.940000", "094202.942000", "094202.945000", "094202.947000", "094202.949000", "094242.903000", "094242.906000", "094242.908000", "094242.910000", "094242.913000", "094242.915000", "094242.917000", "094242.920000", "094242.922000", "094242.924000", "094242.927000", "094242.929000", "094242.931000", "094242.934000", "094242.936000", "094242.938000", "094242.941000", "094242.943000", "094242.945000", "094242.956000", "094322.903000", "094322.906000", "094322.908000", "094322.910000", "094322.913000", "094322.915000", "094322.917000", "094322.920000", "094322.922000", "094322.924000", "094322.927000", "094322.929000", "094322.931000", "094322.933000", "094322.936000", "094322.938000", "094322.940000", "094322.943000", "094322.945000", "094322.948000", "094402.904000", "094402.907000", "094402.909000", "094402.911000", "094402.914000", "094402.916000", "094402.918000", "094402.921000", "094402.923000", "094402.925000", "094402.928000", "094402.930000", "094402.932000", "094402.935000", "094402.937000", "094402.939000", "094402.942000", "094402.944000", "094402.946000", "094402.949000", "094442.903000", "094442.906000", "094442.908000", "094442.910000", "094442.913000", "094442.915000", "094442.917000", "094442.920000", "094442.922000", "094442.924000", "094442.927000", "094442.929000", "094442.931000", "094442.933000", "094442.936000", "094442.938000", "094442.940000", "094442.943000", "094442.945000", "094442.947000", "094522.903000", "094522.906000", "094522.908000", "094522.910000", "094522.913000", "094522.915000", "094522.917000", "094522.920000", "094522.922000", "094522.924000", "094522.927000", "094522.929000", "094522.931000", "094522.934000", "094522.936000", "094522.938000", "094522.941000", "094522.943000", "094522.945000", "094522.948000", "094602.903000", "094602.906000", "094602.908000", "094602.911000", "094602.913000", "094602.915000", "094602.918000", "094602.920000", "094602.922000", "094602.924000", "094602.927000", "094602.929000", "094602.931000", "094602.934000", "094602.936000", "094602.938000", "094602.941000", "094602.943000", "094602.945000", "094602.948000", "094642.904000", "094642.907000", "094642.909000", "094642.912000", "094642.914000", "094642.917000", "094642.919000", "094642.921000", "094642.924000", "094642.926000", "094642.928000", "094642.930000", "094642.933000", "094642.935000", "094642.938000", "094642.940000", "094642.942000", "094642.945000", "094642.947000", "094642.949000", "094707.942000", "094707.944000", "094707.947000", "094707.949000", "094707.952000", "094707.954000", "094707.956000", "094707.959000", "094707.961000", "094707.963000", "094707.966000", "094707.968000", "094707.974000"],
      "InstanceCreationTime": ["094122.908000", "094123.109000", "094123.120000", "094123.131000", "094123.143000", "094123.154000", "094123.165000", "094123.177000", "094123.194000", "094123.205000", "094123.217000", "094123.231000", "094123.246000", "094123.257000", "094123.269000", "094123.280000", "094123.291000", "094123.313000", "094123.326000", "094123.337000", "094123.348000", "094123.360000", "094123.371000", "094123.383000", "094123.394000", "094123.406000", "094123.417000", "094202.904000", "094202.907000", "094202.909000", "094202.912000", "094202.914000", "094202.916000", "094202.919000", "094202.921000", "094202.923000", "094202.926000", "094202.928000", "094202.930000", "094202.933000", "094202.935000", "094202.937000", "094202.940000", "094202.942000", "094202.945000", "094202.947000", "094202.949000", "094242.903000", "094242.906000", "094242.908000", "094242.910000", "094242.913000", "094242.915000", "094242.917000", "094242.920000", "094242.922000", "094242.924000", "094242.927000", "094242.929000", "094242.931000", "094242.934000", "094242.936000", "094242.938000", "094242.941000", "094242.943000", "094242.945000", "094242.956000", "094322.903000", "094322.906000", "094322.908000", "094322.910000", "094322.913000", "094322.915000", "094322.917000", "094322.920000", "094322.922000", "094322.924000", "094322.927000", "094322.929000", "094322.931000", "094322.933000", "094322.936000", "094322.938000", "094322.940000", "094322.943000", "094322.945000", "094322.948000", "094402.904000", "094402.907000", "094402.909000", "094402.911000", "094402.914000", "094402.916000", "094402.918000", "094402.921000", "094402.923000", "094402.925000", "094402.928000", "094402.930000", "094402.932000", "094402.935000", "094402.937000", "094402.939000", "094402.942000", "094402.944000", "094402.946000", "094402.949000", "094442.903000", "094442.906000", "094442.908000", "094442.910000", "094442.913000", "094442.915000", "094442.917000", "094442.920000", "094442.922000", "094442.924000", "094442.927000", "094442.929000", "094442.931000", "094442.933000", "094442.936000", "094442.938000", "094442.940000", "094442.943000", "094442.945000", "094442.947000", "094522.903000", "094522.906000", "094522.908000", "094522.910000", "094522.913000", "094522.915000", "094522.917000", "094522.920000", "094522.922000", "094522.924000", "094522.927000", "094522.929000", "094522.931000", "094522.934000", "094522.936000", "094522.938000", "094522.941000", "094522.943000", "094522.945000", "094522.948000", "094602.903000", "094602.906000", "094602.908000", "094602.911000", "094602.913000", "094602.915000", "094602.918000", "094602.920000", "094602.922000", "094602.924000", "094602.927000", "094602.929000", "094602.931000", "094602.934000", "094602.936000", "094602.938000", "094602.941000", "094602.943000", "094602.945000", "094602.948000", "094642.904000", "094642.907000", "094642.909000", "094642.912000", "094642.914000", "094642.917000", "094642.919000", "094642.921000", "094642.924000", "094642.926000", "094642.928000", "094642.930000", "094642.933000", "094642.935000", "094642.938000", "094642.940000", "094642.942000", "094642.945000", "094642.947000", "094642.949000", "094707.942000", "094707.944000", "094707.947000", "094707.949000", "094707.952000", "094707.954000", "094707.956000", "094707.959000", "094707.961000", "094707.963000", "094707.966000", "094707.968000", "094707.974000"],
      "InstanceNumber": [1, 2, 3, 4, 5, 6, 7, 8, 9, 10, 11, 12, 13, 14, 15, 16, 17, 18, 19, 20, 21, 22, 23, 24, 25, 26, 27, 28, 29, 30, 31, 32, 33, 34, 35, 36, 37, 38, 39, 40, 41, 42, 43, 44, 45, 46, 47, 48, 49, 50, 51, 52, 53, 54, 55, 56, 57, 58, 59, 60, 61, 62, 63, 64, 65, 66, 67, 68, 69, 70, 71, 72, 73, 74, 75, 76, 77, 78, 79, 80, 81, 82, 83, 84, 85, 86, 87, 88, 89, 90, 91, 92, 93, 94, 95, 96, 97, 98, 99, 100, 101, 102, 103, 104, 105, 106, 107, 108, 109, 110, 111, 112, 113, 114, 115, 116, 117, 118, 119, 120, 121, 122, 123, 124, 125, 126, 127, 128, 129, 130, 131, 132, 133, 134, 135, 136, 137, 138, 139, 140, 141, 142, 143, 144, 145, 146, 147, 148, 149, 150, 151, 152, 153, 154, 155, 156, 157, 158, 159, 160, 161, 162, 163, 164, 165, 166, 167, 168, 169, 170, 171, 172, 173, 174, 175, 176, 177, 178, 179, 180, 181, 182, 183, 184, 185, 186, 187, 188, 189, 190, 191, 192, 193, 194, 195, 196, 197, 198, 199, 200],
      "LargestImagePixelValue": [2157, 2157, 2158, 2164, 2155, 2150, 2155, 2158, 2155, 2157, 2159, 2158, 2158, 2157, 2159, 2150, 2157, 2155, 2159, 2159, 2155, 2153, 2148, 2160, 2160, 2156, 2156, 2153, 2156, 2157, 2153, 2158, 2153, 2157, 2155, 2152, 2156, 2157, 2159, 2154, 2147, 2155, 2156, 2155, 2159, 2153, 2158, 2157, 2153, 2157, 2155, 2155, 2153, 2157, 2163, 2158, 2161, 2152, 2158, 2150, 2161, 2157, 2156, 2157, 2162, 2153, 2154, 2154, 2158, 2158, 2158, 2153, 2165, 2156, 2155, 2160, 2154, 2148, 2155, 2154, 2152, 2158, 2155, 2157, 2159, 2155, 2151, 2156, 2153, 2154, 2154, 2156, 2150, 2159, 2157, 2153, 2155, 2156, 2155, 2155, 2160, 2157, 2155, 2157, 2156, 2153, 2155, 2153, 2159, 2154, 2162, 2156, 2160, 2159, 2147, 2153, 2156, 2150, 2155, 2157, 2156, 2153, 2150, 2156, 2152, 2157, 2154, 2154, 2157, 2152, 2160, 2157, 2152, 2155, 2160, 2153, 2157, 2153, 2156, 2156, 2154, 2153, 2155, 2154, 2153, 2164, 2148, 2153, 2154, 2153, 2152, 2153, 2155, 2155, 2155, 2155, 2155, 2158, 2155, 2158, 2156, 2155, 2150, 2160, 2162, 2163, 2154, 2160, 2154, 2155, 2157, 2146, 2155, 2158, 2155, 2158, 2156, 2156, 2155, 2152, 2148, 2158, 2157, 2155, 2149, 2154, 2161, 2152, 2153, 2156, 2161, 2156, 2157, 2156, 2155, 2159, 2153, 2156, 2152, 2156],
      "WindowCenter": [1025.0, 1026.0, 1025.0, 1026.0, 1026.0, 1025.0, 1026.0, 1026.0, 1025.0, 1026.0, 1025.0, 1026.0, 1025.0, 1025.0, 1025.0, 1025.0, 1024.0, 1024.0, 1024.0, 1025.0, 1025.0, 1025.0, 1024.0, 1024.0, 1024.0, 1025.0, 1024.0, 1024.0, 1024.0, 1024.0, 1024.0, 1024.0, 1025.0, 1025.0, 1024.0, 1024.0, 1024.0, 1024.0, 1024.0, 1024.0, 1025.0, 1024.0, 1024.0, 1024.0, 1024.0, 1024.0, 1024.0, 1025.0, 1024.0, 1024.0, 1024.0, 1024.0, 1024.0, 1024.0, 1024.0, 1024.0, 1025.0, 1024.0, 1024.0, 1025.0, 1025.0, 1024.0, 1024.0, 1024.0, 1024.0, 1024.0, 1024.0, 1024.0, 1024.0, 1024.0, 1025.0, 1024.0, 1024.0, 1025.0, 1024.0, 1024.0, 1025.0, 1025.0, 1024.0, 1025.0, 1024.0, 1024.0, 1024.0, 1025.0, 1024.0, 1024.0, 1025.0, 1024.0, 1025.0, 1025.0, 1024.0, 1024.0, 1024.0, 1024.0, 1024.0, 1024.0, 1024.0, 1024.0, 1025.0, 1025.0, 1024.0, 1024.0, 1024.0, 1023.0, 1023.0, 1024.0, 1024.0, 1023.0, 1023.0, 1023.0, 1023.0, 1025.0, 1024.0, 1023.0, 1023.0, 1024.0, 1023.0, 1023.0, 1023.0, 1023.0, 1024.0, 1023.0, 1023.0, 1024.0, 1023.0, 1023.0, 1023.0, 1023.0, 1024.0, 1023.0, 1023.0, 1023.0, 1023.0, 1024.0, 1023.0, 1023.0, 1024.0, 1023.0, 1023.0, 1023.0, 1023.0, 1023.0, 1024.0, 1023.0, 1024.0, 1024.0, 1024.0, 1023.0, 1024.0, 1023.0, 1024.0, 1023.0, 1024.0, 1024.0, 1023.0, 1024.0, 1023.0, 1023.0, 1023.0, 1024.0, 1023.0, 1023.0, 1023.0, 1023.0, 1024.0, 1023.0, 1024.0, 1023.0, 1023.0, 1023.0, 1023.0, 1023.0, 1023.0, 1023.0, 1023.0, 1024.0, 1023.0, 1023.0, 1023.0, 1023.0, 1023.0, 1023.0, 1023.0, 1024.0, 1023.0, 1023.0, 1023.0, 1023.0, 1023.0, 1023.0, 1023.0, 1023.0, 1023.0, 1023.0, 1024.0, 1023.0, 1024.0, 1023.0, 1023.0, 1023.0],
      "WindowWidth": [2282.0, 2282.0, 2282.0, 2282.0, 2282.0, 2281.0, 2282.0, 2282.0, 2281.0, 2282.0, 2281.0, 2282.0, 2281.0, 2281.0, 2281.0, 2282.0, 2281.0, 2281.0, 2281.0, 2282.0, 2282.0, 2282.0, 2281.0, 2281.0, 2281.0, 2282.0, 2281.0, 2281.0, 2281.0, 2280.0, 2280.0, 2281.0, 2282.0, 2282.0, 2280.0, 2280.0, 2281.0, 2281.0, 2280.0, 2281.0, 2281.0, 2280.0, 2280.0, 2281.0, 2280.0, 2280.0, 2280.0, 2281.0, 2280.0, 2280.0, 2280.0, 2280.0, 2280.0, 2280.0, 2280.0, 2280.0, 2281.0, 2280.0, 2280.0, 2281.0, 2281.0, 2280.0, 2280.0, 2280.0, 2280.0, 2280.0, 2279.0, 2279.0, 2279.0, 2279.0, 2280.0, 2280.0, 2280.0, 2280.0, 2279.0, 2279.0, 2280.0, 2280.0, 2279.0, 2280.0, 2279.0, 2279.0, 2279.0, 2280.0, 2279.0, 2279.0, 2280.0, 2279.0, 2280.0, 2280.0, 2279.0, 2279.0, 2279.0, 2279.0, 2279.0, 2279.0, 2279.0, 2279.0, 2280.0, 2280.0, 2279.0, 2279.0, 2279.0, 2279.0, 2279.0, 2279.0, 2279.0, 2279.0, 2279.0, 2279.0, 2279.0, 2279.0, 2279.0, 2279.0, 2278.0, 2279.0, 2278.0, 2278.0, 2279.0, 2279.0, 2279.0, 2278.0, 2278.0, 2278.0, 2278.0, 2278.0, 2278.0, 2278.0, 2279.0, 2278.0, 2278.0, 2278.0, 2278.0, 2279.0, 2278.0, 2278.0, 2279.0, 2278.0, 2278.0, 2278.0, 2278.0, 2278.0, 2279.0, 2278.0, 2278.0, 2278.0, 2279.0, 2278.0, 2278.0, 2278.0, 2278.0, 2278.0, 2278.0, 2278.0, 2278.0, 2278.0, 2277.0, 2278.0, 2278.0, 2278.0, 2278.0, 2278.0, 2278.0, 2278.0, 2278.0, 2278.0, 2278.0, 2278.0, 2278.0, 2278.0, 2277.0, 2277.0, 2278.0, 2278.0, 2277.0, 2278.0, 2277.0, 2277.0, 2277.0, 2277.0, 2277.0, 2277.0, 2277.0, 2278.0, 2277.0, 2277.0, 2278.0, 2277.0, 2277.0, 2277.0, 2277.0, 2277.0, 2277.0, 2277.0, 2278.0, 2277.0, 2278.0, 2277.0, 2277.0, 2277.0]
    },
    "slices": {}
  }
}