{
  "AcquisitionMatrixPE": 80,
  "AcquisitionNumber": 1,
  "AcquisitionTime": "09:47:20.077500",
  "BandwidthPerPixelPhaseEncode": 46.296,
  "BaseResolution": 80,
  "BodyPartExamined": "BRAIN",
  "CoilCombinationMethod": "Sum of Squares",
  "ConsistencyInfo": "N4_VE11E_LATEST_20181129",
  "ConversionSoftware": "dcm2niix",
  "ConversionSoftwareVersion": "v1.0.20220720",
  "DerivedVendorReportedEchoSpacing": 0.000540003,
  "DeviceSerialNumber": "66112",
  "DwellTime": 2.7e-06,
  "EchoTime": 0.035,
  "EchoTrainLength": 39,
  "EffectiveEchoSpacing": 0.000270002,
  "FlipAngle": 90,
  "HeudiconvVersion": "0.13.1",
  "ImageOrientationPatientDICOM": [0.999572, 0.0286015, 0.00621577, -0.0291427, 0.952835, 0.302087],
  "ImageOrientationText": "Tra>Cor(17.6)>Sag(-0.2)",
  "ImageType": [
    "ORIGINAL",
    "PRIMARY",
    "M",
    "ND",
    "NORM",
    "MOSAIC"
],
  "ImagingFrequency": 123.259,
  "InPlanePhaseEncodingDirectionDICOM": "COL",
  "InstitutionAddress": "Maynard 3,Hanover,NH,US,03755",
  "InstitutionName": "Dartmouth College - PBS",
  "InstitutionalDepartmentName": "Department",
  "MRAcquisitionType": "2D",
  "MagneticFieldStrength": 3,
  "Manufacturer": "Siemens",
  "ManufacturersModelName": "Prisma",
  "Modality": "MR",
  "MultibandAccelerationFactor": 4,
  "NonlinearGradientCorrection": false,
  "ParallelReductionFactorInPlane": 2,
  "PartialFourier": 1,
  "PatientPosition": "HFS",
  "PercentPhaseFOV": 100,
  "PercentSampling": 100,
  "PhaseEncodingDirection": "j-",
  "PhaseEncodingSteps": 79,
  "PhaseResolution": 1,
  "PixelBandwidth": 2315,
  "ProcedureStepDescription": "dbic^QA",
  "ProtocolName": "func-bold_task-rest_acq-p2-s4-3.5mm",
  "PulseSequenceDetails": "%SiemensSeq%\\ep2d_bold",
  "ReceiveCoilActiveElements": "HEA;HEP",
  "ReceiveCoilName": "Head_32",
  "ReconMatrixPE": 80,
  "RefLinesPE": 24,
  "RepetitionTime": 2,
  "SAR": 0.0306046,
  "ScanOptions": "FS",
  "ScanningSequence": "EP",
  "SequenceName": "*epfid2d1_80",
  "SequenceVariant": "SK",
  "SeriesDescription": "func-bold_task-rest_acq-p2-s4-3.5mm",
  "SeriesNumber": 6,
  "ShimSetting": [4225, -7748, -7484, -15, -115, -37, 4, 82],
  "SliceThickness": 3.5,
  "SliceTiming": [1.485, 0, 0.99, 0.2475, 1.2375, 0.7425, 1.7325, 0.495, 1.485, 0, 0.99, 0.2475, 1.2375, 0.7425, 1.7325, 0.495, 1.485, 0, 0.99, 0.2475, 1.2375, 0.7425, 1.7325, 0.495, 1.485, 0, 0.99, 0.2475, 1.2375, 0.7425, 1.7325, 0.495],
  "SoftwareVersions": "syngo MR E11",
  "SpacingBetweenSlices": 3.99,
  "StationName": "AWP66112",
  "TaskName": "rest",
  "TotalReadoutTime": 0.0213301,
  "TxRefAmp": 222.97,
  "dcmmeta_affine": [
    [-2.9987146854400635, -0.08742817491292953, -0.010843061842024326, 124.62271118164062],
    [-0.08580459654331207, 2.858504056930542, 1.2055352926254272, -124.48078918457031],
    [0.018647322431206703, -0.9062623381614685, 3.803507089614868, -20.479969024658203],
    [0.0, 0.0, 0.0, 1.0]
],
  "dcmmeta_reorient_transform": [
    [0.0, -1.0, 0.0, 79.0],
    [1.0, 0.0, 0.0, 0.0],
    [0.0, 0.0, 1.0, 0.0],
    [0.0, 0.0, 0.0, 1.0]
],
  "dcmmeta_shape": [80, 80, 32, 200],
  "dcmmeta_slice_dim": 2,
  "dcmmeta_version": 0.6,
  "global": {
    "const": {
      "AccessionNumber": "qa",
      "AcquisitionMatrix": [80, 0, 0, 80],
      "AngioFlag": "N",
      "BitsAllocated": 16,
      "BitsStored": 12,
      "BodyPartExamined": "BRAIN",
      "Columns": 480,
      "EchoNumbers": 1,
      "EchoTime": 35.0,
      "EchoTrainLength": 39,
      "FlipAngle": 90.0,
      "HighBit": 11,
      "ImageOrientationPatient": [0.99957156644683, 0.02860153326124, 0.00621577397679, -0.0291427250251, 0.95283465210533, 0.30208744979796],
      "ImagePositionPatient": [-699.97318955167, -690.20273136615, -277.05662922329],
      "ImageType": [
        "ORIGINAL",
        "PRIMARY",
        "M",
        "ND",
        "NORM",
        "MOSAIC"
],
      "ImagedNucleus": "1H",
      "ImagingFrequency": 123.259235,
      "InPlanePhaseEncodingDirection": "COL",
      "MRAcquisitionType": "2D",
      "MagneticFieldStrength": 3.0,
      "Manufacturer": "SIEMENS",
      "ManufacturerModelName": "Prisma",
      "Modality": "MR",
      "NumberOfAverages": 1.0,
      "NumberOfPhaseEncodingSteps": 79,
      "PercentPhaseFieldOfView": 100.0,
      "PercentSampling": 100.0,
      "PerformedProcedureStepStartTime": "093652.361000",
      "PhotometricInterpretation": "MONOCHROME2",
      "PixelBandwidth": 2315.0,
      "PixelRepresentation": 0,
      "PixelSpacing": [3.0, 3.0],
      "ProtocolName": "func-bold_task-rest_acq-p2-s4-3.5mm",
      "RepetitionTime": 2000.0,
      "Rows": 480,
      "SAR": 0.03060464341378,
      "SamplesPerPixel": 1,
      "ScanOptions": "FS",
      "ScanningSequence": "EP",
      "SequenceName": "*epfid2d1_80",
      "SequenceVariant": "SK",
      "SeriesDescription": "func-bold_task-rest_acq-p2-s4-3.5mm",
      "SeriesNumber": 6,
      "SeriesTime": "094802.990000",
      "SliceLocation": -57.471927529343,
      "SliceThickness": 3.5,
      "SmallestImagePixelValue": 0,
      "SoftwareVersions": "syngo MR E11",
      "SpacingBetweenSlices": 3.9899999468177,
      "SpecificCharacterSet": "ISO_IR 100",
      "StudyID": "27",
      "StudyTime": "093652.309000",
      "TransmitCoilName": "Body",
      "VariableFlipAngleFlag": "N",
      "WindowCenterWidthExplanation": "Algo1"
    },
    "slices": {}
  },
  "time": {
    "samples": {
      "AcquisitionNumber": [1, 2, 3, 4, 5, 6, 7, 8, 9, 10, 11, 12, 13, 14, 15, 16, 17, 18, 19, 20, 21, 22, 23, 24, 25, 26, 27, 28, 29, 30, 31, 32, 33, 34, 35, 36, 37, 38, 39, 40, 41, 42, 43, 44, 45, 46, 47, 48, 49, 50, 51, 52, 53, 54, 55, 56, 57, 58, 59, 60, 61, 62, 63, 64, 65, 66, 67, 68, 69, 70, 71, 72, 73, 74, 75, 76, 77, 78, 79, 80, 81, 82, 83, 84, 85, 86, 87, 88, 89, 90, 91, 92, 93, 94, 95, 96, 97, 98, 99, 100, 101, 102, 103, 104, 105, 106, 107, 108, 109, 110, 111, 112, 113, 114, 115, 116, 117, 118, 119, 120, 121, 122, 123, 124, 125, 126, 127, 128, 129, 130, 131, 132, 133, 134, 135, 136, 137, 138, 139, 140, 141, 142, 143, 144, 145, 146, 147, 148, 149, 150, 151, 152, 153, 154, 155, 156, 157, 158, 159, 160, 161, 162, 163, 164, 165, 166, 167, 168, 169, 170, 171, 172, 173, 174, 175, 176, 177, 178, 179, 180, 181, 182, 183, 184, 185, 186, 187, 188, 189, 190, 191, 192, 193, 194, 195, 196, 197, 198, 199, 200],
      "AcquisitionTime": ["094720.077500", "094722.077500", "094724.077500", "094726.077500", "094728.077500", "094730.077500", "094732.077500", "094734.077500", "094736.077500", "094738.077500", "094740.077500", "094742.077500", "094744.077500", "094746.077500", "094748.077500", "094750.077500", "094752.077500", "094754.077500", "094756.077500", "094758.077500", "094800.077500", "094802.077500", "094804.077500", "094806.077500", "094808.077500", "094810.077500", "094812.077500", "094814.077500", "094816.077500", "094818.077500", "094820.077500", "094822.077500", "094824.077500", "094826.077500", "094828.077500", "094830.077500", "094832.077500", "094834.077500", "094836.077500", "094838.077500", "094840.077500", "094842.077500", "094844.077500", "094846.077500", "094848.077500", "094850.077500", "094852.077500", "094854.077500", "094856.077500", "094858.077500", "094900.077500", "094902.077500", "094904.077500", "094906.077500", "094908.077500", "094910.077500", "094912.077500", "094914.077500", "094916.077500", "094918.077500", "094920.077500", "094922.077500", "094924.077500", "094926.077500", "094928.077500", "094930.077500", "094932.077500", "094934.077500", "094936.077500", "094938.077500", "094940.077500", "094942.077500", "094944.077500", "094946.077500", "094948.077500", "094950.077500", "094952.077500", "094954.077500", "094956.077500", "094958.077500", "095000.077500", "095002.077500", "095004.077500", "095006.077500", "095008.077500", "095010.077500", "095012.077500", "095014.077500", "095016.077500", "095018.077500", "095020.077500", "095022.077500", "095024.077500", "095026.077500", "095028.077500", "095030.077500", "095032.077500", "095034.077500", "095036.077500", "095038.077500", "095040.077500", "095042.077500", "095044.077500", "095046.077500", "095048.077500", "095050.077500", "095052.077500", "095054.077500", "095056.077500", "095058.077500", "095100.077500", "095102.077500", "095104.077500", "095106.077500", "095108.077500", "095110.077500", "095112.077500", "095114.077500", "095116.077500", "095118.077500", "095120.077500", "095122.077500", "095124.077500", "095126.077500", "095128.077500", "095130.077500", "095132.077500", "095134.077500", "095136.077500", "095138.077500", "095140.077500", "095142.077500", "095144.077500", "095146.077500", "095148.077500", "095150.077500", "095152.077500", "095154.077500", "095156.077500", "095158.077500", "095200.077500", "095202.077500", "095204.077500", "095206.077500", "095208.077500", "095210.077500", "095212.077500", "095214.077500", "095216.077500", "095218.077500", "095220.077500", "095222.077500", "095224.077500", "095226.077500", "095228.077500", "095230.077500", "095232.077500", "095234.077500", "095236.077500", "095238.077500", "095240.077500", "095242.077500", "095244.077500", "095246.077500", "095248.077500", "095250.077500", "095252.077500", "095254.077500", "095256.077500", "095258.077500", "095300.077500", "095302.077500", "095304.077500", "095306.077500", "095308.077500", "095310.077500", "095312.077500", "095314.077500", "095316.077500", "095318.077500", "095320.077500", "095322.077500", "095324.077500", "095326.077500", "095328.077500", "095330.077500", "095332.077500", "095334.077500", "095336.077500", "095338.077500", "095340.077500", "095342.077500", "095344.077500", "095346.077500", "095348.077500", "095350.077500", "095352.077500", "095354.077500", "095356.077500", "095358.077500"],
      "ContentTime": ["094802.993000", "094802.996000", "094803.002000", "094803.005000", "094803.007000", "094803.012000", "094803.014000", "094803.017000", "094803.019000", "094803.021000", "094803.024000", "094803.026000", "094803.034000", "094803.036000", "094803.038000", "094803.041000", "094803.043000", "094803.046000", "094803.048000", "094803.050000", "094803.053000", "094843.011000", "094843.013000", "094843.015000", "094843.018000", "094843.020000", "094843.022000", "094843.025000", "094843.027000", "094843.029000", "094843.032000", "094843.034000", "094843.036000", "094843.039000", "094843.041000", "094843.043000", "094843.046000", "094843.048000", "094843.050000", "094843.053000", "094843.055000", "094922.988000", "094923.001000", "094923.004000", "094923.006000", "094923.008000", "094923.011000", "094923.013000", "094923.015000", "094923.018000", "094923.020000", "094923.022000", "094923.025000", "094923.027000", "094923.037000", "094923.039000", "094923.042000", "094923.044000", "094923.046000", "094923.049000", "094923.051000", "095002.988000", "095002.991000", "095002.993000", "095002.996000", "095002.998000", "095003.000000", "095003.002000", "095003.005000", "095003.007000", "095003.009000", "095003.012000", "095003.014000", "095003.016000", "095003.019000", "095003.021000", "095003.023000", "095003.026000", "095003.028000", "095003.030000", "095003.033000", "095042.988000", "095042.991000", "095042.993000", "095042.996000", "095042.998000", "095043.000000", "095043.003000", "095043.005000", "095043.007000", "095043.010000", "095043.012000", "095043.014000", "095043.017000", "095043.019000", "095043.021000", "095043.024000", "095043.026000", "095043.028000", "095043.031000", "095043.033000", "095122.989000", "095122.992000", "095122.994000", "095122.997000", "095123.010000", "095123.013000", "095123.015000", "095123.017000", "095123.020000", "095123.022000", "095123.024000", "095123.027000", "095123.029000", "095123.031000", "095123.034000", "095123.036000", "095123.038000", "095123.041000", "095123.043000", "095123.045000", "095202.988000", "095202.991000", "095202.993000", "095202.995000", "095202.998000", "095203.000000", "095203.003000", "095203.005000", "095203.007000", "095203.009000", "095203.012000", "095203.014000", "095203.016000", "095203.019000", "095203.021000", "095203.023000", "095203.026000", "095203.028000", "095203.030000", "095203.033000", "095242.988000", "095242.991000", "095242.993000", "095242.996000", "095242.998000", "095243.001000", "095243.004000", "095243.006000", "095243.008000", "095243.011000", "095243.013000", "095243.015000", "095243.018000", "095243.020000", "095243.022000", "095243.025000", "095243.027000", "095243.029000", "095243.032000", "095243.034000", "095322.989000", "095322.992000", "095322.994000", "095322.997000", "095323.000000", "095323.002000", "095323.005000", "095323.007000", "095323.009000", "095323.012000", "095323.014000", "095323.016000", "095323.019000", "095323.021000", "095323.023000", "095323.026000", "095323.028000", "095323.030000", "095323.033000", "095323.035000", "095359.062000", "095359.065000", "095359.068000", "095359.071000", "095359.074000", "095359.076000", "095359.079000", "095359.082000", "095359.085000", "095359.088000", "095359.091000", "095359.093000", "095359.096000", "095359.099000", "095359.101000", "095359.104000", "095359.106000", "095359.109000", "095359.111000"],
      "InstanceCreationTime": ["094802.993000", "094802.996000", "094803.002000", "094803.005000", "094803.007000", "094803.012000", "094803.014000", "094803.017000", "094803.019000", "094803.021000", "094803.024000", "094803.026000", "094803.034000", "094803.036000", "094803.038000", "094803.041000", "094803.043000", "094803.046000", "094803.048000", "094803.050000", "094803.053000", "094843.011000", "094843.013000", "094843.015000", "094843.018000", "094843.020000", "094843.022000", "094843.025000", "094843.027000", "094843.029000", "094843.032000", "094843.034000", "094843.036000", "094843.039000", "094843.041000", "094843.043000", "094843.046000", "094843.048000", "094843.050000", "094843.053000", "094843.055000", "094922.988000", "094923.001000", "094923.004000", "094923.006000", "094923.008000", "094923.011000", "094923.013000", "094923.015000", "094923.018000", "094923.020000", "094923.022000", "094923.025000", "094923.027000", "094923.037000", "094923.039000", "094923.042000", "094923.044000", "094923.046000", "094923.049000", "094923.051000", "095002.988000", "095002.991000", "095002.993000", "095002.996000", "095002.998000", "095003.000000", "095003.002000", "095003.005000", "095003.007000", "095003.009000", "095003.012000", "095003.014000", "095003.016000", "095003.019000", "095003.021000", "095003.023000", "095003.026000", "095003.028000", "095003.030000", "095003.033000", "095042.988000", "095042.991000", "095042.993000", "095042.996000", "095042.998000", "095043.000000", "095043.003000", "095043.005000", "095043.007000", "095043.010000", "095043.012000", "095043.014000", "095043.017000", "095043.019000", "095043.021000", "095043.024000", "095043.026000", "095043.028000", "095043.031000", "095043.033000", "095122.989000", "095122.992000", "095122.994000", "095122.997000", "095123.010000", "095123.013000", "095123.015000", "095123.017000", "095123.020000", "095123.022000", "095123.024000", "095123.027000", "095123.029000", "095123.031000", "095123.034000", "095123.036000", "095123.038000", "095123.041000", "095123.043000", "095123.045000", "095202.988000", "095202.991000", "095202.993000", "095202.995000", "095202.998000", "095203.000000", "095203.003000", "095203.005000", "095203.007000", "095203.009000", "095203.012000", "095203.014000", "095203.016000", "095203.019000", "095203.021000", "095203.023000", "095203.026000", "095203.028000", "095203.030000", "095203.033000", "095242.988000", "095242.991000", "095242.993000", "095242.996000", "095242.998000", "095243.001000", "095243.004000", "095243.006000", "095243.008000", "095243.011000", "095243.013000", "095243.015000", "095243.018000", "095243.020000", "095243.022000", "095243.025000", "095243.027000", "095243.029000", "095243.032000", "095243.034000", "095322.989000", "095322.992000", "095322.994000", "095322.997000", "095323.000000", "095323.002000", "095323.005000", "095323.007000", "095323.009000", "095323.012000", "095323.014000", "095323.016000", "095323.019000", "095323.021000", "095323.023000", "095323.026000", "095323.028000", "095323.030000", "095323.033000", "095323.035000", "095359.062000", "095359.065000", "095359.068000", "095359.071000", "095359.074000", "095359.076000", "095359.079000", "095359.082000", "095359.085000", "095359.088000", "095359.091000", "095359.093000", "095359.096000", "095359.099000", "095359.101000", "095359.104000", "095359.106000", "095359.109000", "095359.111000"],
      "InstanceNumber": [1, 2, 3, 4, 5, 6, 7, 8, 9, 10, 11, 12, 13, 14, 15, 16, 17, 18, 19, 20, 21, 22, 23, 24, 25, 26, 27, 28, 29, 30, 31, 32, 33, 34, 35, 36, 37, 38, 39, 40, 41, 42, 43, 44, 45, 46, 47, 48, 49, 50, 51, 52, 53, 54, 55, 56, 57, 58, 59, 60, 61, 62, 63, 64, 65, 66, 67, 68, 69, 70, 71, 72, 73, 74, 75, 76, 77, 78, 79, 80, 81, 82, 83, 84, 85, 86, 87, 88, 89, 90, 91, 92, 93, 94, 95, 96, 97, 98, 99, 100, 101, 102, 103, 104, 105, 106, 107, 108, 109, 110, 111, 112, 113, 114, 115, 116, 117, 118, 119, 120, 121, 122, 123, 124, 125, 126, 127, 128, 129, 130, 131, 132, 133, 134, 135, 136, 137, 138, 139, 140, 141, 142, 143, 144, 145, 146, 147, 148, 149, 150, 151, 152, 153, 154, 155, 156, 157, 158, 159, 160, 161, 162, 163, 164, 165, 166, 167, 168, 169, 170, 171, 172, 173, 174, 175, 176, 177, 178, 179, 180, 181, 182, 183, 184, 185, 186, 187, 188, 189, 190, 191, 192, 193, 194, 195, 196, 197, 198, 199, 200],
      "LargestImagePixelValue": [2157, 2156, 2153, 2160, 2160, 2155, 2154, 2158, 2155, 2158, 2154, 2154, 2155, 2158, 2159, 2159, 2161, 2154, 2156, 2157, 2161, 2158, 2159, 2163, 2156, 2159, 2161, 2158, 2157, 2154, 2155, 2159, 2165, 2154, 2160, 2161, 2160, 2158, 2162, 2158, 2160, 2161, 2160, 2158, 2156, 2157, 2158, 2159, 2160, 2154, 2160, 2156, 2159, 2161, 2158, 2161, 2158, 2158, 2158, 2157, 2159, 2160, 2163, 2160, 2158, 2161, 2163, 2158, 2159, 2160, 2160, 2156, 2159, 2161, 2159, 2161, 2161, 2159, 2159, 2161, 2160, 2161, 2161, 2161, 2156, 2162, 2156, 2159, 2162, 2162, 2160, 2156, 2160, 2161, 2159, 2162, 2162, 2160, 2161, 2161, 2160, 2162, 2160, 2161, 2156, 2160, 2161, 2157, 2161, 2159, 2158, 2157, 2160, 2164, 2165, 2157, 2161, 2160, 2161, 2165, 2165, 2160, 2161, 2163, 2159, 2159, 2161, 2157, 2158, 2158, 2159, 2159, 2155, 2160, 2157, 2159, 2165, 2160, 2163, 2162, 2159, 2160, 2161, 2158, 2157, 2162, 2162, 2158, 2162, 2162, 2160, 2162, 2166, 2162, 2159, 2164, 2161, 2162, 2162, 2162, 2160, 2163, 2164, 2163, 2162, 2158, 2161, 2159, 2161, 2162, 2162, 2161, 2163, 2161, 2163, 2163, 2158, 2161, 2162, 2160, 2160, 2159, 2158, 2161, 2159, 2159, 2163, 2157, 2162, 2161, 2162, 2161, 2160, 2167, 2158, 2164, 2161, 2161, 2159, 2159],
      "WindowCenter": [960.0, 960.0, 961.0, 961.0, 960.0, 960.0, 961.0, 961.0, 961.0, 959.0, 959.0, 959.0, 961.0, 960.0, 960.0, 960.0, 961.0, 960.0, 959.0, 961.0, 960.0, 961.0, 960.0, 959.0, 960.0, 959.0, 961.0, 961.0, 959.0, 960.0, 959.0, 960.0, 960.0, 961.0, 959.0, 959.0, 959.0, 959.0, 959.0, 961.0, 961.0, 961.0, 959.0, 959.0, 960.0, 961.0, 959.0, 960.0, 961.0, 961.0, 959.0, 960.0, 960.0, 960.0, 959.0, 960.0, 959.0, 961.0, 960.0, 959.0, 959.0, 960.0, 962.0, 959.0, 961.0, 959.0, 960.0, 961.0, 960.0, 960.0, 960.0, 959.0, 959.0, 961.0, 960.0, 961.0, 959.0, 960.0, 960.0, 960.0, 959.0, 960.0, 960.0, 960.0, 961.0, 960.0, 959.0, 959.0, 959.0, 960.0, 960.0, 959.0, 960.0, 959.0, 960.0, 959.0, 961.0, 960.0, 960.0, 960.0, 959.0, 959.0, 959.0, 959.0, 959.0, 959.0, 959.0, 959.0, 959.0, 959.0, 961.0, 959.0, 960.0, 959.0, 960.0, 959.0, 960.0, 960.0, 959.0, 961.0, 959.0, 960.0, 960.0, 959.0, 959.0, 959.0, 960.0, 959.0, 960.0, 961.0, 959.0, 959.0, 960.0, 960.0, 959.0, 959.0, 959.0, 959.0, 961.0, 960.0, 959.0, 959.0, 960.0, 960.0, 960.0, 961.0, 959.0, 959.0, 959.0, 959.0, 959.0, 960.0, 959.0, 961.0, 960.0, 959.0, 960.0, 960.0, 960.0, 960.0, 959.0, 959.0, 960.0, 960.0, 959.0, 960.0, 960.0, 959.0, 959.0, 961.0, 960.0, 961.0, 960.0, 959.0, 960.0, 959.0, 960.0, 959.0, 959.0, 960.0, 961.0, 959.0, 959.0, 960.0, 959.0, 959.0, 959.0, 959.0, 959.0, 959.0, 959.0, 960.0, 960.0, 959.0, 959.0, 959.0, 960.0, 959.0, 960.0, 960.0],
      "WindowWidth": [2252.0, 2252.0, 2253.0, 2254.0, 2252.0, 2252.0, 2253.0, 2253.0, 2253.0, 2251.0, 2251.0, 2251.0, 2253.0, 2252.0, 2252.0, 2252.0, 2252.0, 2252.0, 2252.0, 2253.0, 2252.0, 2253.0, 2252.0, 2251.0, 2252.0, 2251.0, 2253.0, 2253.0, 2251.0, 2252.0, 2251.0, 2252.0, 2252.0, 2253.0, 2252.0, 2251.0, 2251.0, 2251.0, 2251.0, 2253.0, 2253.0, 2253.0, 2251.0, 2251.0, 2252.0, 2254.0, 2251.0, 2252.0, 2253.0, 2253.0, 2251.0, 2252.0, 2252.0, 2252.0, 2251.0, 2252.0, 2251.0, 2254.0, 2252.0, 2251.0, 2251.0, 2252.0, 2254.0, 2251.0, 2253.0, 2251.0, 2252.0, 2253.0, 2252.0, 2252.0, 2252.0, 2252.0, 2251.0, 2253.0, 2252.0, 2253.0, 2251.0, 2252.0, 2252.0, 2252.0, 2251.0, 2252.0, 2252.0, 2252.0, 2253.0, 2252.0, 2251.0, 2251.0, 2251.0, 2252.0, 2252.0, 2251.0, 2252.0, 2251.0, 2252.0, 2251.0, 2254.0, 2253.0, 2252.0, 2252.0, 2251.0, 2251.0, 2251.0, 2251.0, 2251.0, 2251.0, 2251.0, 2251.0, 2251.0, 2251.0, 2253.0, 2251.0, 2252.0, 2251.0, 2252.0, 2251.0, 2252.0, 2252.0, 2251.0, 2253.0, 2251.0, 2252.0, 2251.0, 2251.0, 2250.0, 2251.0, 2252.0, 2251.0, 2252.0, 2253.0, 2251.0, 2251.0, 2252.0, 2252.0, 2251.0, 2251.0, 2251.0, 2251.0, 2252.0, 2252.0, 2250.0, 2251.0, 2252.0, 2252.0, 2252.0, 2253.0, 2251.0, 2251.0, 2251.0, 2251.0, 2251.0, 2251.0, 2251.0, 2253.0, 2252.0, 2251.0, 2252.0, 2252.0, 2252.0, 2251.0, 2251.0, 2251.0, 2252.0, 2252.0, 2251.0, 2251.0, 2252.0, 2251.0, 2251.0, 2252.0, 2251.0, 2252.0, 2251.0, 2251.0, 2251.0, 2251.0, 2251.0, 2250.0, 2251.0, 2251.0, 2253.0, 2251.0, 2250.0, 2252.0, 2250.0, 2250.0, 2251.0, 2250.0, 2251.0, 2251.0, 2251.0, 2252.0, 2251.0, 2251.0, 2250.0, 2251.0, 2251.0, 2251.0, 2252.0, 2252.0]
    },
    "slices": {}
  }
}