{
  "AcquisitionMatrixPE": 80,
  "AcquisitionNumber": 1,
  "AcquisitionTime": "09:54:6.412500",
  "BandwidthPerPixelPhaseEncode": 25,
  "BaseResolution": 80,
  "BodyPartExamined": "BRAIN",
  "CoilCombinationMethod": "Sum of Squares",
  "ConsistencyInfo": "N4_VE11E_LATEST_20181129",
  "ConversionSoftware": "dcm2niix",
  "ConversionSoftwareVersion": "v1.0.20220720",
  "DerivedVendorReportedEchoSpacing": 0.0005,
  "DeviceSerialNumber": "66112",
  "DwellTime": 2.7e-06,
  "EchoTime": 0.03,
  "EchoTrainLength": 80,
  "EffectiveEchoSpacing": 0.0005,
  "FlipAngle": 77,
  "HeudiconvVersion": "0.13.1",
  "ImageOrientationPatientDICOM": [0.999572, 0.0286015, 0.00621577, -0.0291427, 0.952835, 0.302087],
  "ImageOrientationText": "Tra>Cor(17.6)>Sag(-0.2)",
  "ImageType": [
    "ORIGINAL",
    "PRIMARY",
    "M",
    "ND",
    "NORM",
    "MOSAIC"
],
  "ImagingFrequency": 123.259,
  "InPlanePhaseEncodingDirectionDICOM": "COL",
  "InstitutionAddress": "Maynard 3,Hanover,NH,US,03755",
  "InstitutionName": "Dartmouth College - PBS",
  "InstitutionalDepartmentName": "Department",
  "MRAcquisitionType": "2D",
  "MagneticFieldStrength": 3,
  "Manufacturer": "Siemens",
  "ManufacturersModelName": "Prisma",
  "MatrixCoilMode": "SENSE",
  "Modality": "MR",
  "NonlinearGradientCorrection": false,
  "PartialFourier": 1,
  "PatientPosition": "HFS",
  "PercentPhaseFOV": 100,
  "PercentSampling": 100,
  "PhaseEncodingDirection": "j-",
  "PhaseEncodingSteps": 80,
  "PhaseResolution": 1,
  "PixelBandwidth": 2315,
  "ProcedureStepDescription": "dbic^QA",
  "ProtocolName": "func-bold_fa-77",
  "PulseSequenceDetails": "%SiemensSeq%\\ep2d_bold",
  "ReceiveCoilActiveElements": "HEA;HEP",
  "ReceiveCoilName": "Head_32",
  "ReconMatrixPE": 80,
  "RepetitionTime": 2,
  "SAR": 0.0639554,
  "ScanOptions": "FS",
  "ScanningSequence": "EP",
  "SequenceName": "*epfid2d1_80",
  "SequenceVariant": "SK",
  "SeriesDescription": "func-bold_fa-77",
  "SeriesNumber": 7,
  "ShimSetting": [4225, -7747, -7485, -15, -117, -38, 2, 83],
  "SliceThickness": 3.5,
  "SliceTiming": [0.99, 0, 1.0575, 0.0675, 1.1225, 0.1325, 1.19, 0.2, 1.255, 0.265, 1.32, 0.33, 1.3875, 0.3975, 1.4525, 0.4625, 1.52, 0.53, 1.585, 0.595, 1.65, 0.66, 1.7175, 0.7275, 1.7825, 0.7925, 1.85, 0.86, 1.915, 0.925],
  "SoftwareVersions": "syngo MR E11",
  "SpacingBetweenSlices": 3.99,
  "StationName": "AWP66112",
  "TotalReadoutTime": 0.0395,
  "TxRefAmp": 222.97,
  "dcmmeta_affine": [
    [-2.9987146854400635, -0.08742817491292953, -0.010843061842024326, 124.66958618164062],
    [-0.08580459654331207, 2.858504056930542, 1.2055352926254272, -125.29845428466797],
    [0.018647322431206703, -0.9062623381614685, 3.803507089614868, -16.703109741210938],
    [0.0, 0.0, 0.0, 1.0]
],
  "dcmmeta_reorient_transform": [
    [0.0, -1.0, 0.0, 79.0],
    [1.0, 0.0, 0.0, 0.0],
    [0.0, 0.0, 1.0, 0.0],
    [0.0, 0.0, 0.0, 1.0]
],
  "dcmmeta_shape": [80, 80, 30, 200],
  "dcmmeta_slice_dim": 2,
  "dcmmeta_version": 0.6,
  "global": {
    "const": {
      "AccessionNumber": "qa",
      "AcquisitionMatrix": [80, 0, 0, 80],
      "AngioFlag": "N",
      "BitsAllocated": 16,
      "BitsStored": 12,
      "BodyPartExamined": "BRAIN",
      "Columns": 480,
      "EchoNumbers": 1,
      "EchoTime": 30.0,
      "EchoTrainLength": 80,
      "FlipAngle": 77.0,
      "HighBit": 11,
      "ImageOrientationPatient": [0.99957156644683, 0.02860153326124, 0.00621577397679, -0.0291427250251, 0.95283465210533, 0.30208744979796],
      "ImagePositionPatient": [-700.02006860478, -689.3850719881, -273.27976993984],
      "ImageType": [
        "ORIGINAL",
        "PRIMARY",
        "M",
        "ND",
        "NORM",
        "MOSAIC"
],
      "ImagedNucleus": "1H",
      "ImagingFrequency": 123.259234,
      "InPlanePhaseEncodingDirection": "COL",
      "MRAcquisitionType": "2D",
      "MagneticFieldStrength": 3.0,
      "Manufacturer": "SIEMENS",
      "ManufacturerModelName": "Prisma",
      "Modality": "MR",
      "NumberOfAverages": 1.0,
      "NumberOfPhaseEncodingSteps": 80,
      "PercentPhaseFieldOfView": 100.0,
      "PercentSampling": 100.0,
      "PerformedProcedureStepStartTime": "093652.361000",
      "PhotometricInterpretation": "MONOCHROME2",
      "PixelBandwidth": 2315.0,
      "PixelRepresentation": 0,
      "PixelSpacing": [3.0, 3.0],
      "ProtocolName": "func-bold_fa-77",
      "RepetitionTime": 2000.0,
      "Rows": 480,
      "SAR": 0.06395544516383,
      "SamplesPerPixel": 1,
      "ScanOptions": "FS",
      "ScanningSequence": "EP",
      "SequenceName": "*epfid2d1_80",
      "SequenceVariant": "SK",
      "SeriesDescription": "func-bold_fa-77",
      "SeriesNumber": 7,
      "SeriesTime": "095503.076000",
      "SliceLocation": -54.118773151056,
      "SliceThickness": 3.5,
      "SmallestImagePixelValue": 0,
      "SoftwareVersions": "syngo MR E11",
      "SpacingBetweenSlices": 3.9899999741003,
      "SpecificCharacterSet": "ISO_IR 100",
      "StudyID": "27",
      "StudyTime": "093652.309000",
      "TransmitCoilName": "Body",
      "VariableFlipAngleFlag": "N",
      "WindowCenterWidthExplanation": "Algo1"
    },
    "slices": {}
  },
  "time": {
    "samples": {
      "AcquisitionNumber": [1, 2, 3, 4, 5, 6, 7, 8, 9, 10, 11, 12, 13, 14, 15, 16, 17, 18, 19, 20, 21, 22, 23, 24, 25, 26, 27, 28, 29, 30, 31, 32, 33, 34, 35, 36, 37, 38, 39, 40, 41, 42, 43, 44, 45, 46, 47, 48, 49, 50, 51, 52, 53, 54, 55, 56, 57, 58, 59, 60, 61, 62, 63, 64, 65, 66, 67, 68, 69, 70, 71, 72, 73, 74, 75, 76, 77, 78, 79, 80, 81, 82, 83, 84, 85, 86, 87, 88, 89, 90, 91, 92, 93, 94, 95, 96, 97, 98, 99, 100, 101, 102, 103, 104, 105, 106, 107, 108, 109, 110, 111, 112, 113, 114, 115, 116, 117, 118, 119, 120, 121, 122, 123, 124, 125, 126, 127, 128, 129, 130, 131, 132, 133, 134, 135, 136, 137, 138, 139, 140, 141, 142, 143, 144, 145, 146, 147, 148, 149, 150, 151, 152, 153, 154, 155, 156, 157, 158, 159, 160, 161, 162, 163, 164, 165, 166, 167, 168, 169, 170, 171, 172, 173, 174, 175, 176, 177, 178, 179, 180, 181, 182, 183, 184, 185, 186, 187, 188, 189, 190, 191, 192, 193, 194, 195, 196, 197, 198, 199, 200],
      "AcquisitionTime": ["095406.412500", "095408.412500", "095410.412500", "095412.412500", "095414.412500", "095416.412500", "095418.412500", "095420.412500", "095422.412500", "095424.412500", "095426.412500", "095428.412500", "095430.412500", "095432.412500", "095434.412500", "095436.412500", "095438.412500", "095440.412500", "095442.412500", "095444.412500", "095446.412500", "095448.412500", "095450.412500", "095452.412500", "095454.412500", "095456.412500", "095458.412500", "095500.412500", "095502.412500", "095504.412500", "095506.412500", "095508.412500", "095510.412500", "095512.412500", "095514.412500", "095516.412500", "095518.412500", "095520.412500", "095522.412500", "095524.412500", "095526.412500", "095528.412500", "095530.412500", "095532.412500", "095534.412500", "095536.412500", "095538.412500", "095540.412500", "095542.412500", "095544.412500", "095546.412500", "095548.412500", "095550.412500", "095552.412500", "095554.412500", "095556.412500", "095558.412500", "095600.412500", "095602.412500", "095604.412500", "095606.412500", "095608.412500", "095610.412500", "095612.412500", "095614.412500", "095616.412500", "095618.412500", "095620.412500", "095622.412500", "095624.412500", "095626.412500", "095628.412500", "095630.412500", "095632.412500", "095634.412500", "095636.412500", "095638.412500", "095640.412500", "095642.412500", "095644.412500", "095646.412500", "095648.412500", "095650.412500", "095652.412500", "095654.412500", "095656.412500", "095658.412500", "095700.412500", "095702.412500", "095704.412500", "095706.412500", "095708.412500", "095710.412500", "095712.412500", "095714.412500", "095716.412500", "095718.412500", "095720.412500", "095722.412500", "095724.412500", "095726.412500", "095728.412500", "095730.412500", "095732.412500", "095734.412500", "095736.412500", "095738.412500", "095740.412500", "095742.412500", "095744.412500", "095746.412500", "095748.412500", "095750.412500", "095752.412500", "095754.412500", "095756.412500", "095758.412500", "095800.412500", "095802.412500", "095804.412500", "095806.412500", "095808.412500", "095810.412500", "095812.412500", "095814.412500", "095816.412500", "095818.412500", "095820.412500", "095822.412500", "095824.412500", "095826.412500", "095828.412500", "095830.412500", "095832.412500", "095834.412500", "095836.412500", "095838.412500", "095840.412500", "095842.412500", "095844.412500", "095846.412500", "095848.412500", "095850.412500", "095852.412500", "095854.412500", "095856.412500", "095858.412500", "095900.412500", "095902.412500", "095904.412500", "095906.412500", "095908.412500", "095910.412500", "095912.412500", "095914.412500", "095916.412500", "095918.412500", "095920.412500", "095922.412500", "095924.412500", "095926.412500", "095928.412500", "095930.412500", "095932.412500", "095934.412500", "095936.412500", "095938.412500", "095940.412500", "095942.412500", "095944.412500", "095946.412500", "095948.412500", "095950.412500", "095952.412500", "095954.412500", "095956.412500", "095958.412500", "100000.412500", "100002.412500", "100004.412500", "100006.412500", "100008.412500", "100010.412500", "100012.412500", "100014.412500", "100016.412500", "100018.412500", "100020.412500", "100022.412500", "100024.412500", "100026.412500", "100028.412500", "100030.412500", "100032.412500", "100034.412500", "100036.412500", "100038.412500", "100040.412500", "100042.412500", "100044.412500"],
      "ContentTime": ["095503.079000", "095503.083000", "095503.085000", "095503.087000", "095503.097000", "095503.099000", "095503.101000", "095503.103000", "095503.106000", "095503.108000", "095503.110000", "095503.113000", "095503.115000", "095503.117000", "095503.119000", "095503.122000", "095503.124000", "095503.126000", "095503.133000", "095503.135000", "095503.138000", "095503.149000", "095503.151000", "095503.153000", "095503.156000", "095503.158000", "095503.160000", "095503.163000", "095543.076000", "095543.079000", "095543.081000", "095543.083000", "095543.086000", "095543.088000", "095543.090000", "095543.092000", "095543.095000", "095543.097000", "095543.099000", "095543.110000", "095543.112000", "095543.114000", "095543.117000", "095543.119000", "095543.121000", "095543.124000", "095543.126000", "095543.128000", "095623.075000", "095623.078000", "095623.080000", "095623.082000", "095623.085000", "095623.087000", "095623.089000", "095623.092000", "095623.094000", "095623.096000", "095623.098000", "095623.101000", "095623.103000", "095623.105000", "095623.107000", "095623.110000", "095623.118000", "095623.120000", "095623.122000", "095623.125000", "095703.075000", "095703.078000", "095703.080000", "095703.082000", "095703.085000", "095703.087000", "095703.089000", "095703.092000", "095703.094000", "095703.096000", "095703.099000", "095703.101000", "095703.103000", "095703.105000", "095703.108000", "095703.110000", "095703.112000", "095703.115000", "095703.117000", "095703.119000", "095743.075000", "095743.078000", "095743.080000", "095743.082000", "095743.085000", "095743.087000", "095743.089000", "095743.091000", "095743.094000", "095743.096000", "095743.098000", "095743.101000", "095743.103000", "095743.105000", "095743.107000", "095743.110000", "095743.112000", "095743.114000", "095743.117000", "095743.119000", "095823.076000", "095823.079000", "095823.081000", "095823.083000", "095823.086000", "095823.088000", "095823.090000", "095823.092000", "095823.095000", "095823.097000", "095823.099000", "095823.102000", "095823.104000", "095823.106000", "095823.108000", "095823.111000", "095823.113000", "095823.115000", "095823.118000", "095823.120000", "095903.075000", "095903.078000", "095903.080000", "095903.083000", "095903.085000", "095903.087000", "095903.090000", "095903.092000", "095903.094000", "095903.096000", "095903.099000", "095903.101000", "095903.103000", "095903.106000", "095903.108000", "095903.110000", "095903.112000", "095903.115000", "095903.117000", "095903.119000", "095943.075000", "095943.078000", "095943.080000", "095943.083000", "095943.085000", "095943.087000", "095943.090000", "095943.092000", "095943.094000", "095943.096000", "095943.099000", "095943.101000", "095943.103000", "095943.106000", "095943.108000", "095943.110000", "095943.112000", "095943.115000", "095943.117000", "095943.119000", "100023.076000", "100023.079000", "100023.094000", "100023.096000", "100023.098000", "100023.101000", "100023.103000", "100023.105000", "100023.107000", "100023.110000", "100023.112000", "100023.114000", "100023.117000", "100023.119000", "100023.121000", "100023.124000", "100023.126000", "100023.128000", "100023.130000", "100023.133000", "100046.532000", "100046.535000", "100046.537000", "100046.540000", "100046.543000", "100046.545000", "100046.547000", "100046.550000", "100046.552000", "100046.554000", "100046.557000", "100046.559000"],
      "InstanceCreationTime": ["095503.079000", "095503.083000", "095503.085000", "095503.087000", "095503.097000", "095503.099000", "095503.101000", "095503.103000", "095503.106000", "095503.108000", "095503.110000", "095503.113000", "095503.115000", "095503.117000", "095503.119000", "095503.122000", "095503.124000", "095503.126000", "095503.133000", "095503.135000", "095503.138000", "095503.149000", "095503.151000", "095503.153000", "095503.156000", "095503.158000", "095503.160000", "095503.163000", "095543.076000", "095543.079000", "095543.081000", "095543.083000", "095543.086000", "095543.088000", "095543.090000", "095543.092000", "095543.095000", "095543.097000", "095543.099000", "095543.110000", "095543.112000", "095543.114000", "095543.117000", "095543.119000", "095543.121000", "095543.124000", "095543.126000", "095543.128000", "095623.075000", "095623.078000", "095623.080000", "095623.082000", "095623.085000", "095623.087000", "095623.089000", "095623.092000", "095623.094000", "095623.096000", "095623.098000", "095623.101000", "095623.103000", "095623.105000", "095623.107000", "095623.110000", "095623.118000", "095623.120000", "095623.122000", "095623.125000", "095703.075000", "095703.078000", "095703.080000", "095703.082000", "095703.085000", "095703.087000", "095703.089000", "095703.092000", "095703.094000", "095703.096000", "095703.099000", "095703.101000", "095703.103000", "095703.105000", "095703.108000", "095703.110000", "095703.112000", "095703.115000", "095703.117000", "095703.119000", "095743.075000", "095743.078000", "095743.080000", "095743.082000", "095743.085000", "095743.087000", "095743.089000", "095743.091000", "095743.094000", "095743.096000", "095743.098000", "095743.101000", "095743.103000", "095743.105000", "095743.107000", "095743.110000", "095743.112000", "095743.114000", "095743.117000", "095743.119000", "095823.076000", "095823.079000", "095823.081000", "095823.083000", "095823.086000", "095823.088000", "095823.090000", "095823.092000", "095823.095000", "095823.097000", "095823.099000", "095823.102000", "095823.104000", "095823.106000", "095823.108000", "095823.111000", "095823.113000", "095823.115000", "095823.118000", "095823.120000", "095903.075000", "095903.078000", "095903.080000", "095903.083000", "095903.085000", "095903.087000", "095903.090000", "095903.092000", "095903.094000", "095903.096000", "095903.099000", "095903.101000", "095903.103000", "095903.106000", "095903.108000", "095903.110000", "095903.112000", "095903.115000", "095903.117000", "095903.119000", "095943.075000", "095943.078000", "095943.080000", "095943.083000", "095943.085000", "095943.087000", "095943.090000", "095943.092000", "095943.094000", "095943.096000", "095943.099000", "095943.101000", "095943.103000", "095943.106000", "095943.108000", "095943.110000", "095943.112000", "095943.115000", "095943.117000", "095943.119000", "100023.076000", "100023.079000", "100023.094000", "100023.096000", "100023.098000", "100023.101000", "100023.103000", "100023.105000", "100023.107000", "100023.110000", "100023.112000", "100023.114000", "100023.117000", "100023.119000", "100023.121000", "100023.124000", "100023.126000", "100023.128000", "100023.130000", "100023.133000", "100046.532000", "100046.535000", "100046.537000", "100046.540000", "100046.543000", "100046.545000", "100046.547000", "100046.550000", "100046.552000", "100046.554000", "100046.557000", "100046.559000"],
      "InstanceNumber": [1, 2, 3, 4, 5, 6, 7, 8, 9, 10, 11, 12, 13, 14, 15, 16, 17, 18, 19, 20, 21, 22, 23, 24, 25, 26, 27, 28, 29, 30, 31, 32, 33, 34, 35, 36, 37, 38, 39, 40, 41, 42, 43, 44, 45, 46, 47, 48, 49, 50, 51, 52, 53, 54, 55, 56, 57, 58, 59, 60, 61, 62, 63, 64, 65, 66, 67, 68, 69, 70, 71, 72, 73, 74, 75, 76, 77, 78, 79, 80, 81, 82, 83, 84, 85, 86, 87, 88, 89, 90, 91, 92, 93, 94, 95, 96, 97, 98, 99, 100, 101, 102, 103, 104, 105, 106, 107, 108, 109, 110, 111, 112, 113, 114, 115, 116, 117, 118, 119, 120, 121, 122, 123, 124, 125, 126, 127, 128, 129, 130, 131, 132, 133, 134, 135, 136, 137, 138, 139, 140, 141, 142, 143, 144, 145, 146, 147, 148, 149, 150, 151, 152, 153, 154, 155, 156, 157, 158, 159, 160, 161, 162, 163, 164, 165, 166, 167, 168, 169, 170, 171, 172, 173, 174, 175, 176, 177, 178, 179, 180, 181, 182, 183, 184, 185, 186, 187, 188, 189, 190, 191, 192, 193, 194, 195, 196, 197, 198, 199, 200],
      "LargestImagePixelValue": [2120, 2121, 2121, 2120, 2121, 2119, 2121, 2120, 2121, 2120, 2120, 2121, 2121, 2121, 2120, 2119, 2118, 2119, 2119, 2118, 2120, 2119, 2121, 2121, 2121, 2122, 2120, 2120, 2119, 2121, 2122, 2120, 2122, 2119, 2119, 2119, 2120, 2119, 2120, 2121, 2121, 2122, 2121, 2120, 2121, 2116, 2122, 2120, 2119, 2121, 2120, 2120, 2121, 2119, 2119, 2120, 2121, 2121, 2121, 2120, 2121, 2121, 2118, 2120, 2121, 2121, 2122, 2121, 2123, 2120, 2120, 2120, 2121, 2121, 2120, 2121, 2122, 2121, 2121, 2119, 2120, 2120, 2121, 2121, 2122, 2120, 2120, 2121, 2120, 2121, 2124, 2118, 2121, 2121, 2121, 2118, 2119, 2121, 2122, 2121, 2123, 2121, 2119, 2120, 2123, 2120, 2120, 2121, 2123, 2122, 2120, 2118, 2123, 2121, 2121, 2119, 2120, 2119, 2121, 2122, 2121, 2119, 2120, 2119, 2120, 2123, 2122, 2122, 2121, 2120, 2121, 2123, 2121, 2119, 2119, 2119, 2119, 2120, 2119, 2122, 2122, 2120, 2123, 2122, 2122, 2121, 2123, 2121, 2120, 2122, 2124, 2122, 2123, 2123, 2120, 2121, 2120, 2122, 2122, 2121, 2122, 2122, 2121, 2122, 2124, 2120, 2122, 2122, 2123, 2123, 2123, 2123, 2122, 2122, 2122, 2123, 2123, 2122, 2121, 2120, 2123, 2124, 2122, 2121, 2121, 2121, 2123, 2121, 2120, 2121, 2121, 2120, 2123, 2122, 2122, 2119, 2121, 2121, 2121, 2122],
      "WindowCenter": [1009.0, 1009.0, 1009.0, 1009.0, 1009.0, 1010.0, 1008.0, 1009.0, 1008.0, 1010.0, 1009.0, 1010.0, 1009.0, 1008.0, 1010.0, 1010.0, 1010.0, 1008.0, 1009.0, 1010.0, 1008.0, 1009.0, 1011.0, 1010.0, 1008.0, 1008.0, 1010.0, 1009.0, 1009.0, 1009.0, 1010.0, 1009.0, 1010.0, 1009.0, 1008.0, 1009.0, 1008.0, 1008.0, 1009.0, 1008.0, 1009.0, 1009.0, 1009.0, 1007.0, 1009.0, 1009.0, 1008.0, 1008.0, 1008.0, 1009.0, 1008.0, 1008.0, 1008.0, 1007.0, 1007.0, 1008.0, 1009.0, 1008.0, 1008.0, 1008.0, 1008.0, 1007.0, 1008.0, 1009.0, 1007.0, 1009.0, 1007.0, 1007.0, 1007.0, 1008.0, 1009.0, 1009.0, 1008.0, 1009.0, 1008.0, 1007.0, 1009.0, 1008.0, 1007.0, 1008.0, 1008.0, 1008.0, 1009.0, 1009.0, 1008.0, 1008.0, 1008.0, 1008.0, 1008.0, 1009.0, 1009.0, 1008.0, 1008.0, 1008.0, 1009.0, 1009.0, 1008.0, 1006.0, 1008.0, 1008.0, 1008.0, 1007.0, 1008.0, 1008.0, 1008.0, 1008.0, 1008.0, 1008.0, 1007.0, 1009.0, 1008.0, 1007.0, 1008.0, 1007.0, 1007.0, 1009.0, 1009.0, 1008.0, 1009.0, 1008.0, 1009.0, 1009.0, 1008.0, 1008.0, 1008.0, 1007.0, 1008.0, 1008.0, 1008.0, 1007.0, 1008.0, 1007.0, 1007.0, 1007.0, 1007.0, 1007.0, 1007.0, 1008.0, 1007.0, 1008.0, 1006.0, 1006.0, 1006.0, 1008.0, 1007.0, 1007.0, 1008.0, 1006.0, 1006.0, 1007.0, 1008.0, 1007.0, 1007.0, 1008.0, 1006.0, 1007.0, 1008.0, 1007.0, 1007.0, 1006.0, 1007.0, 1006.0, 1007.0, 1007.0, 1007.0, 1006.0, 1007.0, 1007.0, 1007.0, 1007.0, 1008.0, 1007.0, 1007.0, 1006.0, 1007.0, 1007.0, 1007.0, 1005.0, 1007.0, 1008.0, 1008.0, 1007.0, 1006.0, 1006.0, 1008.0, 1007.0, 1007.0, 1007.0, 1007.0, 1006.0, 1006.0, 1008.0, 1007.0, 1008.0, 1007.0, 1007.0, 1008.0, 1007.0, 1006.0, 1008.0],
      "WindowWidth": [2245.0, 2245.0, 2245.0, 2245.0, 2245.0, 2246.0, 2244.0, 2245.0, 2244.0, 2245.0, 2245.0, 2245.0, 2245.0, 2244.0, 2245.0, 2245.0, 2245.0, 2244.0, 2245.0, 2245.0, 2244.0, 2244.0, 2246.0, 2245.0, 2244.0, 2244.0, 2245.0, 2245.0, 2244.0, 2244.0, 2245.0, 2244.0, 2245.0, 2244.0, 2244.0, 2245.0, 2244.0, 2243.0, 2245.0, 2243.0, 2245.0, 2244.0, 2244.0, 2243.0, 2245.0, 2244.0, 2243.0, 2243.0, 2243.0, 2245.0, 2243.0, 2243.0, 2243.0, 2243.0, 2242.0, 2243.0, 2244.0, 2243.0, 2243.0, 2243.0, 2243.0, 2242.0, 2243.0, 2244.0, 2242.0, 2244.0, 2242.0, 2242.0, 2242.0, 2243.0, 2244.0, 2244.0, 2243.0, 2244.0, 2243.0, 2242.0, 2244.0, 2243.0, 2242.0, 2243.0, 2242.0, 2243.0, 2243.0, 2244.0, 2243.0, 2243.0, 2243.0, 2242.0, 2243.0, 2243.0, 2243.0, 2243.0, 2242.0, 2243.0, 2243.0, 2243.0, 2242.0, 2241.0, 2242.0, 2243.0, 2243.0, 2241.0, 2242.0, 2242.0, 2242.0, 2242.0, 2242.0, 2243.0, 2241.0, 2243.0, 2242.0, 2241.0, 2242.0, 2241.0, 2241.0, 2243.0, 2243.0, 2243.0, 2243.0, 2242.0, 2243.0, 2243.0, 2242.0, 2243.0, 2242.0, 2241.0, 2242.0, 2242.0, 2242.0, 2242.0, 2242.0, 2242.0, 2242.0, 2242.0, 2242.0, 2242.0, 2241.0, 2242.0, 2242.0, 2242.0, 2241.0, 2241.0, 2241.0, 2242.0, 2242.0, 2242.0, 2242.0, 2241.0, 2241.0, 2242.0, 2242.0, 2241.0, 2242.0, 2242.0, 2241.0, 2241.0, 2242.0, 2241.0, 2242.0, 2241.0, 2242.0, 2241.0, 2241.0, 2241.0, 2241.0, 2241.0, 2241.0, 2241.0, 2241.0, 2241.0, 2242.0, 2242.0, 2242.0, 2241.0, 2241.0, 2241.0, 2242.0, 2240.0, 2242.0, 2242.0, 2242.0, 2241.0, 2241.0, 2240.0, 2241.0, 2241.0, 2241.0, 2241.0, 2241.0, 2240.0, 2240.0, 2241.0, 2241.0, 2241.0, 2241.0, 2241.0, 2241.0, 2241.0, 2240.0, 2241.0]
    },
    "slices": {}
  }
}