{
  "AcquisitionMatrixPE": 122,
  "AcquisitionNumber": 1,
  "AcquisitionTime": "09:14:40.477500",
  "BandwidthPerPixelPhaseEncode": 27.785,
  "BaseResolution": 122,
  "BodyPartExamined": "BRAIN",
  "CoilCombinationMethod": "Adaptive Combine",
  "ConsistencyInfo": "N4_VE11C_LATEST_20160120",
  "ConversionSoftware": "dcm2niix",
  "ConversionSoftwareVersion": "v1.0.20220720",
  "DerivedVendorReportedEchoSpacing": 0.000590011,
  "DeviceSerialNumber": "66112",
  "DiffusionScheme": "Monopolar",
  "DwellTime": 2e-06,
  "EchoTime": 0.068,
  "EchoTrainLength": 61,
  "EffectiveEchoSpacing": 0.000295005,
  "FlipAngle": 90,
  "HeudiconvVersion": "0.13.1",
  "ImageOrientationPatientDICOM": [0.987903, -0.155006, 0.00463575, 0.146233, 0.941105, 0.304857],
  "ImageOrientationText": "Tra>Cor(17.5)>Sag(3.0)",
  "ImageType": [
    "ORIGINAL",
    "PRIMARY",
    "DIFFUSION",
    "NONE",
    "ND",
    "NORM"
],
  "ImagingFrequency": 123.252,
  "InPlanePhaseEncodingDirectionDICOM": "COL",
  "InstitutionAddress": "Maynard 3,Hanover,NH,US,03755",
  "InstitutionName": "Dartmouth College - PBS",
  "InstitutionalDepartmentName": "Department",
  "MRAcquisitionType": "2D",
  "MagneticFieldStrength": 3,
  "Manufacturer": "Siemens",
  "ManufacturersModelName": "Prisma",
  "Modality": "MR",
  "MultibandAccelerationFactor": 4,
  "NonlinearGradientCorrection": false,
  "ParallelReductionFactorInPlane": 2,
  "PartialFourier": 1,
  "PatientPosition": "HFS",
  "PercentPhaseFOV": 100,
  "PercentSampling": 100,
  "PhaseEncodingDirection": "j-",
  "PhaseEncodingSteps": 122,
  "PhaseResolution": 1,
  "PixelBandwidth": 2050,
  "ProcedureStepDescription": "dbic^QA",
  "ProtocolName": "dwi_acq-DTI-30-p2-s4",
  "PulseSequenceDetails": "%SiemensSeq%\\ep2d_diff",
  "ReceiveCoilActiveElements": "HEA;HEP",
  "ReceiveCoilName": "Head_32",
  "ReconMatrixPE": 122,
  "RefLinesPE": 38,
  "RepetitionTime": 3.6,
  "SAR": 0.161623,
  "ScanOptions": "FS",
  "ScanningSequence": "EP",
  "SequenceName": "*ep_b0",
  "SequenceVariant": "SK\\SP",
  "SeriesDescription": "dwi_acq-DTI-30-p2-s4",
  "SeriesNumber": 13,
  "ShimSetting": [4146, -7698, -7513, 289, -62, -208, -3, 60],
  "SliceThickness": 2,
  "SliceTiming": [2.58594, 0, 1.78906, 0.20312, 1.99219, 0.39844, 2.1875, 0.59375, 2.39062, 1, 2.78906, 1.19531, 2.98438, 1.39062, 3.1875, 1.59375, 3.38281, 0.79688, 2.58594, 0, 1.78906, 0.20312, 1.99219, 0.39844, 2.1875, 0.59375, 2.39062, 1, 2.78906, 1.19531, 2.98438, 1.39062, 3.1875, 1.59375, 3.38281, 0.79688, 2.58594, 0, 1.78906, 0.20312, 1.99219, 0.39844, 2.1875, 0.59375, 2.39062, 1, 2.78906, 1.19531, 2.98438, 1.39062, 3.1875, 1.59375, 3.38281, 0.79688, 2.58594, 0, 1.78906, 0.20312, 1.99219, 0.39844, 2.1875, 0.59375, 2.39062, 1, 2.78906, 1.19531, 2.98438, 1.39062, 3.1875, 1.59375, 3.38281, 0.79688],
  "SoftwareVersions": "syngo MR E11",
  "SpacingBetweenSlices": 2,
  "SpoilingState": true,
  "StationName": "AWP66112",
  "TotalReadoutTime": 0.0356956,
  "TxRefAmp": 230.86,
  "dcmmeta_affine": [
    [-1.9434149265289307, 0.28767162561416626, 0.10323500633239746, 97.90753936767578],
    [0.3049306571483612, 1.851353645324707, 0.600982666015625, -143.2142791748047],
    [0.009119503200054169, -0.5997185707092285, 1.9047775268554688, -32.08034133911133],
    [0.0, 0.0, 0.0, 1.0]
],
  "dcmmeta_reorient_transform": [
    [0.0, -1.0, 0.0, 121.0],
    [1.0, 0.0, 0.0, 0.0],
    [0.0, 0.0, -1.0, 71.0],
    [0.0, 0.0, 0.0, 1.0]
],
  "dcmmeta_shape": [122, 122, 72, 31],
  "dcmmeta_slice_dim": 2,
  "dcmmeta_version": 0.6,
  "global": {
    "const": {
      "AccessionNumber": "qa",
      "AcquisitionMatrix": [122, 0, 0, 122],
      "AngioFlag": "N",
      "BitsAllocated": 16,
      "BitsStored": 12,
      "BodyPartExamined": "BRAIN",
      "Columns": 122,
      "EchoNumbers": 1,
      "EchoTime": 68.0,
      "EchoTrainLength": 61,
      "FlipAngle": 90.0,
      "HighBit": 11,
      "ImageOrientationPatient": [0.987902587351, -0.1550064119657, 0.00463574748073, 0.1462330724497, 0.94110474834187, 0.30485691917737],
      "ImageType": [
        "ORIGINAL",
        "PRIMARY",
        "DIFFUSION",
        "NONE",
        "ND",
        "NORM"
],
      "ImagedNucleus": "1H",
      "ImagingFrequency": 123.252417,
      "InPlanePhaseEncodingDirection": "COL",
      "MRAcquisitionType": "2D",
      "MagneticFieldStrength": 3.0,
      "Manufacturer": "SIEMENS",
      "ManufacturerModelName": "Prisma",
      "Modality": "MR",
      "NumberOfAverages": 1.0,
      "NumberOfPhaseEncodingSteps": 122,
      "PercentPhaseFieldOfView": 100.0,
      "PercentSampling": 100.0,
      "PerformedProcedureStepStartTime": "084050.347000",
      "PhotometricInterpretation": "MONOCHROME2",
      "PixelBandwidth": 2050.0,
      "PixelRepresentation": 0,
      "PixelSpacing": [1.9672131538391, 1.9672131538391],
      "ProtocolName": "dwi_acq-DTI-30-p2-s4",
      "RepetitionTime": 3600.0,
      "Rows": 122,
      "SAR": 0.16162263370604,
      "SamplesPerPixel": 1,
      "ScanOptions": "FS",
      "ScanningSequence": "EP",
      "SequenceVariant": [
        "SK",
        "SP"
],
      "SeriesDescription": "dwi_acq-DTI-30-p2-s4",
      "SeriesNumber": 13,
      "SeriesTime": "091448.990000",
      "SliceThickness": 2.0,
      "SmallestImagePixelValue": 0,
      "SoftwareVersions": "syngo MR E11",
      "SpacingBetweenSlices": 2.0,
      "SpecificCharacterSet": "ISO_IR 100",
      "StudyID": "21",
      "StudyTime": "084050.266000",
      "TransmitCoilName": "Body",
      "VariableFlipAngleFlag": "N",
      "WindowCenterWidthExplanation": "Algo1",
      "dBdt": 0.0},
    "slices": {
      "AcquisitionTime": ["091440.477500", "091437.892500", "091439.682500", "091438.090000", "091439.880000", "091438.290000", "091440.080000", "091438.487500", "091440.277500", "091438.887500", "091440.677500", "091439.085000", "091440.875000", "091439.285000", "091441.075000", "091439.482500", "091441.272500", "091438.687500", "091440.477500", "091437.892500", "091439.682500", "091438.090000", "091439.880000", "091438.290000", "091440.080000", "091438.487500", "091440.277500", "091438.887500", "091440.677500", "091439.085000", "091440.875000", "091439.285000", "091441.075000", "091439.482500", "091441.272500", "091438.687500", "091440.477500", "091437.892500", "091439.682500", "091438.090000", "091439.880000", "091438.290000", "091440.080000", "091438.487500", "091440.277500", "091438.887500", "091440.677500", "091439.085000", "091440.875000", "091439.285000", "091441.075000", "091439.482500", "091441.272500", "091438.687500", "091440.477500", "091437.892500", "091439.682500", "091438.090000", "091439.880000", "091438.290000", "091440.080000", "091438.487500", "091440.277500", "091438.887500", "091440.677500", "091439.085000", "091440.875000", "091439.285000", "091441.075000", "091439.482500", "091441.272500", "091438.687500", "091444.077500", "091441.492500", "091443.282500", "091441.690000", "091443.480000", "091441.890000", "091443.680000", "091442.087500", "091443.877500", "091442.487500", "091444.277500", "091442.685000", "091444.475000", "091442.885000", "091444.675000", "091443.082500", "091444.872500", "091442.287500", "091444.077500", "091441.492500", "091443.282500", "091441.690000", "091443.480000", "091441.890000", "091443.680000", "091442.087500", "091443.877500", "091442.487500", "091444.277500", "091442.685000", "091444.475000", "091442.885000", "091444.675000", "091443.082500", "091444.872500", "091442.287500", "091444.077500", "091441.492500", "091443.282500", "091441.690000", "091443.480000", "091441.890000", "091443.680000", "091442.087500", "091443.877500", "091442.487500", "091444.277500", "091442.685000", "091444.475000", "091442.885000", "091444.675000", "091443.082500", "091444.872500", "091442.287500", "091444.077500", "091441.492500", "091443.282500", "091441.690000", "091443.480000", "091441.890000", "091443.680000", "091442.087500", "091443.877500", "091442.487500", "091444.277500", "091442.685000", "091444.475000", "091442.885000", "091444.675000", "091443.082500", "091444.872500", "091442.287500", "091447.677500", "091445.092500", "091446.882500", "091445.290000", "091447.080000", "091445.490000", "091447.280000", "091445.687500", "091447.477500", "091446.087500", "091447.877500", "091446.285000", "091448.075000", "091446.485000", "091448.275000", "091446.682500", "091448.472500", "091445.887500", "091447.677500", "091445.092500", "091446.882500", "091445.290000", "091447.080000", "091445.490000", "091447.280000", "091445.687500", "091447.477500", "091446.087500", "091447.877500", "091446.285000", "091448.075000", "091446.485000", "091448.275000", "091446.682500", "091448.472500", "091445.887500", "091447.677500", "091445.092500", "091446.882500", "091445.290000", "091447.080000", "091445.490000", "091447.280000", "091445.687500", "091447.477500", "091446.087500", "091447.877500", "091446.285000", "091448.075000", "091446.485000", "091448.275000", "091446.682500", "091448.472500", "091445.887500", "091447.677500", "091445.092500", "091446.882500", "091445.290000", "091447.080000", "091445.490000", "091447.280000", "091445.687500", "091447.477500", "091446.087500", "091447.877500", "091446.285000", "091448.075000", "091446.485000", "091448.275000", "091446.682500", "091448.472500", "091445.887500", "091451.277500", "091448.692500", "091450.482500", "091448.890000", "091450.680000", "091449.090000", "091450.880000", "091449.287500", "091451.077500", "091449.687500", "091451.477500", "091449.885000", "091451.675000", "091450.085000", "091451.875000", "091450.282500", "091452.072500", "091449.487500", "091451.277500", "091448.692500", "091450.482500", "091448.890000", "091450.680000", "091449.090000", "091450.880000", "091449.287500", "091451.077500", "091449.687500", "091451.477500", "091449.885000", "091451.675000", "091450.085000", "091451.875000", "091450.282500", "091452.072500", "091449.487500", "091451.277500", "091448.692500", "091450.482500", "091448.890000", "091450.680000", "091449.090000", "091450.880000", "091449.287500", "091451.077500", "091449.687500", "091451.477500", "091449.885000", "091451.675000", "091450.085000", "091451.875000", "091450.282500", "091452.072500", "091449.487500", "091451.277500", "091448.692500", "091450.482500", "091448.890000", "091450.680000", "091449.090000", "091450.880000", "091449.287500", "091451.077500", "091449.687500", "091451.477500", "091449.885000", "091451.675000", "091450.085000", "091451.875000", "091450.282500", "091452.072500", "091449.487500", "091454.877500", "091452.292500", "091454.082500", "091452.490000", "091454.280000", "091452.690000", "091454.480000", "091452.887500", "091454.677500", "091453.287500", "091455.077500", "091453.485000", "091455.275000", "091453.685000", "091455.475000", "091453.882500", "091455.672500", "091453.087500", "091454.877500", "091452.292500", "091454.082500", "091452.490000", "091454.280000", "091452.690000", "091454.480000", "091452.887500", "091454.677500", "091453.287500", "091455.077500", "091453.485000", "091455.275000", "091453.685000", "091455.475000", "091453.882500", "091455.672500", "091453.087500", "091454.877500", "091452.292500", "091454.082500", "091452.490000", "091454.280000", "091452.690000", "091454.480000", "091452.887500", "091454.677500", "091453.287500", "091455.077500", "091453.485000", "091455.275000", "091453.685000", "091455.475000", "091453.882500", "091455.672500", "091453.087500", "091454.877500", "091452.292500", "091454.082500", "091452.490000", "091454.280000", "091452.690000", "091454.480000", "091452.887500", "091454.677500", "091453.287500", "091455.077500", "091453.485000", "091455.275000", "091453.685000", "091455.475000", "091453.882500", "091455.672500", "091453.087500", "091458.477500", "091455.892500", "091457.682500", "091456.090000", "091457.880000", "091456.290000", "091458.080000", "091456.487500", "091458.277500", "091456.887500", "091458.677500", "091457.085000", "091458.875000", "091457.285000", "091459.075000", "091457.482500", "091459.272500", "091456.687500", "091458.477500", "091455.892500", "091457.682500", "091456.090000", "091457.880000", "091456.290000", "091458.080000", "091456.487500", "091458.277500", "091456.887500", "091458.677500", "091457.085000", "091458.875000", "091457.285000", "091459.075000", "091457.482500", "091459.272500", "091456.687500", "091458.477500", "091455.892500", "091457.682500", "091456.090000", "091457.880000", "091456.290000", "091458.080000", "091456.487500", "091458.277500", "091456.887500", "091458.677500", "091457.085000", "091458.875000", "091457.285000", "091459.075000", "091457.482500", "091459.272500", "091456.687500", "091458.477500", "091455.892500", "091457.682500", "091456.090000", "091457.880000", "091456.290000", "091458.080000", "091456.487500", "091458.277500", "091456.887500", "091458.677500", "091457.085000", "091458.875000", "091457.285000", "091459.075000", "091457.482500", "091459.272500", "091456.687500", "091502.077500", "091459.492500", "091501.282500", "091459.690000", "091501.480000", "091459.890000", "091501.680000", "091500.087500", "091501.877500", "091500.487500", "091502.277500", "091500.685000", "091502.475000", "091500.885000", "091502.675000", "091501.082500", "091502.872500", "091500.287500", "091502.077500", "091459.492500", "091501.282500", "091459.690000", "091501.480000", "091459.890000", "091501.680000", "091500.087500", "091501.877500", "091500.487500", "091502.277500", "091500.685000", "091502.475000", "091500.885000", "091502.675000", "091501.082500", "091502.872500", "091500.287500", "091502.077500", "091459.492500", "091501.282500", "091459.690000", "091501.480000", "091459.890000", "091501.680000", "091500.087500", "091501.877500", "091500.487500", "091502.277500", "091500.685000", "091502.475000", "091500.885000", "091502.675000", "091501.082500", "091502.872500", "091500.287500", "091502.077500", "091459.492500", "091501.282500", "091459.690000", "091501.480000", "091459.890000", "091501.680000", "091500.087500", "091501.877500", "091500.487500", "091502.277500", "091500.685000", "091502.475000", "091500.885000", "091502.675000", "091501.082500", "091502.872500", "091500.287500", "091505.677500", "091503.092500", "091504.882500", "091503.290000", "091505.080000", "091503.490000", "091505.280000", "091503.687500", "091505.477500", "091504.087500", "091505.877500", "091504.285000", "091506.075000", "091504.485000", "091506.275000", "091504.682500", "091506.472500", "091503.887500", "091505.677500", "091503.092500", "091504.882500", "091503.290000", "091505.080000", "091503.490000", "091505.280000", "091503.687500", "091505.477500", "091504.087500", "091505.877500", "091504.285000", "091506.075000", "091504.485000", "091506.275000", "091504.682500", "091506.472500", "091503.887500", "091505.677500", "091503.092500", "091504.882500", "091503.290000", "091505.080000", "091503.490000", "091505.280000", "091503.687500", "091505.477500", "091504.087500", "091505.877500", "091504.285000", "091506.075000", "091504.485000", "091506.275000", "091504.682500", "091506.472500", "091503.887500", "091505.677500", "091503.092500", "091504.882500", "091503.290000", "091505.080000", "091503.490000", "091505.280000", "091503.687500", "091505.477500", "091504.087500", "091505.877500", "091504.285000", "091506.075000", "091504.485000", "091506.275000", "091504.682500", "091506.472500", "091503.887500", "091509.277500", "091506.692500", "091508.482500", "091506.890000", "091508.680000", "091507.090000", "091508.880000", "091507.287500", "091509.077500", "091507.687500", "091509.477500", "091507.885000", "091509.675000", "091508.085000", "091509.875000", "091508.282500", "091510.072500", "091507.487500", "091509.277500", "091506.692500", "091508.482500", "091506.890000", "091508.680000", "091507.090000", "091508.880000", "091507.287500", "091509.077500", "091507.687500", "091509.477500", "091507.885000", "091509.675000", "091508.085000", "091509.875000", "091508.282500", "091510.072500", "091507.487500", "091509.277500", "091506.692500", "091508.482500", "091506.890000", "091508.680000", "091507.090000", "091508.880000", "091507.287500", "091509.077500", "091507.687500", "091509.477500", "091507.885000", "091509.675000", "091508.085000", "091509.875000", "091508.282500", "091510.072500", "091507.487500", "091509.277500", "091506.692500", "091508.482500", "091506.890000", "091508.680000", "091507.090000", "091508.880000", "091507.287500", "091509.077500", "091507.687500", "091509.477500", "091507.885000", "091509.675000", "091508.085000", "091509.875000", "091508.282500", "091510.072500", "091507.487500", "091512.877500", "091510.292500", "091512.082500", "091510.490000", "091512.280000", "091510.690000", "091512.480000", "091510.887500", "091512.677500", "091511.287500", "091513.077500", "091511.485000", "091513.275000", "091511.685000", "091513.475000", "091511.882500", "091513.672500", "091511.087500", "091512.877500", "091510.292500", "091512.082500", "091510.490000", "091512.280000", "091510.690000", "091512.480000", "091510.887500", "091512.677500", "091511.287500", "091513.077500", "091511.485000", "091513.275000", "091511.685000", "091513.475000", "091511.882500", "091513.672500", "091511.087500", "091512.877500", "091510.292500", "091512.082500", "091510.490000", "091512.280000", "091510.690000", "091512.480000", "091510.887500", "091512.677500", "091511.287500", "091513.077500", "091511.485000", "091513.275000", "091511.685000", "091513.475000", "091511.882500", "091513.672500", "091511.087500", "091512.877500", "091510.292500", "091512.082500", "091510.490000", "091512.280000", "091510.690000", "091512.480000", "091510.887500", "091512.677500", "091511.287500", "091513.077500", "091511.485000", "091513.275000", "091511.685000", "091513.475000", "091511.882500", "091513.672500", "091511.087500", "091516.477500", "091513.892500", "091515.682500", "091514.090000", "091515.880000", "091514.290000", "091516.080000", "091514.487500", "091516.277500", "091514.887500", "091516.677500", "091515.085000", "091516.875000", "091515.285000", "091517.075000", "091515.482500", "091517.272500", "091514.687500", "091516.477500", "091513.892500", "091515.682500", "091514.090000", "091515.880000", "091514.290000", "091516.080000", "091514.487500", "091516.277500", "091514.887500", "091516.677500", "091515.085000", "091516.875000", "091515.285000", "091517.075000", "091515.482500", "091517.272500", "091514.687500", "091516.477500", "091513.892500", "091515.682500", "091514.090000", "091515.880000", "091514.290000", "091516.080000", "091514.487500", "091516.277500", "091514.887500", "091516.677500", "091515.085000", "091516.875000", "091515.285000", "091517.075000", "091515.482500", "091517.272500", "091514.687500", "091516.477500", "091513.892500", "091515.682500", "091514.090000", "091515.880000", "091514.290000", "091516.080000", "091514.487500", "091516.277500", "091514.887500", "091516.677500", "091515.085000", "091516.875000", "091515.285000", "091517.075000", "091515.482500", "091517.272500", "091514.687500", "091520.077500", "091517.492500", "091519.282500", "091517.690000", "091519.480000", "091517.890000", "091519.680000", "091518.087500", "091519.877500", "091518.487500", "091520.277500", "091518.685000", "091520.475000", "091518.885000", "091520.675000", "091519.082500", "091520.872500", "091518.287500", "091520.077500", "091517.492500", "091519.282500", "091517.690000", "091519.480000", "091517.890000", "091519.680000", "091518.087500", "091519.877500", "091518.487500", "091520.277500", "091518.685000", "091520.475000", "091518.885000", "091520.675000", "091519.082500", "091520.872500", "091518.287500", "091520.077500", "091517.492500", "091519.282500", "091517.690000", "091519.480000", "091517.890000", "091519.680000", "091518.087500", "091519.877500", "091518.487500", "091520.277500", "091518.685000", "091520.475000", "091518.885000", "091520.675000", "091519.082500", "091520.872500", "091518.287500", "091520.077500", "091517.492500", "091519.282500", "091517.690000", "091519.480000", "091517.890000", "091519.680000", "091518.087500", "091519.877500", "091518.487500", "091520.277500", "091518.685000", "091520.475000", "091518.885000", "091520.675000", "091519.082500", "091520.872500", "091518.287500", "091523.677500", "091521.092500", "091522.882500", "091521.290000", "091523.080000", "091521.490000", "091523.280000", "091521.687500", "091523.477500", "091522.087500", "091523.877500", "091522.285000", "091524.075000", "091522.485000", "091524.275000", "091522.682500", "091524.472500", "091521.887500", "091523.677500", "091521.092500", "091522.882500", "091521.290000", "091523.080000", "091521.490000", "091523.280000", "091521.687500", "091523.477500", "091522.087500", "091523.877500", "091522.285000", "091524.075000", "091522.485000", "091524.275000", "091522.682500", "091524.472500", "091521.887500", "091523.677500", "091521.092500", "091522.882500", "091521.290000", "091523.080000", "091521.490000", "091523.280000", "091521.687500", "091523.477500", "091522.087500", "091523.877500", "091522.285000", "091524.075000", "091522.485000", "091524.275000", "091522.682500", "091524.472500", "091521.887500", "091523.677500", "091521.092500", "091522.882500", "091521.290000", "091523.080000", "091521.490000", "091523.280000", "091521.687500", "091523.477500", "091522.087500", "091523.877500", "091522.285000", "091524.075000", "091522.485000", "091524.275000", "091522.682500", "091524.472500", "091521.887500", "091527.277500", "091524.692500", "091526.482500", "091524.890000", "091526.680000", "091525.090000", "091526.880000", "091525.287500", "091527.077500", "091525.687500", "091527.477500", "091525.885000", "091527.675000", "091526.085000", "091527.875000", "091526.282500", "091528.072500", "091525.487500", "091527.277500", "091524.692500", "091526.482500", "091524.890000", "091526.680000", "091525.090000", "091526.880000", "091525.287500", "091527.077500", "091525.687500", "091527.477500", "091525.885000", "091527.675000", "091526.085000", "091527.875000", "091526.282500", "091528.072500", "091525.487500", "091527.277500", "091524.692500", "091526.482500", "091524.890000", "091526.680000", "091525.090000", "091526.880000", "091525.287500", "091527.077500", "091525.687500", "091527.477500", "091525.885000", "091527.675000", "091526.085000", "091527.875000", "091526.282500", "091528.072500", "091525.487500", "091527.277500", "091524.692500", "091526.482500", "091524.890000", "091526.680000", "091525.090000", "091526.880000", "091525.287500", "091527.077500", "091525.687500", "091527.477500", "091525.885000", "091527.675000", "091526.085000", "091527.875000", "091526.282500", "091528.072500", "091525.487500", "091530.877500", "091528.292500", "091530.082500", "091528.490000", "091530.280000", "091528.690000", "091530.480000", "091528.887500", "091530.677500", "091529.287500", "091531.077500", "091529.485000", "091531.275000", "091529.685000", "091531.475000", "091529.882500", "091531.672500", "091529.087500", "091530.877500", "091528.292500", "091530.082500", "091528.490000", "091530.280000", "091528.690000", "091530.480000", "091528.887500", "091530.677500", "091529.287500", "091531.077500", "091529.485000", "091531.275000", "091529.685000", "091531.475000", "091529.882500", "091531.672500", "091529.087500", "091530.877500", "091528.292500", "091530.082500", "091528.490000", "091530.280000", "091528.690000", "091530.480000", "091528.887500", "091530.677500", "091529.287500", "091531.077500", "091529.485000", "091531.275000", "091529.685000", "091531.475000", "091529.882500", "091531.672500", "091529.087500", "091530.877500", "091528.292500", "091530.082500", "091528.490000", "091530.280000", "091528.690000", "091530.480000", "091528.887500", "091530.677500", "091529.287500", "091531.077500", "091529.485000", "091531.275000", "091529.685000", "091531.475000", "091529.882500", "091531.672500", "091529.087500", "091534.477500", "091531.892500", "091533.682500", "091532.090000", "091533.880000", "091532.290000", "091534.080000", "091532.487500", "091534.277500", "091532.887500", "091534.677500", "091533.085000", "091534.875000", "091533.285000", "091535.075000", "091533.482500", "091535.272500", "091532.687500", "091534.477500", "091531.892500", "091533.682500", "091532.090000", "091533.880000", "091532.290000", "091534.080000", "091532.487500", "091534.277500", "091532.887500", "091534.677500", "091533.085000", "091534.875000", "091533.285000", "091535.075000", "091533.482500", "091535.272500", "091532.687500", "091534.477500", "091531.892500", "091533.682500", "091532.090000", "091533.880000", "091532.290000", "091534.080000", "091532.487500", "091534.277500", "091532.887500", "091534.677500", "091533.085000", "091534.875000", "091533.285000", "091535.075000", "091533.482500", "091535.272500", "091532.687500", "091534.477500", "091531.892500", "091533.682500", "091532.090000", "091533.880000", "091532.290000", "091534.080000", "091532.487500", "091534.277500", "091532.887500", "091534.677500", "091533.085000", "091534.875000", "091533.285000", "091535.075000", "091533.482500", "091535.272500", "091532.687500", "091538.077500", "091535.492500", "091537.282500", "091535.690000", "091537.480000", "091535.890000", "091537.680000", "091536.087500", "091537.877500", "091536.487500", "091538.277500", "091536.685000", "091538.475000", "091536.885000", "091538.675000", "091537.082500", "091538.872500", "091536.287500", "091538.077500", "091535.492500", "091537.282500", "091535.690000", "091537.480000", "091535.890000", "091537.680000", "091536.087500", "091537.877500", "091536.487500", "091538.277500", "091536.685000", "091538.475000", "091536.885000", "091538.675000", "091537.082500", "091538.872500", "091536.287500", "091538.077500", "091535.492500", "091537.282500", "091535.690000", "091537.480000", "091535.890000", "091537.680000", "091536.087500", "091537.877500", "091536.487500", "091538.277500", "091536.685000", "091538.475000", "091536.885000", "091538.675000", "091537.082500", "091538.872500", "091536.287500", "091538.077500", "091535.492500", "091537.282500", "091535.690000", "091537.480000", "091535.890000", "091537.680000", "091536.087500", "091537.877500", "091536.487500", "091538.277500", "091536.685000", "091538.475000", "091536.885000", "091538.675000", "091537.082500", "091538.872500", "091536.287500", "091541.677500", "091539.092500", "091540.882500", "091539.290000", "091541.080000", "091539.490000", "091541.280000", "091539.687500", "091541.477500", "091540.087500", "091541.877500", "091540.285000", "091542.075000", "091540.485000", "091542.275000", "091540.682500", "091542.472500", "091539.887500", "091541.677500", "091539.092500", "091540.882500", "091539.290000", "091541.080000", "091539.490000", "091541.280000", "091539.687500", "091541.477500", "091540.087500", "091541.877500", "091540.285000", "091542.075000", "091540.485000", "091542.275000", "091540.682500", "091542.472500", "091539.887500", "091541.677500", "091539.092500", "091540.882500", "091539.290000", "091541.080000", "091539.490000", "091541.280000", "091539.687500", "091541.477500", "091540.087500", "091541.877500", "091540.285000", "091542.075000", "091540.485000", "091542.275000", "091540.682500", "091542.472500", "091539.887500", "091541.677500", "091539.092500", "091540.882500", "091539.290000", "091541.080000", "091539.490000", "091541.280000", "091539.687500", "091541.477500", "091540.087500", "091541.877500", "091540.285000", "091542.075000", "091540.485000", "091542.275000", "091540.682500", "091542.472500", "091539.887500", "091545.277500", "091542.692500", "091544.482500", "091542.890000", "091544.680000", "091543.090000", "091544.880000", "091543.287500", "091545.077500", "091543.687500", "091545.477500", "091543.885000", "091545.675000", "091544.085000", "091545.875000", "091544.282500", "091546.072500", "091543.487500", "091545.277500", "091542.692500", "091544.482500", "091542.890000", "091544.680000", "091543.090000", "091544.880000", "091543.287500", "091545.077500", "091543.687500", "091545.477500", "091543.885000", "091545.675000", "091544.085000", "091545.875000", "091544.282500", "091546.072500", "091543.487500", "091545.277500", "091542.692500", "091544.482500", "091542.890000", "091544.680000", "091543.090000", "091544.880000", "091543.287500", "091545.077500", "091543.687500", "091545.477500", "091543.885000", "091545.675000", "091544.085000", "091545.875000", "091544.282500", "091546.072500", "091543.487500", "091545.277500", "091542.692500", "091544.482500", "091542.890000", "091544.680000", "091543.090000", "091544.880000", "091543.287500", "091545.077500", "091543.687500", "091545.477500", "091543.885000", "091545.675000", "091544.085000", "091545.875000", "091544.282500", "091546.072500", "091543.487500", "091548.877500", "091546.292500", "091548.082500", "091546.490000", "091548.280000", "091546.690000", "091548.480000", "091546.887500", "091548.677500", "091547.287500", "091549.077500", "091547.485000", "091549.275000", "091547.685000", "091549.475000", "091547.882500", "091549.672500", "091547.087500", "091548.877500", "091546.292500", "091548.082500", "091546.490000", "091548.280000", "091546.690000", "091548.480000", "091546.887500", "091548.677500", "091547.287500", "091549.077500", "091547.485000", "091549.275000", "091547.685000", "091549.475000", "091547.882500", "091549.672500", "091547.087500", "091548.877500", "091546.292500", "091548.082500", "091546.490000", "091548.280000", "091546.690000", "091548.480000", "091546.887500", "091548.677500", "091547.287500", "091549.077500", "091547.485000", "091549.275000", "091547.685000", "091549.475000", "091547.882500", "091549.672500", "091547.087500", "091548.877500", "091546.292500", "091548.082500", "091546.490000", "091548.280000", "091546.690000", "091548.480000", "091546.887500", "091548.677500", "091547.287500", "091549.077500", "091547.485000", "091549.275000", "091