{
  "AcquisitionMatrixPE": 122,
  "AcquisitionNumber": 1,
  "AcquisitionTime": "09:10:21.205000",
  "BandwidthPerPixelPhaseEncode": 28.76,
  "BaseResolution": 122,
  "BodyPartExamined": "BRAIN",
  "CoilCombinationMethod": "Adaptive Combine",
  "ConsistencyInfo": "N4_VE11C_LATEST_20160120",
  "ConversionSoftware": "dcm2niix",
  "ConversionSoftwareVersion": "v1.0.20220720",
  "DerivedVendorReportedEchoSpacing": 0.000570008,
  "DeviceSerialNumber": "66112",
  "DiffusionScheme": "Monopolar",
  "DwellTime": 2e-06,
  "EchoTime": 0.075,
  "EchoTrainLength": 61,
  "EffectiveEchoSpacing": 0.000285004,
  "FlipAngle": 90,
  "HeudiconvVersion": "0.13.1",
  "ImageOrientationPatientDICOM": [0.987903, -0.155006, 0.00463575, 0.146233, 0.941105, 0.304857],
  "ImageOrientationText": "Tra>Cor(17.5)>Sag(3.0)",
  "ImageType": [
    "ORIGINAL",
    "PRIMARY",
    "DIFFUSION",
    "NONE",
    "ND",
    "NORM"
],
  "ImagingFrequency": 123.252,
  "InPlanePhaseEncodingDirectionDICOM": "COL",
  "InstitutionAddress": "Maynard 3,Hanover,NH,US,03755",
  "InstitutionName": "Dartmouth College - PBS",
  "InstitutionalDepartmentName": "Department",
  "MRAcquisitionType": "2D",
  "MagneticFieldStrength": 3,
  "Manufacturer": "Siemens",
  "ManufacturersModelName": "Prisma",
  "MatrixCoilMode": "GRAPPA",
  "Modality": "MR",
  "NonlinearGradientCorrection": false,
  "ParallelReductionFactorInPlane": 2,
  "PartialFourier": 1,
  "PatientPosition": "HFS",
  "PercentPhaseFOV": 100,
  "PercentSampling": 100,
  "PhaseEncodingDirection": "j-",
  "PhaseEncodingSteps": 122,
  "PhaseResolution": 1,
  "PixelBandwidth": 2050,
  "ProcedureStepDescription": "dbic^QA",
  "ProtocolName": "dwi_acq-DTI-30-p2",
  "PulseSequenceDetails": "%SiemensSeq%\\ep2d_diff",
  "ReceiveCoilActiveElements": "HEA;HEP",
  "ReceiveCoilName": "Head_32",
  "ReconMatrixPE": 122,
  "RefLinesPE": 38,
  "RepetitionTime": 7.7,
  "SAR": 0.101856,
  "ScanOptions": "FS",
  "ScanningSequence": "EP",
  "SequenceName": "*ep_b0",
  "SequenceVariant": "SK\\SP",
  "SeriesDescription": "dwi_acq-DTI-30-p2",
  "SeriesNumber": 12,
  "ShimSetting": [4146, -7698, -7513, 289, -62, -206, -3, 60],
  "SliceThickness": 2,
  "SliceTiming": [3.83594, 0, 3.94531, 0.10938, 4.05469, 0.21875, 4.16406, 0.32812, 4.28125, 0.4375, 4.39062, 0.54688, 4.49219, 0.65625, 4.60156, 0.76562, 4.71875, 0.875, 4.82812, 0.98438, 4.9375, 1.09375, 5.04688, 1.20312, 5.15625, 1.3125, 5.26562, 1.42188, 5.375, 1.53906, 5.48438, 1.64062, 5.59375, 1.75, 5.70312, 1.85938, 5.8125, 1.97656, 5.92188, 2.08594, 6.03125, 2.19531, 6.14062, 2.30469, 6.25, 2.41406, 6.35938, 2.52344, 6.46875, 2.63281, 6.57812, 2.74219, 6.6875, 2.85156, 6.79688, 2.96094, 6.91406, 3.07031, 7.02344, 3.17969, 7.13281, 3.28906, 7.23438, 3.39844, 7.35156, 3.50781, 7.46094, 3.61719, 7.57031, 3.72656],
  "SoftwareVersions": "syngo MR E11",
  "SpacingBetweenSlices": 2,
  "SpoilingState": true,
  "StationName": "AWP66112",
  "TotalReadoutTime": 0.0344855,
  "TxRefAmp": 230.86,
  "dcmmeta_affine": [
    [-1.9434149265289307, 0.28767162561416626, 0.10323500633239746, 98.01077270507812],
    [0.3049306571483612, 1.851353645324707, 0.6009807586669922, -142.6131591796875],
    [0.009119503200054169, -0.5997185707092285, 1.9047737121582031, -30.17530059814453],
    [0.0, 0.0, 0.0, 1.0]
],
  "dcmmeta_reorient_transform": [
    [0.0, -1.0, 0.0, 121.0],
    [1.0, 0.0, 0.0, 0.0],
    [0.0, 0.0, -1.0, 69.0],
    [0.0, 0.0, 0.0, 1.0]
],
  "dcmmeta_shape": [122, 122, 70, 31],
  "dcmmeta_slice_dim": 2,
  "dcmmeta_version": 0.6,
  "global": {
    "const": {
      "AccessionNumber": "qa",
      "AcquisitionMatrix": [122, 0, 0, 122],
      "AngioFlag": "N",
      "BitsAllocated": 16,
      "BitsStored": 12,
      "BodyPartExamined": "BRAIN",
      "Columns": 122,
      "EchoNumbers": 1,
      "EchoTime": 75.0,
      "EchoTrainLength": 61,
      "FlipAngle": 90.0,
      "HighBit": 11,
      "ImageOrientationPatient": [0.987902587351, -0.1550064119657, 0.00463574748073, 0.1462330724497, 0.94110474834187, 0.30485691917737],
      "ImageType": [
        "ORIGINAL",
        "PRIMARY",
        "DIFFUSION",
        "NONE",
        "ND",
        "NORM"
],
      "ImagedNucleus": "1H",
      "ImagingFrequency": 123.252416,
      "InPlanePhaseEncodingDirection": "COL",
      "MRAcquisitionType": "2D",
      "MagneticFieldStrength": 3.0,
      "Manufacturer": "SIEMENS",
      "ManufacturerModelName": "Prisma",
      "Modality": "MR",
      "NumberOfAverages": 1.0,
      "NumberOfPhaseEncodingSteps": 122,
      "PercentPhaseFieldOfView": 100.0,
      "PercentSampling": 100.0,
      "PerformedProcedureStepStartTime": "084050.347000",
      "PhotometricInterpretation": "MONOCHROME2",
      "PixelBandwidth": 2050.0,
      "PixelRepresentation": 0,
      "PixelSpacing": [1.9672131538391, 1.9672131538391],
      "ProtocolName": "dwi_acq-DTI-30-p2",
      "RepetitionTime": 7700.0,
      "Rows": 122,
      "SAR": 0.10185587040421,
      "SamplesPerPixel": 1,
      "ScanOptions": "FS",
      "ScanningSequence": "EP",
      "SequenceVariant": [
        "SK",
        "SP"
],
      "SeriesDescription": "dwi_acq-DTI-30-p2",
      "SeriesNumber": 12,
      "SeriesTime": "091020.247000",
      "SliceThickness": 2.0,
      "SmallestImagePixelValue": 0,
      "SoftwareVersions": "syngo MR E11",
      "SpacingBetweenSlices": 2.0,
      "SpecificCharacterSet": "ISO_IR 100",
      "StudyID": "21",
      "StudyTime": "084050.266000",
      "TransmitCoilName": "Body",
      "VariableFlipAngleFlag": "N",
      "WindowCenterWidthExplanation": "Algo1",
      "dBdt": 0.0},
    "slices": {
      "AcquisitionTime": ["091021.205000", "091017.365000", "091021.315000", "091017.475000", "091021.425000", "091017.585000", "091021.535000", "091017.695000", "091021.645000", "091017.805000", "091021.755000", "091017.915000", "091021.862500", "091018.022500", "091021.972500", "091018.132500", "091022.082500", "091018.242500", "091022.192500", "091018.352500", "091022.302500", "091018.462500", "091022.412500", "091018.572500", "091022.522500", "091018.682500", "091022.632500", "091018.792500", "091022.740000", "091018.902500", "091022.850000", "091019.010000", "091022.960000", "091019.120000", "091023.070000", "091019.230000", "091023.180000", "091019.340000", "091023.290000", "091019.450000", "091023.400000", "091019.560000", "091023.510000", "091019.670000", "091023.620000", "091019.780000", "091023.727500", "091019.887500", "091023.837500", "091019.997500", "091023.947500", "091020.107500", "091024.057500", "091020.217500", "091024.167500", "091020.327500", "091024.277500", "091020.437500", "091024.387500", "091020.547500", "091024.497500", "091020.657500", "091024.605000", "091020.767500", "091024.715000", "091020.875000", "091024.825000", "091020.985000", "091024.935000", "091021.095000", "091028.905000", "091025.065000", "091029.015000", "091025.175000", "091029.125000", "091025.285000", "091029.235000", "091025.395000", "091029.345000", "091025.505000", "091029.455000", "091025.615000", "091029.562500", "091025.722500", "091029.672500", "091025.832500", "091029.782500", "091025.942500", "091029.892500", "091026.052500", "091030.002500", "091026.162500", "091030.112500", "091026.272500", "091030.222500", "091026.382500", "091030.332500", "091026.492500", "091030.440000", "091026.602500", "091030.550000", "091026.710000", "091030.660000", "091026.820000", "091030.770000", "091026.930000", "091030.880000", "091027.040000", "091030.990000", "091027.150000", "091031.100000", "091027.260000", "091031.210000", "091027.370000", "091031.320000", "091027.480000", "091031.427500", "091027.587500", "091031.537500", "091027.697500", "091031.647500", "091027.807500", "091031.757500", "091027.917500", "091031.867500", "091028.027500", "091031.977500", "091028.137500", "091032.087500", "091028.247500", "091032.197500", "091028.357500", "091032.305000", "091028.467500", "091032.415000", "091028.575000", "091032.525000", "091028.685000", "091032.635000", "091028.795000", "091036.605000", "091032.765000", "091036.715000", "091032.875000", "091036.825000", "091032.985000", "091036.935000", "091033.095000", "091037.045000", "091033.205000", "091037.155000", "091033.315000", "091037.262500", "091033.422500", "091037.372500", "091033.532500", "091037.482500", "091033.642500", "091037.592500", "091033.752500", "091037.702500", "091033.862500", "091037.812500", "091033.972500", "091037.922500", "091034.082500", "091038.032500", "091034.192500", "091038.140000", "091034.302500", "091038.250000", "091034.410000", "091038.360000", "091034.520000", "091038.470000", "091034.630000", "091038.580000", "091034.740000", "091038.690000", "091034.850000", "091038.800000", "091034.960000", "091038.910000", "091035.070000", "091039.020000", "091035.180000", "091039.127500", "091035.287500", "091039.237500", "091035.397500", "091039.347500", "091035.507500", "091039.457500", "091035.617500", "091039.567500", "091035.727500", "091039.677500", "091035.837500", "091039.787500", "091035.947500", "091039.897500", "091036.057500", "091040.005000", "091036.167500", "091040.115000", "091036.275000", "091040.225000", "091036.385000", "091040.335000", "091036.495000", "091044.305000", "091040.465000", "091044.415000", "091040.575000", "091044.525000", "091040.685000", "091044.635000", "091040.795000", "091044.745000", "091040.905000", "091044.855000", "091041.015000", "091044.962500", "091041.122500", "091045.072500", "091041.232500", "091045.182500", "091041.342500", "091045.292500", "091041.452500", "091045.402500", "091041.562500", "091045.512500", "091041.672500", "091045.622500", "091041.782500", "091045.732500", "091041.892500", "091045.840000", "091042.002500", "091045.950000", "091042.110000", "091046.060000", "091042.220000", "091046.170000", "091042.330000", "091046.280000", "091042.440000", "091046.390000", "091042.550000", "091046.500000", "091042.660000", "091046.610000", "091042.770000", "091046.720000", "091042.880000", "091046.827500", "091042.987500", "091046.937500", "091043.097500", "091047.047500", "091043.207500", "091047.157500", "091043.317500", "091047.267500", "091043.427500", "091047.377500", "091043.537500", "091047.487500", "091043.647500", "091047.597500", "091043.757500", "091047.705000", "091043.867500", "091047.815000", "091043.975000", "091047.925000", "091044.085000", "091048.035000", "091044.195000", "091052.005000", "091048.165000", "091052.115000", "091048.275000", "091052.225000", "091048.385000", "091052.335000", "091048.495000", "091052.445000", "091048.605000", "091052.555000", "091048.715000", "091052.662500", "091048.822500", "091052.772500", "091048.932500", "091052.882500", "091049.042500", "091052.992500", "091049.152500", "091053.102500", "091049.262500", "091053.212500", "091049.372500", "091053.322500", "091049.482500", "091053.432500", "091049.592500", "091053.540000", "091049.702500", "091053.650000", "091049.810000", "091053.760000", "091049.920000", "091053.870000", "091050.030000", "091053.980000", "091050.140000", "091054.090000", "091050.250000", "091054.200000", "091050.360000", "091054.310000", "091050.470000", "091054.420000", "091050.580000", "091054.527500", "091050.687500", "091054.637500", "091050.797500", "091054.747500", "091050.907500", "091054.857500", "091051.017500", "091054.967500", "091051.127500", "091055.077500", "091051.237500", "091055.187500", "091051.347500", "091055.297500", "091051.457500", "091055.405000", "091051.567500", "091055.515000", "091051.675000", "091055.625000", "091051.785000", "091055.735000", "091051.895000", "091059.705000", "091055.865000", "091059.815000", "091055.975000", "091059.925000", "091056.085000", "091100.035000", "091056.195000", "091100.145000", "091056.305000", "091100.255000", "091056.415000", "091100.362500", "091056.522500", "091100.472500", "091056.632500", "091100.582500", "091056.742500", "091100.692500", "091056.852500", "091100.802500", "091056.962500", "091100.912500", "091057.072500", "091101.022500", "091057.182500", "091101.132500", "091057.292500", "091101.240000", "091057.402500", "091101.350000", "091057.510000", "091101.460000", "091057.620000", "091101.570000", "091057.730000", "091101.680000", "091057.840000", "091101.790000", "091057.950000", "091101.900000", "091058.060000", "091102.010000", "091058.170000", "091102.120000", "091058.280000", "091102.227500", "091058.387500", "091102.337500", "091058.497500", "091102.447500", "091058.607500", "091102.557500", "091058.717500", "091102.667500", "091058.827500", "091102.777500", "091058.937500", "091102.887500", "091059.047500", "091102.997500", "091059.157500", "091103.105000", "091059.267500", "091103.215000", "091059.375000", "091103.325000", "091059.485000", "091103.435000", "091059.595000", "091107.405000", "091103.565000", "091107.515000", "091103.675000", "091107.625000", "091103.785000", "091107.735000", "091103.895000", "091107.845000", "091104.005000", "091107.955000", "091104.115000", "091108.062500", "091104.222500", "091108.172500", "091104.332500", "091108.282500", "091104.442500", "091108.392500", "091104.552500", "091108.502500", "091104.662500", "091108.612500", "091104.772500", "091108.722500", "091104.882500", "091108.832500", "091104.992500", "091108.940000", "091105.102500", "091109.050000", "091105.210000", "091109.160000", "091105.320000", "091109.270000", "091105.430000", "091109.380000", "091105.540000", "091109.490000", "091105.650000", "091109.600000", "091105.760000", "091109.710000", "091105.870000", "091109.820000", "091105.980000", "091109.927500", "091106.087500", "091110.037500", "091106.197500", "091110.147500", "091106.307500", "091110.257500", "091106.417500", "091110.367500", "091106.527500", "091110.477500", "091106.637500", "091110.587500", "091106.747500", "091110.697500", "091106.857500", "091110.805000", "091106.967500", "091110.915000", "091107.075000", "091111.025000", "091107.185000", "091111.135000", "091107.295000", "091115.105000", "091111.265000", "091115.215000", "091111.375000", "091115.325000", "091111.485000", "091115.435000", "091111.595000", "091115.545000", "091111.705000", "091115.655000", "091111.815000", "091115.762500", "091111.922500", "091115.872500", "091112.032500", "091115.982500", "091112.142500", "091116.092500", "091112.252500", "091116.202500", "091112.362500", "091116.312500", "091112.472500", "091116.422500", "091112.582500", "091116.532500", "091112.692500", "091116.640000", "091112.802500", "091116.750000", "091112.910000", "091116.860000", "091113.020000", "091116.970000", "091113.130000", "091117.080000", "091113.240000", "091117.190000", "091113.350000", "091117.300000", "091113.460000", "091117.410000", "091113.570000", "091117.520000", "091113.680000", "091117.627500", "091113.787500", "091117.737500", "091113.897500", "091117.847500", "091114.007500", "091117.957500", "091114.117500", "091118.067500", "091114.227500", "091118.177500", "091114.337500", "091118.287500", "091114.447500", "091118.397500", "091114.557500", "091118.505000", "091114.667500", "091118.615000", "091114.775000", "091118.725000", "091114.885000", "091118.835000", "091114.995000", "091122.805000", "091118.965000", "091122.915000", "091119.075000", "091123.025000", "091119.185000", "091123.135000", "091119.295000", "091123.245000", "091119.405000", "091123.355000", "091119.515000", "091123.462500", "091119.622500", "091123.572500", "091119.732500", "091123.682500", "091119.842500", "091123.792500", "091119.952500", "091123.902500", "091120.062500", "091124.012500", "091120.172500", "091124.122500", "091120.282500", "091124.232500", "091120.392500", "091124.340000", "091120.502500", "091124.450000", "091120.610000", "091124.560000", "091120.720000", "091124.670000", "091120.830000", "091124.780000", "091120.940000", "091124.890000", "091121.050000", "091125.000000", "091121.160000", "091125.110000", "091121.270000", "091125.220000", "091121.380000", "091125.327500", "091121.487500", "091125.437500", "091121.597500", "091125.547500", "091121.707500", "091125.657500", "091121.817500", "091125.767500", "091121.927500", "091125.877500", "091122.037500", "091125.987500", "091122.147500", "091126.097500", "091122.257500", "091126.205000", "091122.367500", "091126.315000", "091122.475000", "091126.425000", "091122.585000", "091126.535000", "091122.695000", "091130.505000", "091126.665000", "091130.615000", "091126.775000", "091130.725000", "091126.885000", "091130.835000", "091126.995000", "091130.945000", "091127.105000", "091131.055000", "091127.215000", "091131.162500", "091127.322500", "091131.272500", "091127.432500", "091131.382500", "091127.542500", "091131.492500", "091127.652500", "091131.602500", "091127.762500", "091131.712500", "091127.872500", "091131.822500", "091127.982500", "091131.932500", "091128.092500", "091132.040000", "091128.202500", "091132.150000", "091128.310000", "091132.260000", "091128.420000", "091132.370000", "091128.530000", "091132.480000", "091128.640000", "091132.590000", "091128.750000", "091132.700000", "091128.860000", "091132.810000", "091128.970000", "091132.920000", "091129.080000", "091133.027500", "091129.187500", "091133.137500", "091129.297500", "091133.247500", "091129.407500", "091133.357500", "091129.517500", "091133.467500", "091129.627500", "091133.577500", "091129.737500", "091133.687500", "091129.847500", "091133.797500", "091129.957500", "091133.905000", "091130.067500", "091134.015000", "091130.175000", "091134.125000", "091130.285000", "091134.235000", "091130.395000", "091138.205000", "091134.365000", "091138.315000", "091134.475000", "091138.425000", "091134.585000", "091138.535000", "091134.695000", "091138.645000", "091134.805000", "091138.755000", "091134.915000", "091138.862500", "091135.022500", "091138.972500", "091135.132500", "091139.082500", "091135.242500", "091139.192500", "091135.352500", "091139.302500", "091135.462500", "091139.412500", "091135.572500", "091139.522500", "091135.682500", "091139.632500", "091135.792500", "091139.740000", "091135.902500", "091139.850000", "091136.010000", "091139.960000", "091136.120000", "091140.070000", "091136.230000", "091140.180000", "091136.340000", "091140.290000", "091136.450000", "091140.400000", "091136.560000", "091140.510000", "091136.670000", "091140.620000", "091136.780000", "091140.727500", "091136.887500", "091140.837500", "091136.997500", "091140.947500", "091137.107500", "091141.057500", "091137.217500", "091141.167500", "091137.327500", "091141.277500", "091137.437500", "091141.387500", "091137.547500", "091141.497500", "091137.657500", "091141.605000", "091137.767500", "091141.715000", "091137.875000", "091141.825000", "091137.985000", "091141.935000", "091138.095000", "091145.905000", "091142.065000", "091146.015000", "091142.175000", "091146.125000", "091142.285000", "091146.235000", "091142.395000", "091146.345000", "091142.505000", "091146.455000", "091142.615000", "091146.562500", "091142.722500", "091146.672500", "091142.832500", "091146.782500", "091142.942500", "091146.892500", "091143.052500", "091147.002500", "091143.162500", "091147.112500", "091143.272500", "091147.222500", "091143.382500", "091147.332500", "091143.492500", "091147.440000", "091143.602500", "091147.550000", "091143.710000", "091147.660000", "091143.820000", "091147.770000", "091143.930000", "091147.880000", "091144.040000", "091147.990000", "091144.150000", "091148.100000", "091144.260000", "091148.210000", "091144.370000", "091148.320000", "091144.480000", "091148.427500", "091144.587500", "091148.537500", "091144.697500", "091148.647500", "091144.807500", "091148.757500", "091144.917500", "091148.867500", "091145.027500", "091148.977500", "091145.137500", "091149.087500", "091145.247500", "091149.197500", "091145.357500", "091149.305000", "091145.467500", "091149.415000", "091145.575000", "091149.525000", "091145.685000", "091149.635000", "091145.795000", "091153.605000", "091149.765000", "091153.715000", "091149.875000", "091153.825000", "091149.985000", "091153.935000", "091150.095000", "091154.045000", "091150.205000", "091154.155000", "091150.315000", "091154.262500", "091150.422500", "091154.372500", "091150.532500", "091154.482500", "091150.642500", "091154.592500", "091150.752500", "091154.702500", "091150.862500", "091154.812500", "091150.972500", "091154.922500", "091151.082500", "091155.032500", "091151.192500", "091155.140000", "091151.302500", "091155.250000", "091151.410000", "091155.360000", "091151.520000", "091155.470000", "091151.630000", "091155.580000", "091151.740000", "091155.690000", "091151.850000", "091155.800000", "091151.960000", "091155.910000", "091152.070000", "091156.020000", "091152.180000", "091156.127500", "091152.287500", "091156.237500", "091152.397500", "091156.347500", "091152.507500", "091156.457500", "091152.617500", "091156.567500", "091152.727500", "091156.677500", "091152.837500", "091156.787500", "091152.947500", "091156.897500", "091153.057500", "091157.005000", "091153.167500", "091157.115000", "091153.275000", "091157.225000", "091153.385000", "091157.335000", "091153.495000", "091201.305000", "091157.465000", "091201.415000", "091157.575000", "091201.525000", "091157.685000", "091201.635000", "091157.795000", "091201.745000", "091157.905000", "091201.855000", "091158.015000", "091201.962500", "091158.122500", "091202.072500", "091158.232500", "091202.182500", "091158.342500", "091202.292500", "091158.452500", "091202.402500", "091158.562500", "091202.512500", "091158.672500", "091202.622500", "091158.782500", "091202.732500", "091158.892500", "091202.840000", "091159.002500", "091202.950000", "091159.110000", "091203.060000", "091159.220000", "091203.170000", "091159.330000", "091203.280000", "091159.440000", "091203.390000", "091159.550000", "091203.500000", "091159.660000", "091203.610000", "091159.770000", "091203.720000", "091159.880000", "091203.827500", "091159.987500", "091203.937500", "091200.097500", "091204.047500", "091200.207500", "091204.157500", "091200.317500", "091204.267500", "091200.427500", "091204.377500", "091200.537500", "091204.487500", "091200.647500", "091204.597500", "091200.757500", "091204.705000", "091200.867500", "091204.815000", "091200.975000", "091204.925000", "091201.085000", "091205.035000", "091201.195000", "091209.005000", "091205.165000", "091209.115000", "091205.275000", "091209.225000", "091205.385000", "091209.335000", "091205.495000", "091209.445000", "091205.605000", "091209.555000", "091205.715000", "091209.662500", "091205.822500", "091209.772500", "091205.932500", "091209.882500", "091206.042500", "091209.992500", "091206.152500", "091210.102500", "091206.262500", "091210.212500", "091206.372500", "091210.322500", "091206.482500", "091210.432500", "091206.592500", "091210.540000", "091206.702500", "091210.650000", "091206.810000", "091210.760000", "091206.920000", "091210.870000", "091207.030000", "091210.980000", "091207.140000", "091211.090000", "091207.250000", "091211.200000", "091207.360000", "091211.310000", "091207.470000", "091211.420000", "091207.580000", "091211.527500", "091207.687500", "091211.637500", "091207.797500", "091211.747500", "091207.907500", "091211.857500", "091208.017500", "091211.967500", "091208.127500", "091212.077500", "091208.237500", "091212.187500", "091208.347500", "091212.297500", "091208.457500", "091212.405000", "091208.567500", "091212.515000", "091208.675000", "091212.625000", "091208.785000", "091212.735000", "091208.895000", "091216.705000", "091212.865000", "091216.815000", "091212.975000", "091216.925000", "091213.085000", "091217.035000", "091213.195000", "091217.145000", "091213.305000", "091217.255000", "091213.415000", "091217.362500", "091213.522500", "091217.472500", "091213.632500", "091217.582500", "091213.742500", "091217.692500", "091213.852500", "091217.802500", "091213.962500", "091217.912500", "091214.072500", "091218.022500", "091214.182500", "091218.132500", "091214.292500", "091218.240000", "091214.402500", "091218.350000", "091214.510000", "091218.460000", "091214.620000", "091218.570000", "091214.730000", "091218.680000", "091214.840000", "091218.790000", "091214.950000", "091218.900000", "091215.060000", "091219.010000", "091215.170000", "091219.120000", "091215.280000", "091219.227500", "091215.387500", "091219.337500", "091215.497500", "091219.447500", "091215.607500", "091219.557500", "091215.717500", "091219.667500", "091215.827500", "091219.777500", "091215.937500", "091219.887500", "091216.047500", "091219.997500", "091216.157500", "091220.105000", "091216.267500", "091220.215000", "091216.375000", "091220.325000", "091216.485000", "091220.435000", "091216.595000", "091224.405000", "091220.565000", "091224.515000", "091220.675000", "091224.625000", "091220.785000", "091224.735000", "091220.895000", "091224.845000", "091221.005000", "091224.955000", "091221.115000", "091225.062500", "091221.222500", "091225.172500", "091221.332500", "091225.282500", "091221.442500", "091225.392500", "091221.552500", "091225.502500", "091221.662500", "091225.612500", "091221.772500", "091225.722500", "091221.882500", "091225.832500", "091221.992500", "091225.940000", "091222.102500", "091226.050000", "091222.210000", "091226.160000", "091222.320000", "091226.270000", "091222.430000", "091226.380000", "091222.540000", "091226.490000", "091222.650000", "091226.600000", "091222.760000", "091226.710000", "091222.870000", "091226.820000", "091222.980000", "091226.927500", "091223.087500", "091227.037500", "091223.197500", "091227.147500", "091223.307500", "091227.257500", "091223.417500", "091227.367500", "091223.527500", "091227.477500", "091223.637500", "091227.587500", "091223.747500", "091227.697500", "091223.857500", "091227.805000", "091223.967500", "091227.915000", "091224.075000", "091228.025000", "091224.185000", "091228.135000", "091224.295000", "091232.105000", "091228.265000", "091232.215000", "091228.375000", "091232.325000", "091228.485000", "091232.435000", "091228.595000", "091232.545000", "091228.705000", "091232.655000", "091228.815000", "091232.762500", "091228.922500", "091232.872500", "091229.032500", "091232.982500", "091229.142500", "091233.092500", "091229.252500", "091233.202500", "091229.362500", "091233.312500", "091229.472500", "091233.422500", "091229.582500", "091233.532500", "091229.692500", "091233.640000", "091229.802500", "091233.750000", "091229.910000", "091233.860000", "091230.020000", "091233.970000", "091230.130000", "091234.080000", "091230.240000", "091234.190000", "091230.350000", "091234.300000", "091230.460000", "091234.410000", "091230.570000", "091234.520000", "091230.680000", "091234.627500", "091230.787500", "091234.737500", "091230.897500", "091234.847500", "091231.007500", "091234.957500", "091231.117500", "091235.067500", "091231.227500", "091235.177500", "091231.337500", "091235.287500", "091231.447500", "091235.397500", "091231.557500", "091235.505000", "091231.667500", "091235.615000", "091231.775000", "091235.725000", "091231.885000", "091235.835000", "091231.995000", "091239.805000", "091235.965000", "091239.915000", "091236.075000", "091240.025000", "091236.185000", "091240.135000", "091236.295000", "091240.245000", "091236.405000", "091240.355000", "091236.515000", "091240.462500", "091236.622500", "091240.572500", "091236.732500", "091240.682500", "091236.842500", "091240.792500", "091236.952500", "091240.902500", "091237.062500", "091241.012500", "091237.172500", "091241.122500", "091237.282500", "091241.232500", "091237.392500", "091241.340000", "091237.502500", "091241.450000", "091237.610000", "091241.560000", "091237.720000", "091241.670000", "091237.830000", "091241.780000", "091237.940000", "091241.890000", "091238.050000", "091242.000000", "091238.160000", "091242.110000", "091238.270000", "091242.220000", "091238.380000", "091242.327500", "091238.487500", "091242.437500", "091238.597500", "091242.547500", "091238.707500", "091242.657500", "091238.817500", "091242.767500", "091238.927500", "091242.877500", "091239.037500", "091242.987500", "091239.147500", "091243.097500", "091239.257500", "091243.205000", "091239.367500", "091243.315000", "091239.475000", "091243.425000", "091239.585000", "091243.535000", "091239.695000", "091247.505000", "091243.665000", "091247.615000", "091243.775000", "091247.725000", "091243.885000", "091247.835000", "091243.995000", "091247.945000", "091244.105000", "091248.055000", "091244.215000", "091248.162500", "091244.322500", "091248.272500", "091244.432500", "091248.382500", "091244.542500", "091248.492500", "091244.652500", "091248.602500", "091244.762500", "091248.712500", "091244.872500", "091248.822500", "091244.982500", "091248.932500", "091245.092500", "091249.040000", "091245.202500", "091249.150000", "091245.310000", "091249.260000", "091245.420000", "091249.370000", "091245.530000", "091249.480000", "091245.640000", "091249.590000", "091245.750000", "091249.700000", "091245.860000", "091249.810000", "091245.970000", "091249.920000", "091246.080000", "091250.027500", "091246.187500", "091250.137500", "091246.297500", "091250.247500", "091246.407500", "091250.357500", "091246.517500", "091250.467500", "091246.627500", "091250.577500", "091246.737500", "091250.687500", "091246.847500", "091250.797500", "091246.957500", "091250.905000", "091247.067500", "091251.015000", "091247.175000", "091251.125000", "091247.285000", "091251.235000", "091247.395000", "091255.205000", "091251.365000", "091255.315000", "091251.475000", "091255.425000", "091251.585000", "091255.535000", "091251.695000", "091255.645000", "091251.805000", "091255.755000", "091251.915000", "091255.862500", "091252.022500", "091255.972500", "091252.132500", "091256.082500", "091252.242500", "091256.192500", "091252.352500", "091256.302500", "091252.462500", "091256.412500", "091252.572500", "091256.522500", "091252.682500", "091256.632500", "091252.792500", "091256.740000", "091252.902500", "091256.850000", "091253.010000", "091256.960000", "091253.120000", "091257.070000", "0912