{
  "AcquisitionMatrixPE": 80,
  "AcquisitionNumber": 1,
  "AcquisitionTime": "10:39:15.820000",
  "BandwidthPerPixelPhaseEncode": 48.077,
  "BaseResolution": 80,
  "BodyPartExamined": "BRAIN",
  "CoilCombinationMethod": "Sum of Squares",
  "ConsistencyInfo": "N4_VE11C_LATEST_20160120",
  "ConversionSoftware": "dcm2niix",
  "ConversionSoftwareVersion": "v1.0.20220720",
  "DerivedVendorReportedEchoSpacing": 0.000519999,
  "DeviceSerialNumber": "66112",
  "DwellTime": 2.7e-06,
  "EchoTime": 0.035,
  "EchoTrainLength": 39,
  "EffectiveEchoSpacing": 0.00026,
  "FlipAngle": 90,
  "HeudiconvVersion": "0.13.1",
  "ImageOrientationPatientDICOM": [0.997288, -0.0735418, 0.00281487, 0.0690375, 0.948089, 0.310421],
  "ImageOrientationText": "Tra>Cor(18.0)>Sag(1.5)",
  "ImageType": [
    "ORIGINAL",
    "PRIMARY",
    "M",
    "ND",
    "NORM",
    "MOSAIC"
],
  "ImagingFrequency": 123.252,
  "InPlanePhaseEncodingDirectionDICOM": "COL",
  "InstitutionAddress": "Maynard 3,Hanover,NH,US,03755",
  "InstitutionName": "Dartmouth College - PBS",
  "InstitutionalDepartmentName": "Department",
  "MRAcquisitionType": "2D",
  "MagneticFieldStrength": 3,
  "Manufacturer": "Siemens",
  "ManufacturersModelName": "Prisma",
  "MatrixCoilMode": "GRAPPA",
  "Modality": "MR",
  "NonlinearGradientCorrection": false,
  "ParallelReductionFactorInPlane": 2,
  "PartialFourier": 1,
  "PatientPosition": "HFS",
  "PercentPhaseFOV": 100,
  "PercentSampling": 100,
  "PhaseEncodingDirection": "j-",
  "PhaseEncodingSteps": 79,
  "PhaseResolution": 1,
  "PixelBandwidth": 2315,
  "ProcedureStepDescription": "dbic^QA",
  "ProtocolName": "func-bold_task-rest_acq-p2",
  "PulseSequenceDetails": "%SiemensSeq%\\ep2d_bold",
  "ReceiveCoilActiveElements": "HEA;HEP",
  "ReceiveCoilName": "Head_32",
  "ReconMatrixPE": 80,
  "RefLinesPE": 24,
  "RepetitionTime": 2,
  "SAR": 0.0553707,
  "ScanOptions": "FS",
  "ScanningSequence": "EP",
  "SequenceName": "*epfid2d1_80",
  "SequenceVariant": "SK",
  "SeriesDescription": "func-bold_task-rest_acq-p2",
  "SeriesNumber": 5,
  "ShimSetting": [4141, -7708, -7536, 211, -75, -97, -38, 84],
  "SliceThickness": 3.5,
  "SliceTiming": [0.99, 0, 1.055, 0.065, 1.12, 0.13, 1.1875, 0.1975, 1.2525, 0.2625, 1.32, 0.33, 1.385, 0.395, 1.45, 0.46, 1.5175, 0.5275, 1.5825, 0.5925, 1.65, 0.66, 1.715, 0.725, 1.78, 0.79, 1.8475, 0.8575, 1.9125, 0.9225],
  "SoftwareVersions": "syngo MR E11",
  "SpacingBetweenSlices": 3.99,
  "StationName": "AWP66112",
  "TaskName": "rest",
  "TotalReadoutTime": 0.02054,
  "TxRefAmp": 220.315,
  "dcmmeta_affine": [
    [-2.9918644428253174, 0.2071126252412796, 0.1017356738448143, 109.82254791259766],
    [0.22062525153160095, 2.844266653060913, 1.234446406364441, -140.74220275878906],
    [0.008444598875939846, -0.9312636256217957, 3.7928738594055176, -9.085176467895508],
    [0.0, 0.0, 0.0, 1.0]
],
  "dcmmeta_reorient_transform": [
    [0.0, -1.0, 0.0, 79.0],
    [1.0, 0.0, 0.0, 0.0],
    [0.0, 0.0, 1.0, 0.0],
    [0.0, 0.0, 0.0, 1.0]
],
  "dcmmeta_shape": [80, 80, 30, 200],
  "dcmmeta_slice_dim": 2,
  "dcmmeta_version": 0.6,
  "global": {
    "const": {
      "AccessionNumber": "qa",
      "AcquisitionMatrix": [80, 0, 0, 80],
      "AngioFlag": "N",
      "BitsAllocated": 16,
      "BitsStored": 12,
      "BodyPartExamined": "BRAIN",
      "Columns": 480,
      "EchoNumbers": 1,
      "EchoTime": 35.0,
      "EchoTrainLength": 39,
      "FlipAngle": 90.0,
      "HighBit": 11,
      "ImageOrientationPatient": [0.99728816653756, -0.0735417528512, 0.00281486620122, 0.06903754104105, 0.94808886357507, 0.31042120528718],
      "ImagePositionPatient": [-765.9798696117, -608.68312077101, -270.59664475045],
      "ImageType": [
        "ORIGINAL",
        "PRIMARY",
        "M",
        "ND",
        "NORM",
        "MOSAIC"
],
      "ImagedNucleus": "1H",
      "ImagingFrequency": 123.252355,
      "InPlanePhaseEncodingDirection": "COL",
      "MRAcquisitionType": "2D",
      "MagneticFieldStrength": 3.0,
      "Manufacturer": "SIEMENS",
      "ManufacturerModelName": "Prisma",
      "Modality": "MR",
      "NumberOfAverages": 1.0,
      "NumberOfPhaseEncodingSteps": 79,
      "PercentPhaseFieldOfView": 100.0,
      "PercentSampling": 100.0,
      "PerformedProcedureStepStartTime": "103525.655000",
      "PhotometricInterpretation": "MONOCHROME2",
      "PixelBandwidth": 2315.0,
      "PixelRepresentation": 0,
      "PixelSpacing": [3.0, 3.0],
      "ProtocolName": "func-bold_task-rest_acq-p2",
      "RepetitionTime": 2000.0,
      "Rows": 480,
      "SAR": 0.05537074353449,
      "SamplesPerPixel": 1,
      "ScanOptions": "FS",
      "ScanningSequence": "EP",
      "SequenceName": "*epfid2d1_80",
      "SequenceVariant": "SK",
      "SeriesDescription": "func-bold_task-rest_acq-p2",
      "SeriesNumber": 5,
      "SeriesTime": "103957.226000",
      "SliceLocation": -49.379640692145,
      "SliceThickness": 3.5,
      "SmallestImagePixelValue": 0,
      "SoftwareVersions": "syngo MR E11",
      "SpacingBetweenSlices": 3.989999952553,
      "SpecificCharacterSet": "ISO_IR 100",
      "StudyID": "44",
      "StudyTime": "103525.605000",
      "TransmitCoilName": "Body",
      "VariableFlipAngleFlag": "N",
      "WindowCenterWidthExplanation": "Algo1",
      "dBdt": 0.0},
    "slices": {}
  },
  "time": {
    "samples": {
      "AcquisitionNumber": [1, 2, 3, 4, 5, 6, 7, 8, 9, 10, 11, 12, 13, 14, 15, 16, 17, 18, 19, 20, 21, 22, 23, 24, 25, 26, 27, 28, 29, 30, 31, 32, 33, 34, 35, 36, 37, 38, 39, 40, 41, 42, 43, 44, 45, 46, 47, 48, 49, 50, 51, 52, 53, 54, 55, 56, 57, 58, 59, 60, 61, 62, 63, 64, 65, 66, 67, 68, 69, 70, 71, 72, 73, 74, 75, 76, 77, 78, 79, 80, 81, 82, 83, 84, 85, 86, 87, 88, 89, 90, 91, 92, 93, 94, 95, 96, 97, 98, 99, 100, 101, 102, 103, 104, 105, 106, 107, 108, 109, 110, 111, 112, 113, 114, 115, 116, 117, 118, 119, 120, 121, 122, 123, 124, 125, 126, 127, 128, 129, 130, 131, 132, 133, 134, 135, 136, 137, 138, 139, 140, 141, 142, 143, 144, 145, 146, 147, 148, 149, 150, 151, 152, 153, 154, 155, 156, 157, 158, 159, 160, 161, 162, 163, 164, 165, 166, 167, 168, 169, 170, 171, 172, 173, 174, 175, 176, 177, 178, 179, 180, 181, 182, 183, 184, 185, 186, 187, 188, 189, 190, 191, 192, 193, 194, 195, 196, 197, 198, 199, 200],
      "AcquisitionTime": ["103915.820000", "103917.820000", "103919.820000", "103921.820000", "103923.820000", "103925.820000", "103927.820000", "103929.820000", "103931.820000", "103933.820000", "103935.820000", "103937.820000", "103939.820000", "103941.820000", "103943.820000", "103945.820000", "103947.820000", "103949.820000", "103951.820000", "103953.820000", "103955.820000", "103957.820000", "103959.820000", "104001.820000", "104003.820000", "104005.820000", "104007.820000", "104009.820000", "104011.820000", "104013.820000", "104015.820000", "104017.820000", "104019.820000", "104021.820000", "104023.820000", "104025.820000", "104027.820000", "104029.820000", "104031.820000", "104033.820000", "104035.820000", "104037.820000", "104039.820000", "104041.820000", "104043.820000", "104045.820000", "104047.820000", "104049.820000", "104051.820000", "104053.820000", "104055.820000", "104057.820000", "104059.820000", "104101.820000", "104103.820000", "104105.820000", "104107.820000", "104109.820000", "104111.820000", "104113.820000", "104115.820000", "104117.820000", "104119.820000", "104121.820000", "104123.820000", "104125.820000", "104127.820000", "104129.820000", "104131.820000", "104133.820000", "104135.820000", "104137.820000", "104139.820000", "104141.820000", "104143.820000", "104145.820000", "104147.820000", "104149.820000", "104151.820000", "104153.820000", "104155.820000", "104157.820000", "104159.820000", "104201.820000", "104203.820000", "104205.820000", "104207.820000", "104209.820000", "104211.820000", "104213.820000", "104215.820000", "104217.820000", "104219.820000", "104221.820000", "104223.820000", "104225.820000", "104227.820000", "104229.820000", "104231.820000", "104233.820000", "104235.820000", "104237.820000", "104239.820000", "104241.820000", "104243.820000", "104245.820000", "104247.820000", "104249.820000", "104251.820000", "104253.820000", "104255.820000", "104257.820000", "104259.820000", "104301.820000", "104303.820000", "104305.820000", "104307.820000", "104309.820000", "104311.820000", "104313.820000", "104315.820000", "104317.820000", "104319.820000", "104321.820000", "104323.820000", "104325.820000", "104327.820000", "104329.820000", "104331.820000", "104333.820000", "104335.820000", "104337.820000", "104339.820000", "104341.820000", "104343.820000", "104345.820000", "104347.820000", "104349.820000", "104351.820000", "104353.820000", "104355.820000", "104357.820000", "104359.820000", "104401.820000", "104403.820000", "104405.820000", "104407.820000", "104409.820000", "104411.820000", "104413.820000", "104415.820000", "104417.820000", "104419.820000", "104421.820000", "104423.820000", "104425.820000", "104427.820000", "104429.820000", "104431.820000", "104433.820000", "104435.820000", "104437.820000", "104439.820000", "104441.820000", "104443.820000", "104445.820000", "104447.820000", "104449.820000", "104451.820000", "104453.820000", "104455.820000", "104457.820000", "104459.820000", "104501.820000", "104503.820000", "104505.820000", "104507.820000", "104509.820000", "104511.820000", "104513.820000", "104515.820000", "104517.820000", "104519.820000", "104521.820000", "104523.820000", "104525.820000", "104527.820000", "104529.820000", "104531.820000", "104533.820000", "104535.820000", "104537.820000", "104539.820000", "104541.820000", "104543.820000", "104545.820000", "104547.820000", "104549.820000", "104551.820000", "104553.820000"],
      "ContentTime": ["103957.229000", "103957.233000", "103957.236000", "103957.238000", "103957.241000", "103957.243000", "103957.254000", "103957.256000", "103957.260000", "103957.263000", "103957.266000", "103957.268000", "103957.271000", "103957.277000", "103957.280000", "103957.282000", "103957.285000", "103957.288000", "103957.290000", "103957.293000", "103957.295000", "104037.224000", "104037.228000", "104037.230000", "104037.233000", "104037.235000", "104037.238000", "104037.241000", "104037.243000", "104037.246000", "104037.248000", "104037.251000", "104037.253000", "104037.256000", "104037.259000", "104037.261000", "104037.264000", "104037.266000", "104037.269000", "104037.272000", "104037.274000", "104117.225000", "104117.228000", "104117.230000", "104117.233000", "104117.235000", "104117.238000", "104117.241000", "104117.243000", "104117.246000", "104117.249000", "104117.251000", "104117.254000", "104117.256000", "104117.259000", "104117.262000", "104117.264000", "104117.267000", "104117.270000", "104117.272000", "104117.280000", "104157.224000", "104157.227000", "104157.229000", "104157.232000", "104157.234000", "104157.237000", "104157.240000", "104157.242000", "104157.245000", "104157.247000", "104157.250000", "104157.253000", "104157.255000", "104157.258000", "104157.260000", "104157.263000", "104157.266000", "104157.268000", "104157.271000", "104157.273000", "104237.225000", "104237.227000", "104237.230000", "104237.233000", "104237.235000", "104237.238000", "104237.241000", "104237.243000", "104237.246000", "104237.249000", "104237.251000", "104237.254000", "104237.256000", "104237.259000", "104237.262000", "104237.264000", "104237.267000", "104237.270000", "104237.272000", "104237.275000", "104317.225000", "104317.228000", "104317.230000", "104317.233000", "104317.235000", "104317.238000", "104317.241000", "104317.243000", "104317.246000", "104317.249000", "104317.251000", "104317.254000", "104317.256000", "104317.259000", "104317.262000", "104317.264000", "104317.267000", "104317.270000", "104317.272000", "104317.275000", "104337.225000", "104337.234000", "104337.237000", "104337.239000", "104337.242000", "104337.244000", "104337.247000", "104337.250000", "104337.252000", "104337.255000", "104417.224000", "104417.227000", "104417.229000", "104417.232000", "104417.234000", "104417.237000", "104417.240000", "104417.242000", "104417.245000", "104417.247000", "104417.250000", "104417.253000", "104417.255000", "104417.258000", "104417.261000", "104417.263000", "104417.266000", "104417.269000", "104417.271000", "104417.274000", "104457.225000", "104457.228000", "104457.230000", "104457.233000", "104457.235000", "104457.238000", "104457.241000", "104457.243000", "104457.246000", "104457.249000", "104457.251000", "104457.254000", "104457.256000", "104457.259000", "104457.262000", "104457.264000", "104457.267000", "104457.270000", "104457.272000", "104457.275000", "104537.225000", "104537.228000", "104537.230000", "104537.233000", "104537.235000", "104537.238000", "104537.241000", "104537.243000", "104537.246000", "104537.249000", "104537.251000", "104537.254000", "104537.257000", "104537.259000", "104537.262000", "104537.264000", "104537.267000", "104537.270000", "104537.272000", "104537.275000", "104554.953000", "104554.956000", "104554.959000", "104554.961000", "104554.964000", "104554.967000", "104554.969000", "104554.972000", "104554.975000"],
      "InstanceCreationTime": ["103957.229000", "103957.233000", "103957.236000", "103957.238000", "103957.241000", "103957.243000", "103957.254000", "103957.256000", "103957.260000", "103957.263000", "103957.266000", "103957.268000", "103957.271000", "103957.277000", "103957.280000", "103957.282000", "103957.285000", "103957.288000", "103957.290000", "103957.293000", "103957.295000", "104037.224000", "104037.228000", "104037.230000", "104037.233000", "104037.235000", "104037.238000", "104037.241000", "104037.243000", "104037.246000", "104037.248000", "104037.251000", "104037.253000", "104037.256000", "104037.259000", "104037.261000", "104037.264000", "104037.266000", "104037.269000", "104037.272000", "104037.274000", "104117.225000", "104117.228000", "104117.230000", "104117.233000", "104117.235000", "104117.238000", "104117.241000", "104117.243000", "104117.246000", "104117.249000", "104117.251000", "104117.254000", "104117.256000", "104117.259000", "104117.262000", "104117.264000", "104117.267000", "104117.270000", "104117.272000", "104117.280000", "104157.224000", "104157.227000", "104157.229000", "104157.232000", "104157.234000", "104157.237000", "104157.240000", "104157.242000", "104157.245000", "104157.247000", "104157.250000", "104157.253000", "104157.255000", "104157.258000", "104157.260000", "104157.263000", "104157.266000", "104157.268000", "104157.271000", "104157.273000", "104237.225000", "104237.227000", "104237.230000", "104237.233000", "104237.235000", "104237.238000", "104237.241000", "104237.243000", "104237.246000", "104237.249000", "104237.251000", "104237.254000", "104237.256000", "104237.259000", "104237.262000", "104237.264000", "104237.267000", "104237.270000", "104237.272000", "104237.275000", "104317.225000", "104317.228000", "104317.230000", "104317.233000", "104317.235000", "104317.238000", "104317.241000", "104317.243000", "104317.246000", "104317.249000", "104317.251000", "104317.254000", "104317.256000", "104317.259000", "104317.262000", "104317.264000", "104317.267000", "104317.270000", "104317.272000", "104317.275000", "104337.225000", "104337.234000", "104337.237000", "104337.239000", "104337.242000", "104337.244000", "104337.247000", "104337.250000", "104337.252000", "104337.255000", "104417.224000", "104417.227000", "104417.229000", "104417.232000", "104417.234000", "104417.237000", "104417.240000", "104417.242000", "104417.245000", "104417.247000", "104417.250000", "104417.253000", "104417.255000", "104417.258000", "104417.261000", "104417.263000", "104417.266000", "104417.269000", "104417.271000", "104417.274000", "104457.225000", "104457.228000", "104457.230000", "104457.233000", "104457.235000", "104457.238000", "104457.241000", "104457.243000", "104457.246000", "104457.249000", "104457.251000", "104457.254000", "104457.256000", "104457.259000", "104457.262000", "104457.264000", "104457.267000", "104457.270000", "104457.272000", "104457.275000", "104537.225000", "104537.228000", "104537.230000", "104537.233000", "104537.235000", "104537.238000", "104537.241000", "104537.243000", "104537.246000", "104537.249000", "104537.251000", "104537.254000", "104537.257000", "104537.259000", "104537.262000", "104537.264000", "104537.267000", "104537.270000", "104537.272000", "104537.275000", "104554.953000", "104554.956000", "104554.959000", "104554.961000", "104554.964000", "104554.967000", "104554.969000", "104554.972000", "104554.975000"],
      "InstanceNumber": [1, 2, 3, 4, 5, 6, 7, 8, 9, 10, 11, 12, 13, 14, 15, 16, 17, 18, 19, 20, 21, 22, 23, 24, 25, 26, 27, 28, 29, 30, 31, 32, 33, 34, 35, 36, 37, 38, 39, 40, 41, 42, 43, 44, 45, 46, 47, 48, 49, 50, 51, 52, 53, 54, 55, 56, 57, 58, 59, 60, 61, 62, 63, 64, 65, 66, 67, 68, 69, 70, 71, 72, 73, 74, 75, 76, 77, 78, 79, 80, 81, 82, 83, 84, 85, 86, 87, 88, 89, 90, 91, 92, 93, 94, 95, 96, 97, 98, 99, 100, 101, 102, 103, 104, 105, 106, 107, 108, 109, 110, 111, 112, 113, 114, 115, 116, 117, 118, 119, 120, 121, 122, 123, 124, 125, 126, 127, 128, 129, 130, 131, 132, 133, 134, 135, 136, 137, 138, 139, 140, 141, 142, 143, 144, 145, 146, 147, 148, 149, 150, 151, 152, 153, 154, 155, 156, 157, 158, 159, 160, 161, 162, 163, 164, 165, 166, 167, 168, 169, 170, 171, 172, 173, 174, 175, 176, 177, 178, 179, 180, 181, 182, 183, 184, 185, 186, 187, 188, 189, 190, 191, 192, 193, 194, 195, 196, 197, 198, 199, 200],
      "LargestImagePixelValue": [2448, 2449, 2444, 2449, 2446, 2446, 2448, 2446, 2450, 2445, 2447, 2447, 2446, 2448, 2445, 2447, 2445, 2447, 2449, 2447, 2447, 2447, 2446, 2447, 2446, 2446, 2447, 2447, 2446, 2447, 2447, 2448, 2447, 2447, 2443, 2448, 2448, 2447, 2445, 2445, 2445, 2444, 2445, 2445, 2446, 2447, 2443, 2444, 2444, 2444, 2446, 2441, 2444, 2447, 2446, 2442, 2446, 2446, 2445, 2444, 2443, 2446, 2446, 2446, 2442, 2445, 2444, 2445, 2444, 2447, 2441, 2445, 2446, 2445, 2446, 2444, 2444, 2445, 2442, 2441, 2442, 2448, 2441, 2443, 2444, 2443, 2447, 2446, 2442, 2444, 2442, 2445, 2444, 2443, 2445, 2444, 2449, 2445, 2443, 2443, 2443, 2442, 2440, 2446, 2444, 2442, 2441, 2443, 2445, 2447, 2446, 2444, 2443, 2443, 2449, 2444, 2442, 2444, 2446, 2449, 2446, 2442, 2444, 2440, 2444, 2443, 2443, 2444, 2445, 2443, 2440, 2443, 2444, 2442, 2443, 2443, 2443, 2445, 2446, 2443, 2446, 2443, 2442, 2444, 2446, 2443, 2444, 2444, 2446, 2443, 2442, 2444, 2447, 2446, 2444, 2443, 2445, 2445, 2440, 2445, 2447, 2447, 2443, 2444, 2446, 2445, 2445, 2445, 2445, 2447, 2441, 2443, 2444, 2448, 2444, 2446, 2444, 2445, 2442, 2445, 2443, 2443, 2443, 2442, 2443, 2445, 2444, 2445, 2443, 2442, 2443, 2445, 2444, 2440, 2442, 2447, 2443, 2444, 2446, 2443],
      "WindowCenter": [1073.0, 1072.0, 1072.0, 1072.0, 1072.0, 1072.0, 1072.0, 1072.0, 1072.0, 1072.0, 1072.0, 1072.0, 1072.0, 1072.0, 1072.0, 1072.0, 1072.0, 1072.0, 1072.0, 1072.0, 1072.0, 1072.0, 1072.0, 1072.0, 1072.0, 1072.0, 1072.0, 1072.0, 1072.0, 1072.0, 1072.0, 1072.0, 1072.0, 1072.0, 1072.0, 1072.0, 1072.0, 1072.0, 1072.0, 1072.0, 1072.0, 1072.0, 1072.0, 1072.0, 1072.0, 1072.0, 1072.0, 1072.0, 1072.0, 1072.0, 1072.0, 1072.0, 1072.0, 1072.0, 1072.0, 1072.0, 1072.0, 1072.0, 1072.0, 1072.0, 1072.0, 1072.0, 1072.0, 1072.0, 1072.0, 1072.0, 1072.0, 1072.0, 1072.0, 1072.0, 1072.0, 1072.0, 1072.0, 1072.0, 1072.0, 1072.0, 1072.0, 1072.0, 1072.0, 1072.0, 1072.0, 1072.0, 1072.0, 1072.0, 1072.0, 1072.0, 1072.0, 1072.0, 1072.0, 1072.0, 1072.0, 1072.0, 1072.0, 1072.0, 1072.0, 1072.0, 1072.0, 1072.0, 1072.0, 1072.0, 1072.0, 1072.0, 1071.0, 1072.0, 1072.0, 1072.0, 1072.0, 1072.0, 1072.0, 1072.0, 1072.0, 1072.0, 1072.0, 1071.0, 1071.0, 1072.0, 1071.0, 1071.0, 1072.0, 1072.0, 1072.0, 1071.0, 1072.0, 1072.0, 1071.0, 1072.0, 1071.0, 1071.0, 1071.0, 1071.0, 1071.0, 1072.0, 1071.0, 1071.0, 1071.0, 1072.0, 1071.0, 1071.0, 1071.0, 1071.0, 1071.0, 1071.0, 1072.0, 1071.0, 1071.0, 1071.0, 1071.0, 1072.0, 1072.0, 1071.0, 1072.0, 1072.0, 1072.0, 1072.0, 1072.0, 1072.0, 1072.0, 1072.0, 1071.0, 1071.0, 1071.0, 1072.0, 1071.0, 1071.0, 1072.0, 1072.0, 1071.0, 1071.0, 1071.0, 1071.0, 1071.0, 1071.0, 1071.0, 1071.0, 1071.0, 1071.0, 1071.0, 1071.0, 1071.0, 1071.0, 1071.0, 1071.0, 1071.0, 1071.0, 1071.0, 1071.0, 1071.0, 1071.0, 1071.0, 1071.0, 1071.0, 1071.0, 1071.0, 1071.0, 1071.0, 1071.0, 1071.0, 1071.0, 1071.0, 1071.0],
      "WindowWidth": [2419.0, 2419.0, 2419.0, 2419.0, 2419.0, 2419.0, 2419.0, 2419.0, 2419.0, 2419.0, 2419.0, 2419.0, 2419.0, 2419.0, 2419.0, 2418.0, 2418.0, 2418.0, 2419.0, 2418.0, 2418.0, 2419.0, 2418.0, 2418.0, 2419.0, 2418.0, 2418.0, 2418.0, 2418.0, 2418.0, 2418.0, 2418.0, 2418.0, 2418.0, 2419.0, 2418.0, 2418.0, 2418.0, 2418.0, 2418.0, 2418.0, 2418.0, 2418.0, 2418.0, 2418.0, 2418.0, 2418.0, 2418.0, 2418.0, 2418.0, 2418.0, 2418.0, 2418.0, 2418.0, 2418.0, 2418.0, 2418.0, 2418.0, 2418.0, 2418.0, 2418.0, 2418.0, 2418.0, 2418.0, 2418.0, 2418.0, 2418.0, 2418.0, 2418.0, 2418.0, 2418.0, 2418.0, 2418.0, 2418.0, 2418.0, 2418.0, 2418.0, 2418.0, 2418.0, 2418.0, 2418.0, 2418.0, 2418.0, 2418.0, 2418.0, 2418.0, 2418.0, 2418.0, 2418.0, 2418.0, 2418.0, 2417.0, 2418.0, 2418.0, 2418.0, 2418.0, 2418.0, 2418.0, 2418.0, 2418.0, 2418.0, 2418.0, 2418.0, 2418.0, 2417.0, 2418.0, 2417.0, 2417.0, 2417.0, 2417.0, 2417.0, 2417.0, 2417.0, 2418.0, 2418.0, 2418.0, 2418.0, 2418.0, 2418.0, 2417.0, 2417.0, 2417.0, 2417.0, 2417.0, 2418.0, 2417.0, 2417.0, 2417.0, 2417.0, 2416.0, 2416.0, 2417.0, 2417.0, 2417.0, 2417.0, 2417.0, 2417.0, 2417.0, 2416.0, 2417.0, 2416.0, 2417.0, 2417.0, 2417.0, 2418.0, 2417.0, 2418.0, 2419.0, 2418.0, 2418.0, 2418.0, 2418.0, 2419.0, 2419.0, 2418.0, 2419.0, 2418.0, 2418.0, 2417.0, 2417.0, 2418.0, 2417.0, 2418.0, 2417.0, 2418.0, 2417.0, 2417.0, 2417.0, 2416.0, 2416.0, 2416.0, 2417.0, 2416.0, 2417.0, 2416.0, 2416.0, 2416.0, 2416.0, 2416.0, 2417.0, 2417.0, 2416.0, 2417.0, 2416.0, 2416.0, 2416.0, 2417.0, 2417.0, 2416.0, 2417.0, 2417.0, 2417.0, 2418.0, 2417.0, 2417.0, 2417.0, 2417.0, 2417.0, 2417.0, 2417.0]
    },
    "slices": {}
  }
}