{
  "AcquisitionMatrixPE": 80,
  "AcquisitionNumber": 1,
  "AcquisitionTime": "10:46:13.165000",
  "BandwidthPerPixelPhaseEncode": 44.643,
  "BaseResolution": 80,
  "BodyPartExamined": "BRAIN",
  "CoilCombinationMethod": "Sum of Squares",
  "ConsistencyInfo": "N4_VE11C_LATEST_20160120",
  "ConversionSoftware": "dcm2niix",
  "ConversionSoftwareVersion": "v1.0.20220720",
  "DerivedVendorReportedEchoSpacing": 0.000559998,
  "DeviceSerialNumber": "66112",
  "DwellTime": 2.7e-06,
  "EchoTime": 0.035,
  "EchoTrainLength": 39,
  "EffectiveEchoSpacing": 0.000279999,
  "FlipAngle": 90,
  "HeudiconvVersion": "0.13.1",
  "ImageOrientationPatientDICOM": [0.997288, -0.0735418, 0.00281487, 0.0690375, 0.948089, 0.310421],
  "ImageOrientationText": "Tra>Cor(18.0)>Sag(1.5)",
  "ImageType": [
    "ORIGINAL",
    "PRIMARY",
    "M",
    "ND",
    "NORM",
    "MOSAIC"
],
  "ImagingFrequency": 123.252,
  "InPlanePhaseEncodingDirectionDICOM": "COL",
  "InstitutionAddress": "Maynard 3,Hanover,NH,US,03755",
  "InstitutionName": "Dartmouth College - PBS",
  "InstitutionalDepartmentName": "Department",
  "MRAcquisitionType": "2D",
  "MagneticFieldStrength": 3,
  "Manufacturer": "Siemens",
  "ManufacturersModelName": "Prisma",
  "Modality": "MR",
  "MultibandAccelerationFactor": 4,
  "NonlinearGradientCorrection": false,
  "ParallelReductionFactorInPlane": 2,
  "PartialFourier": 1,
  "PatientPosition": "HFS",
  "PercentPhaseFOV": 100,
  "PercentSampling": 100,
  "PhaseEncodingDirection": "j-",
  "PhaseEncodingSteps": 79,
  "PhaseResolution": 1,
  "PixelBandwidth": 2315,
  "ProcedureStepDescription": "dbic^QA",
  "ProtocolName": "func-bold_task-rest_acq-p2-s4-3.5mm",
  "PulseSequenceDetails": "%SiemensSeq%\\ep2d_bold",
  "ReceiveCoilActiveElements": "HEA;HEP",
  "ReceiveCoilName": "Head_32",
  "ReconMatrixPE": 80,
  "RefLinesPE": 24,
  "RepetitionTime": 2,
  "SAR": 0.020821,
  "ScanOptions": "FS",
  "ScanningSequence": "EP",
  "SequenceName": "*epfid2d1_80",
  "SequenceVariant": "SK",
  "SeriesDescription": "func-bold_task-rest_acq-p2-s4-3.5mm",
  "SeriesNumber": 7,
  "ShimSetting": [4142, -7709, -7535, 212, -77, -100, -36, 83],
  "SliceThickness": 3.5,
  "SliceTiming": [1.485, 0, 0.99, 0.2475, 1.2375, 0.7425, 1.7325, 0.495, 1.485, 0, 0.99, 0.2475, 1.2375, 0.7425, 1.7325, 0.495, 1.485, 0, 0.99, 0.2475, 1.2375, 0.7425, 1.7325, 0.495, 1.485, 0, 0.99, 0.2475, 1.2375, 0.7425, 1.7325, 0.495],
  "SoftwareVersions": "syngo MR E11",
  "SpacingBetweenSlices": 3.99,
  "StationName": "AWP66112",
  "TaskName": "rest",
  "TotalReadoutTime": 0.0221199,
  "TxRefAmp": 220.315,
  "dcmmeta_affine": [
    [-2.9918644428253174, 0.2071126252412796, 0.1017356738448143, 109.72080993652344],
    [0.22062525153160095, 2.844266653060913, 1.234446406364441, -141.97665405273438],
    [0.008444598875939846, -0.9312636256217957, 3.7928738594055176, -12.878049850463867],
    [0.0, 0.0, 0.0, 1.0]
],
  "dcmmeta_reorient_transform": [
    [0.0, -1.0, 0.0, 79.0],
    [1.0, 0.0, 0.0, 0.0],
    [0.0, 0.0, 1.0, 0.0],
    [0.0, 0.0, 0.0, 1.0]
],
  "dcmmeta_shape": [80, 80, 32, 200],
  "dcmmeta_slice_dim": 2,
  "dcmmeta_version": 0.6,
  "global": {
    "const": {
      "AccessionNumber": "qa",
      "AcquisitionMatrix": [80, 0, 0, 80],
      "AngioFlag": "N",
      "BitsAllocated": 16,
      "BitsStored": 12,
      "BodyPartExamined": "BRAIN",
      "Columns": 480,
      "EchoNumbers": 1,
      "EchoTime": 35.0,
      "EchoTrainLength": 39,
      "FlipAngle": 90.0,
      "HighBit": 11,
      "ImageOrientationPatient": [0.99728816653756, -0.0735417528512, 0.00281486620122, 0.06903754104105, 0.94808886357507, 0.31042120528718],
      "ImagePositionPatient": [-765.87813390061, -607.44867519911, -274.38951813302],
      "ImageType": [
        "ORIGINAL",
        "PRIMARY",
        "M",
        "ND",
        "NORM",
        "MOSAIC"
],
      "ImagedNucleus": "1H",
      "ImagingFrequency": 123.252355,
      "InPlanePhaseEncodingDirection": "COL",
      "MRAcquisitionType": "2D",
      "MagneticFieldStrength": 3.0,
      "Manufacturer": "SIEMENS",
      "ManufacturerModelName": "Prisma",
      "Modality": "MR",
      "NumberOfAverages": 1.0,
      "NumberOfPhaseEncodingSteps": 79,
      "PercentPhaseFieldOfView": 100.0,
      "PercentSampling": 100.0,
      "PerformedProcedureStepStartTime": "103525.655000",
      "PhotometricInterpretation": "MONOCHROME2",
      "PixelBandwidth": 2315.0,
      "PixelRepresentation": 0,
      "PixelSpacing": [3.0, 3.0],
      "ProtocolName": "func-bold_task-rest_acq-p2-s4-3.5mm",
      "RepetitionTime": 2000.0,
      "Rows": 480,
      "SAR": 0.02082101306152,
      "SamplesPerPixel": 1,
      "ScanOptions": "FS",
      "ScanningSequence": "EP",
      "SequenceName": "*epfid2d1_80",
      "SequenceVariant": "SK",
      "SeriesDescription": "func-bold_task-rest_acq-p2-s4-3.5mm",
      "SeriesNumber": 7,
      "SeriesTime": "104657.296000",
      "SliceLocation": -53.369640005565,
      "SliceThickness": 3.5,
      "SmallestImagePixelValue": 0,
      "SoftwareVersions": "syngo MR E11",
      "SpacingBetweenSlices": 3.9900000282938,
      "SpecificCharacterSet": "ISO_IR 100",
      "StudyID": "44",
      "StudyTime": "103525.605000",
      "TransmitCoilName": "Body",
      "VariableFlipAngleFlag": "N",
      "WindowCenterWidthExplanation": "Algo1",
      "dBdt": 0.0},
    "slices": {}
  },
  "time": {
    "samples": {
      "AcquisitionNumber": [1, 2, 3, 4, 5, 6, 7, 8, 9, 10, 11, 12, 13, 14, 15, 16, 17, 18, 19, 20, 21, 22, 23, 24, 25, 26, 27, 28, 29, 30, 31, 32, 33, 34, 35, 36, 37, 38, 39, 40, 41, 42, 43, 44, 45, 46, 47, 48, 49, 50, 51, 52, 53, 54, 55, 56, 57, 58, 59, 60, 61, 62, 63, 64, 65, 66, 67, 68, 69, 70, 71, 72, 73, 74, 75, 76, 77, 78, 79, 80, 81, 82, 83, 84, 85, 86, 87, 88, 89, 90, 91, 92, 93, 94, 95, 96, 97, 98, 99, 100, 101, 102, 103, 104, 105, 106, 107, 108, 109, 110, 111, 112, 113, 114, 115, 116, 117, 118, 119, 120, 121, 122, 123, 124, 125, 126, 127, 128, 129, 130, 131, 132, 133, 134, 135, 136, 137, 138, 139, 140, 141, 142, 143, 144, 145, 146, 147, 148, 149, 150, 151, 152, 153, 154, 155, 156, 157, 158, 159, 160, 161, 162, 163, 164, 165, 166, 167, 168, 169, 170, 171, 172, 173, 174, 175, 176, 177, 178, 179, 180, 181, 182, 183, 184, 185, 186, 187, 188, 189, 190, 191, 192, 193, 194, 195, 196, 197, 198, 199, 200],
      "AcquisitionTime": ["104613.165000", "104615.165000", "104617.165000", "104619.165000", "104621.165000", "104623.165000", "104625.165000", "104627.165000", "104629.165000", "104631.165000", "104633.165000", "104635.165000", "104637.165000", "104639.165000", "104641.165000", "104643.165000", "104645.165000", "104647.165000", "104649.165000", "104651.165000", "104653.165000", "104655.165000", "104657.165000", "104659.165000", "104701.165000", "104703.165000", "104705.165000", "104707.165000", "104709.165000", "104711.165000", "104713.165000", "104715.165000", "104717.165000", "104719.165000", "104721.165000", "104723.165000", "104725.165000", "104727.165000", "104729.165000", "104731.165000", "104733.165000", "104735.165000", "104737.165000", "104739.165000", "104741.165000", "104743.165000", "104745.165000", "104747.165000", "104749.165000", "104751.165000", "104753.165000", "104755.165000", "104757.165000", "104759.165000", "104801.165000", "104803.165000", "104805.165000", "104807.165000", "104809.165000", "104811.165000", "104813.165000", "104815.165000", "104817.165000", "104819.165000", "104821.165000", "104823.165000", "104825.165000", "104827.165000", "104829.165000", "104831.165000", "104833.165000", "104835.165000", "104837.165000", "104839.165000", "104841.165000", "104843.165000", "104845.165000", "104847.165000", "104849.165000", "104851.165000", "104853.165000", "104855.165000", "104857.165000", "104859.165000", "104901.165000", "104903.165000", "104905.165000", "104907.165000", "104909.165000", "104911.165000", "104913.165000", "104915.165000", "104917.165000", "104919.165000", "104921.165000", "104923.165000", "104925.165000", "104927.165000", "104929.165000", "104931.165000", "104933.165000", "104935.165000", "104937.165000", "104939.165000", "104941.165000", "104943.165000", "104945.165000", "104947.165000", "104949.165000", "104951.165000", "104953.165000", "104955.165000", "104957.165000", "104959.165000", "105001.165000", "105003.165000", "105005.165000", "105007.165000", "105009.165000", "105011.165000", "105013.165000", "105015.165000", "105017.165000", "105019.165000", "105021.165000", "105023.165000", "105025.165000", "105027.165000", "105029.165000", "105031.165000", "105033.165000", "105035.165000", "105037.165000", "105039.165000", "105041.165000", "105043.165000", "105045.165000", "105047.165000", "105049.165000", "105051.165000", "105053.165000", "105055.165000", "105057.165000", "105059.165000", "105101.165000", "105103.165000", "105105.165000", "105107.165000", "105109.165000", "105111.165000", "105113.165000", "105115.165000", "105117.165000", "105119.165000", "105121.165000", "105123.165000", "105125.165000", "105127.165000", "105129.165000", "105131.165000", "105133.165000", "105135.165000", "105137.165000", "105139.165000", "105141.165000", "105143.165000", "105145.165000", "105147.165000", "105149.165000", "105151.165000", "105153.165000", "105155.165000", "105157.165000", "105159.165000", "105201.165000", "105203.165000", "105205.165000", "105207.165000", "105209.165000", "105211.165000", "105213.165000", "105215.165000", "105217.165000", "105219.165000", "105221.165000", "105223.165000", "105225.165000", "105227.165000", "105229.165000", "105231.165000", "105233.165000", "105235.165000", "105237.165000", "105239.165000", "105241.165000", "105243.165000", "105245.165000", "105247.165000", "105249.165000", "105251.165000"],
      "ContentTime": ["104657.299000", "104657.303000", "104657.305000", "104657.308000", "104657.311000", "104657.319000", "104657.322000", "104657.325000", "104657.327000", "104657.330000", "104657.333000", "104657.335000", "104657.338000", "104657.340000", "104657.343000", "104657.346000", "104657.348000", "104657.354000", "104657.357000", "104657.359000", "104657.362000", "104657.364000", "104737.294000", "104737.297000", "104737.300000", "104737.303000", "104737.312000", "104737.314000", "104737.317000", "104737.320000", "104737.322000", "104737.325000", "104737.327000", "104737.330000", "104737.333000", "104737.335000", "104737.338000", "104737.340000", "104737.343000", "104737.346000", "104737.348000", "104737.351000", "104817.295000", "104817.297000", "104817.300000", "104817.309000", "104817.311000", "104817.314000", "104817.317000", "104817.327000", "104817.330000", "104817.333000", "104817.335000", "104817.338000", "104817.341000", "104817.343000", "104817.346000", "104817.349000", "104817.351000", "104817.354000", "104817.356000", "104817.359000", "104857.294000", "104857.296000", "104857.299000", "104857.302000", "104857.304000", "104857.307000", "104857.310000", "104857.312000", "104857.315000", "104857.318000", "104857.320000", "104857.323000", "104857.326000", "104857.328000", "104857.331000", "104857.333000", "104857.336000", "104857.339000", "104857.341000", "104857.344000", "104937.295000", "104937.297000", "104937.300000", "104937.303000", "104937.305000", "104937.308000", "104937.311000", "104937.313000", "104937.316000", "104937.319000", "104937.321000", "104937.324000", "104937.327000", "104937.329000", "104937.332000", "104937.334000", "104937.337000", "104937.340000", "104937.342000", "104937.345000", "105017.295000", "105017.297000", "105017.300000", "105017.303000", "105017.306000", "105017.308000", "105017.311000", "105017.313000", "105017.316000", "105017.319000", "105017.321000", "105017.324000", "105017.327000", "105017.329000", "105017.332000", "105017.334000", "105017.337000", "105017.340000", "105017.342000", "105017.345000", "105057.294000", "105057.296000", "105057.299000", "105057.302000", "105057.304000", "105057.307000", "105057.310000", "105057.312000", "105057.315000", "105057.318000", "105057.320000", "105057.323000", "105057.325000", "105057.328000", "105057.331000", "105057.333000", "105057.336000", "105057.338000", "105057.341000", "105057.344000", "105137.294000", "105137.297000", "105137.300000", "105137.303000", "105137.305000", "105137.308000", "105137.311000", "105137.313000", "105137.316000", "105137.319000", "105137.321000", "105137.324000", "105137.326000", "105137.329000", "105137.332000", "105137.334000", "105137.337000", "105137.340000", "105137.342000", "105137.345000", "105217.295000", "105217.297000", "105217.300000", "105217.303000", "105217.306000", "105217.308000", "105217.311000", "105217.313000", "105217.316000", "105217.319000", "105217.321000", "105217.324000", "105217.327000", "105217.329000", "105217.332000", "105217.334000", "105217.337000", "105217.340000", "105217.342000", "105217.345000", "105252.678000", "105252.681000", "105252.684000", "105252.686000", "105252.689000", "105252.692000", "105252.694000", "105252.697000", "105252.700000", "105252.703000", "105252.705000", "105252.708000", "105252.717000", "105252.720000", "105252.724000", "105252.729000", "105252.732000", "105252.735000"],
      "InstanceCreationTime": ["104657.299000", "104657.303000", "104657.305000", "104657.308000", "104657.311000", "104657.319000", "104657.322000", "104657.325000", "104657.327000", "104657.330000", "104657.333000", "104657.335000", "104657.338000", "104657.340000", "104657.343000", "104657.346000", "104657.348000", "104657.354000", "104657.357000", "104657.359000", "104657.362000", "104657.364000", "104737.294000", "104737.297000", "104737.300000", "104737.303000", "104737.312000", "104737.314000", "104737.317000", "104737.320000", "104737.322000", "104737.325000", "104737.327000", "104737.330000", "104737.333000", "104737.335000", "104737.338000", "104737.340000", "104737.343000", "104737.346000", "104737.348000", "104737.351000", "104817.295000", "104817.297000", "104817.300000", "104817.309000", "104817.311000", "104817.314000", "104817.317000", "104817.327000", "104817.330000", "104817.333000", "104817.335000", "104817.338000", "104817.341000", "104817.343000", "104817.346000", "104817.349000", "104817.351000", "104817.354000", "104817.356000", "104817.359000", "104857.294000", "104857.296000", "104857.299000", "104857.302000", "104857.304000", "104857.307000", "104857.310000", "104857.312000", "104857.315000", "104857.318000", "104857.320000", "104857.323000", "104857.326000", "104857.328000", "104857.331000", "104857.333000", "104857.336000", "104857.339000", "104857.341000", "104857.344000", "104937.295000", "104937.297000", "104937.300000", "104937.303000", "104937.305000", "104937.308000", "104937.311000", "104937.313000", "104937.316000", "104937.319000", "104937.321000", "104937.324000", "104937.327000", "104937.329000", "104937.332000", "104937.334000", "104937.337000", "104937.340000", "104937.342000", "104937.345000", "105017.295000", "105017.297000", "105017.300000", "105017.303000", "105017.306000", "105017.308000", "105017.311000", "105017.313000", "105017.316000", "105017.319000", "105017.321000", "105017.324000", "105017.327000", "105017.329000", "105017.332000", "105017.334000", "105017.337000", "105017.340000", "105017.342000", "105017.345000", "105057.294000", "105057.296000", "105057.299000", "105057.302000", "105057.304000", "105057.307000", "105057.310000", "105057.312000", "105057.315000", "105057.318000", "105057.320000", "105057.323000", "105057.325000", "105057.328000", "105057.331000", "105057.333000", "105057.336000", "105057.338000", "105057.341000", "105057.344000", "105137.294000", "105137.297000", "105137.300000", "105137.303000", "105137.305000", "105137.308000", "105137.311000", "105137.313000", "105137.316000", "105137.319000", "105137.321000", "105137.324000", "105137.326000", "105137.329000", "105137.332000", "105137.334000", "105137.337000", "105137.340000", "105137.342000", "105137.345000", "105217.295000", "105217.297000", "105217.300000", "105217.303000", "105217.306000", "105217.308000", "105217.311000", "105217.313000", "105217.316000", "105217.319000", "105217.321000", "105217.324000", "105217.327000", "105217.329000", "105217.332000", "105217.334000", "105217.337000", "105217.340000", "105217.342000", "105217.345000", "105252.678000", "105252.681000", "105252.684000", "105252.686000", "105252.689000", "105252.692000", "105252.694000", "105252.697000", "105252.700000", "105252.703000", "105252.705000", "105252.708000", "105252.717000", "105252.720000", "105252.724000", "105252.729000", "105252.732000", "105252.735000"],
      "InstanceNumber": [1, 2, 3, 4, 5, 6, 7, 8, 9, 10, 11, 12, 13, 14, 15, 16, 17, 18, 19, 20, 21, 22, 23, 24, 25, 26, 27, 28, 29, 30, 31, 32, 33, 34, 35, 36, 37, 38, 39, 40, 41, 42, 43, 44, 45, 46, 47, 48, 49, 50, 51, 52, 53, 54, 55, 56, 57, 58, 59, 60, 61, 62, 63, 64, 65, 66, 67, 68, 69, 70, 71, 72, 73, 74, 75, 76, 77, 78, 79, 80, 81, 82, 83, 84, 85, 86, 87, 88, 89, 90, 91, 92, 93, 94, 95, 96, 97, 98, 99, 100, 101, 102, 103, 104, 105, 106, 107, 108, 109, 110, 111, 112, 113, 114, 115, 116, 117, 118, 119, 120, 121, 122, 123, 124, 125, 126, 127, 128, 129, 130, 131, 132, 133, 134, 135, 136, 137, 138, 139, 140, 141, 142, 143, 144, 145, 146, 147, 148, 149, 150, 151, 152, 153, 154, 155, 156, 157, 158, 159, 160, 161, 162, 163, 164, 165, 166, 167, 168, 169, 170, 171, 172, 173, 174, 175, 176, 177, 178, 179, 180, 181, 182, 183, 184, 185, 186, 187, 188, 189, 190, 191, 192, 193, 194, 195, 196, 197, 198, 199, 200],
      "LargestImagePixelValue": [2454, 2449, 2458, 2454, 2448, 2448, 2453, 2453, 2454, 2449, 2457, 2448, 2451, 2451, 2452, 2459, 2452, 2460, 2454, 2454, 2457, 2455, 2452, 2455, 2453, 2455, 2450, 2449, 2455, 2456, 2457, 2458, 2451, 2456, 2454, 2449, 2453, 2451, 2449, 2455, 2453, 2453, 2450, 2454, 2444, 2447, 2452, 2447, 2446, 2459, 2456, 2454, 2452, 2447, 2449, 2451, 2453, 2453, 2452, 2453, 2449, 2446, 2457, 2448, 2455, 2457, 2452, 2453, 2450, 2451, 2452, 2449, 2455, 2457, 2452, 2453, 2454, 2450, 2450, 2446, 2455, 2449, 2456, 2451, 2447, 2449, 2451, 2450, 2457, 2453, 2453, 2458, 2453, 2452, 2449, 2454, 2454, 2449, 2456, 2452, 2454, 2455, 2451, 2454, 2460, 2455, 2451, 2458, 2449, 2454, 2457, 2455, 2453, 2451, 2452, 2456, 2456, 2455, 2448, 2451, 2451, 2451, 2455, 2451, 2452, 2450, 2452, 2455, 2453, 2452, 2457, 2454, 2449, 2453, 2452, 2450, 2453, 2452, 2454, 2451, 2453, 2451, 2452, 2451, 2453, 2452, 2456, 2454, 2454, 2452, 2459, 2447, 2451, 2455, 2452, 2450, 2459, 2458, 2450, 2454, 2449, 2456, 2451, 2448, 2455, 2450, 2454, 2457, 2458, 2448, 2451, 2455, 2454, 2454, 2452, 2455, 2449, 2455, 2453, 2456, 2451, 2455, 2452, 2450, 2451, 2452, 2448, 2453, 2452, 2451, 2454, 2453, 2454, 2455, 2452, 2452, 2453, 2455, 2452, 2453],
      "WindowCenter": [986.0, 986.0, 986.0, 986.0, 986.0, 986.0, 986.0, 986.0, 986.0, 986.0, 986.0, 986.0, 986.0, 986.0, 986.0, 986.0, 986.0, 986.0, 986.0, 986.0, 986.0, 986.0, 986.0, 986.0, 986.0, 986.0, 986.0, 986.0, 986.0, 986.0, 986.0, 986.0, 986.0, 986.0, 985.0, 985.0, 986.0, 985.0, 985.0, 985.0, 985.0, 986.0, 986.0, 986.0, 986.0, 986.0, 986.0, 986.0, 985.0, 986.0, 985.0, 986.0, 986.0, 986.0, 985.0, 986.0, 986.0, 985.0, 985.0, 986.0, 986.0, 985.0, 986.0, 986.0, 985.0, 986.0, 986.0, 985.0, 986.0, 985.0, 986.0, 985.0, 985.0, 985.0, 985.0, 985.0, 986.0, 986.0, 985.0, 986.0, 986.0, 986.0, 986.0, 986.0, 985.0, 986.0, 985.0, 985.0, 985.0, 986.0, 985.0, 985.0, 985.0, 985.0, 985.0, 985.0, 985.0, 985.0, 985.0, 985.0, 985.0, 986.0, 985.0, 985.0, 985.0, 985.0, 985.0, 986.0, 985.0, 985.0, 985.0, 985.0, 986.0, 985.0, 985.0, 985.0, 986.0, 985.0, 985.0, 986.0, 986.0, 985.0, 985.0, 985.0, 985.0, 985.0, 985.0, 985.0, 985.0, 985.0, 985.0, 985.0, 985.0, 985.0, 985.0, 985.0, 985.0, 985.0, 985.0, 985.0, 985.0, 985.0, 985.0, 985.0, 985.0, 985.0, 985.0, 985.0, 985.0, 985.0, 985.0, 985.0, 985.0, 985.0, 985.0, 985.0, 985.0, 985.0, 985.0, 985.0, 985.0, 985.0, 985.0, 985.0, 985.0, 985.0, 985.0, 985.0, 985.0, 985.0, 985.0, 985.0, 985.0, 985.0, 985.0, 985.0, 985.0, 985.0, 985.0, 985.0, 985.0, 985.0, 985.0, 985.0, 985.0, 985.0, 985.0, 985.0, 985.0, 985.0, 985.0, 985.0, 985.0, 985.0, 985.0, 985.0, 985.0, 985.0, 985.0, 985.0],
      "WindowWidth": [2348.0, 2348.0, 2348.0, 2348.0, 2348.0, 2348.0, 2348.0, 2348.0, 2348.0, 2348.0, 2348.0, 2348.0, 2348.0, 2348.0, 2348.0, 2348.0, 2348.0, 2348.0, 2348.0, 2348.0, 2348.0, 2348.0, 2347.0, 2348.0, 2348.0, 2348.0, 2348.0, 2347.0, 2348.0, 2348.0, 2348.0, 2348.0, 2347.0, 2346.0, 2346.0, 2347.0, 2347.0, 2346.0, 2345.0, 2345.0, 2346.0, 2347.0, 2348.0, 2348.0, 2347.0, 2346.0, 2345.0, 2345.0, 2346.0, 2347.0, 2345.0, 2345.0, 2347.0, 2345.0, 2346.0, 2345.0, 2347.0, 2346.0, 2346.0, 2346.0, 2346.0, 2346.0, 2347.0, 2346.0, 2346.0, 2346.0, 2346.0, 2346.0, 2345.0, 2346.0, 2345.0, 2346.0, 2346.0, 2346.0, 2346.0, 2346.0, 2345.0, 2345.0, 2346.0, 2345.0, 2345.0, 2345.0, 2345.0, 2345.0, 2345.0, 2345.0, 2345.0, 2346.0, 2346.0, 2345.0, 2345.0, 2345.0, 2345.0, 2345.0, 2345.0, 2345.0, 2346.0, 2346.0, 2345.0, 2345.0, 2345.0, 2345.0, 2345.0, 2345.0, 2345.0, 2346.0, 2345.0, 2345.0, 2345.0, 2345.0, 2345.0, 2345.0, 2345.0, 2345.0, 2346.0, 2345.0, 2345.0, 2345.0, 2345.0, 2345.0, 2345.0, 2345.0, 2345.0, 2345.0, 2345.0, 2345.0, 2345.0, 2345.0, 2345.0, 2345.0, 2345.0, 2345.0, 2345.0, 2345.0, 2345.0, 2345.0, 2345.0, 2345.0, 2345.0, 2345.0, 2345.0, 2345.0, 2345.0, 2345.0, 2345.0, 2345.0, 2345.0, 2345.0, 2345.0, 2345.0, 2345.0, 2345.0, 2345.0, 2345.0, 2345.0, 2345.0, 2345.0, 2345.0, 2345.0, 2345.0, 2345.0, 2345.0, 2345.0, 2345.0, 2345.0, 2345.0, 2345.0, 2345.0, 2345.0, 2345.0, 2345.0, 2345.0, 2345.0, 2345.0, 2345.0, 2345.0, 2345.0, 2345.0, 2345.0, 2345.0, 2345.0, 2345.0, 2345.0, 2345.0, 2345.0, 2345.0, 2345.0, 2345.0, 2345.0, 2345.0, 2345.0, 2345.0, 2345.0, 2345.0, 2345.0, 2345.0, 2345.0, 2345.0, 2345.0, 2345.0]
    },
    "slices": {}
  }
}