{
  "AcquisitionMatrixPE": 80,
  "AcquisitionNumber": 1,
  "AcquisitionTime": "10:59:49.590000",
  "BandwidthPerPixelPhaseEncode": 25,
  "BaseResolution": 80,
  "BodyPartExamined": "BRAIN",
  "CoilCombinationMethod": "Sum of Squares",
  "ConsistencyInfo": "N4_VE11C_LATEST_20160120",
  "ConversionSoftware": "dcm2niix",
  "ConversionSoftwareVersion": "v1.0.20220720",
  "DerivedVendorReportedEchoSpacing": 0.0005,
  "DeviceSerialNumber": "66112",
  "DwellTime": 2.7e-06,
  "EchoTime": 0.03,
  "EchoTrainLength": 80,
  "EffectiveEchoSpacing": 0.0005,
  "FlipAngle": 10,
  "HeudiconvVersion": "0.13.1",
  "ImageOrientationPatientDICOM": [0.997276, -0.0737073, 0.00276069, 0.0692116, 0.948076, 0.310422],
  "ImageOrientationText": "Tra>Cor(18.0)>Sag(1.5)",
  "ImageType": [
    "ORIGINAL",
    "PRIMARY",
    "M",
    "ND",
    "NORM",
    "MOSAIC"
],
  "ImagingFrequency": 123.252,
  "InPlanePhaseEncodingDirectionDICOM": "COL",
  "InstitutionAddress": "Maynard 3,Hanover,NH,US,03755",
  "InstitutionName": "Dartmouth College - PBS",
  "InstitutionalDepartmentName": "Department",
  "MRAcquisitionType": "2D",
  "MagneticFieldStrength": 3,
  "Manufacturer": "Siemens",
  "ManufacturersModelName": "Prisma",
  "MatrixCoilMode": "SENSE",
  "Modality": "MR",
  "NonlinearGradientCorrection": false,
  "PartialFourier": 1,
  "PatientPosition": "HFS",
  "PercentPhaseFOV": 100,
  "PercentSampling": 100,
  "PhaseEncodingDirection": "j-",
  "PhaseEncodingSteps": 80,
  "PhaseResolution": 1,
  "PixelBandwidth": 2315,
  "ProcedureStepDescription": "dbic^QA",
  "ProtocolName": "func-bold_fa-10",
  "PulseSequenceDetails": "%SiemensSeq%\\ep2d_bold",
  "ReceiveCoilActiveElements": "HEA;HEP",
  "ReceiveCoilName": "Head_32",
  "ReconMatrixPE": 80,
  "RepetitionTime": 2,
  "SAR": 0.0116723,
  "ScanOptions": "FS",
  "ScanningSequence": "EP",
  "SequenceName": "*epfid2d1_80",
  "SequenceVariant": "SK",
  "SeriesDescription": "func-bold_fa-10",
  "SeriesNumber": 10,
  "ShimSetting": [4141, -7708, -7536, 213, -75, -97, -39, 84],
  "SliceThickness": 3.5,
  "SliceTiming": [0.99, 0, 1.0575, 0.0675, 1.1225, 0.1325, 1.1875, 0.1975, 1.255, 0.265, 1.32, 0.33, 1.3875, 0.3975, 1.4525, 0.4625, 1.5175, 0.5275, 1.585, 0.595, 1.65, 0.66, 1.7175, 0.7275, 1.7825, 0.7925, 1.8475, 0.8575, 1.915, 0.925],
  "SoftwareVersions": "syngo MR E11",
  "SpacingBetweenSlices": 3.99,
  "StationName": "AWP66112",
  "TotalReadoutTime": 0.0395,
  "TxRefAmp": 220.315,
  "dcmmeta_affine": [
    [-2.991828203201294, 0.20763494074344635, 0.10173574090003967, 109.74015045166016],
    [0.22112183272838593, 2.8442280292510986, 1.234446406364441, -141.56602478027344],
    [0.008282060734927654, -0.931265115737915, 3.7928738594055176, -9.481704711914062],
    [0.0, 0.0, 0.0, 1.0]
],
  "dcmmeta_reorient_transform": [
    [0.0, -1.0, 0.0, 79.0],
    [1.0, 0.0, 0.0, 0.0],
    [0.0, 0.0, 1.0, 0.0],
    [0.0, 0.0, 0.0, 1.0]
],
  "dcmmeta_shape": [80, 80, 30, 200],
  "dcmmeta_slice_dim": 2,
  "dcmmeta_version": 0.6,
  "global": {
    "const": {
      "AccessionNumber": "qa",
      "AcquisitionMatrix": [80, 0, 0, 80],
      "AngioFlag": "N",
      "BitsAllocated": 16,
      "BitsStored": 12,
      "BodyPartExamined": "BRAIN",
      "Columns": 480,
      "EchoNumbers": 1,
      "EchoTime": 30.0,
      "EchoTrainLength": 80,
      "FlipAngle": 10.0,
      "HighBit": 11,
      "ImageOrientationPatient": [0.99727609817715, -0.0737072765171, 0.00276068705214, 0.0692116490238, 0.94807600762051, 0.31042169932814],
      "ImagePositionPatient": [-766.0359580054, -607.74922746807, -270.96107908857],
      "ImageType": [
        "ORIGINAL",
        "PRIMARY",
        "M",
        "ND",
        "NORM",
        "MOSAIC"
],
      "ImagedNucleus": "1H",
      "ImagingFrequency": 123.252355,
      "InPlanePhaseEncodingDirection": "COL",
      "MRAcquisitionType": "2D",
      "MagneticFieldStrength": 3.0,
      "Manufacturer": "SIEMENS",
      "ManufacturerModelName": "Prisma",
      "Modality": "MR",
      "NumberOfAverages": 1.0,
      "NumberOfPhaseEncodingSteps": 80,
      "PercentPhaseFieldOfView": 100.0,
      "PercentSampling": 100.0,
      "PerformedProcedureStepStartTime": "103525.655000",
      "PhotometricInterpretation": "MONOCHROME2",
      "PixelBandwidth": 2315.0,
      "PixelRepresentation": 0,
      "PixelSpacing": [3.0, 3.0],
      "ProtocolName": "func-bold_fa-10",
      "RepetitionTime": 2000.0,
      "Rows": 480,
      "SAR": 0.01167234808188,
      "SamplesPerPixel": 1,
      "ScanOptions": "FS",
      "ScanningSequence": "EP",
      "SequenceName": "*epfid2d1_80",
      "SequenceVariant": "SK",
      "SeriesDescription": "func-bold_fa-10",
      "SeriesNumber": 10,
      "SeriesTime": "110037.226000",
      "SliceLocation": -50.013555733432,
      "SliceThickness": 3.5,
      "SmallestImagePixelValue": 0,
      "SoftwareVersions": "syngo MR E11",
      "SpacingBetweenSlices": 3.9900000674213,
      "SpecificCharacterSet": "ISO_IR 100",
      "StudyID": "44",
      "StudyTime": "103525.605000",
      "TransmitCoilName": "Body",
      "VariableFlipAngleFlag": "N",
      "WindowCenterWidthExplanation": "Algo1",
      "dBdt": 0.0},
    "slices": {}
  },
  "time": {
    "samples": {
      "AcquisitionNumber": [1, 2, 3, 4, 5, 6, 7, 8, 9, 10, 11, 12, 13, 14, 15, 16, 17, 18, 19, 20, 21, 22, 23, 24, 25, 26, 27, 28, 29, 30, 31, 32, 33, 34, 35, 36, 37, 38, 39, 40, 41, 42, 43, 44, 45, 46, 47, 48, 49, 50, 51, 52, 53, 54, 55, 56, 57, 58, 59, 60, 61, 62, 63, 64, 65, 66, 67, 68, 69, 70, 71, 72, 73, 74, 75, 76, 77, 78, 79, 80, 81, 82, 83, 84, 85, 86, 87, 88, 89, 90, 91, 92, 93, 94, 95, 96, 97, 98, 99, 100, 101, 102, 103, 104, 105, 106, 107, 108, 109, 110, 111, 112, 113, 114, 115, 116, 117, 118, 119, 120, 121, 122, 123, 124, 125, 126, 127, 128, 129, 130, 131, 132, 133, 134, 135, 136, 137, 138, 139, 140, 141, 142, 143, 144, 145, 146, 147, 148, 149, 150, 151, 152, 153, 154, 155, 156, 157, 158, 159, 160, 161, 162, 163, 164, 165, 166, 167, 168, 169, 170, 171, 172, 173, 174, 175, 176, 177, 178, 179, 180, 181, 182, 183, 184, 185, 186, 187, 188, 189, 190, 191, 192, 193, 194, 195, 196, 197, 198, 199, 200],
      "AcquisitionTime": ["105949.590000", "105951.590000", "105953.590000", "105955.590000", "105957.590000", "105959.590000", "110001.590000", "110003.590000", "110005.590000", "110007.590000", "110009.590000", "110011.590000", "110013.590000", "110015.590000", "110017.590000", "110019.590000", "110021.590000", "110023.590000", "110025.590000", "110027.590000", "110029.590000", "110031.590000", "110033.590000", "110035.590000", "110037.590000", "110039.590000", "110041.590000", "110043.590000", "110045.590000", "110047.590000", "110049.590000", "110051.590000", "110053.590000", "110055.590000", "110057.590000", "110059.590000", "110101.590000", "110103.590000", "110105.590000", "110107.590000", "110109.590000", "110111.590000", "110113.590000", "110115.590000", "110117.590000", "110119.590000", "110121.590000", "110123.590000", "110125.590000", "110127.590000", "110129.590000", "110131.590000", "110133.590000", "110135.590000", "110137.590000", "110139.590000", "110141.590000", "110143.590000", "110145.590000", "110147.590000", "110149.590000", "110151.590000", "110153.590000", "110155.590000", "110157.590000", "110159.590000", "110201.590000", "110203.590000", "110205.590000", "110207.590000", "110209.590000", "110211.590000", "110213.590000", "110215.590000", "110217.590000", "110219.590000", "110221.590000", "110223.590000", "110225.590000", "110227.590000", "110229.590000", "110231.590000", "110233.590000", "110235.590000", "110237.590000", "110239.590000", "110241.590000", "110243.590000", "110245.590000", "110247.590000", "110249.590000", "110251.590000", "110253.590000", "110255.590000", "110257.590000", "110259.590000", "110301.590000", "110303.590000", "110305.590000", "110307.590000", "110309.590000", "110311.590000", "110313.590000", "110315.590000", "110317.590000", "110319.590000", "110321.590000", "110323.590000", "110325.590000", "110327.590000", "110329.590000", "110331.590000", "110333.590000", "110335.590000", "110337.590000", "110339.590000", "110341.590000", "110343.590000", "110345.590000", "110347.590000", "110349.590000", "110351.590000", "110353.590000", "110355.590000", "110357.590000", "110359.590000", "110401.590000", "110403.590000", "110405.590000", "110407.590000", "110409.590000", "110411.590000", "110413.590000", "110415.590000", "110417.590000", "110419.590000", "110421.590000", "110423.590000", "110425.590000", "110427.590000", "110429.590000", "110431.590000", "110433.590000", "110435.590000", "110437.590000", "110439.590000", "110441.590000", "110443.590000", "110445.590000", "110447.590000", "110449.590000", "110451.590000", "110453.590000", "110455.590000", "110457.590000", "110459.590000", "110501.590000", "110503.590000", "110505.590000", "110507.590000", "110509.590000", "110511.590000", "110513.590000", "110515.590000", "110517.590000", "110519.590000", "110521.590000", "110523.590000", "110525.590000", "110527.590000", "110529.590000", "110531.590000", "110533.590000", "110535.590000", "110537.590000", "110539.590000", "110541.590000", "110543.590000", "110545.590000", "110547.590000", "110549.590000", "110551.590000", "110553.590000", "110555.590000", "110557.590000", "110559.590000", "110601.590000", "110603.590000", "110605.590000", "110607.590000", "110609.590000", "110611.590000", "110613.590000", "110615.590000", "110617.590000", "110619.590000", "110621.590000", "110623.590000", "110625.590000", "110627.590000"],
      "ContentTime": ["110037.229000", "110037.233000", "110037.235000", "110037.238000", "110037.241000", "110037.243000", "110037.250000", "110037.252000", "110037.255000", "110037.258000", "110037.260000", "110037.263000", "110037.265000", "110037.268000", "110037.271000", "110037.273000", "110037.276000", "110037.278000", "110037.281000", "110037.283000", "110037.286000", "110037.289000", "110037.291000", "110117.225000", "110117.227000", "110117.230000", "110117.233000", "110117.235000", "110117.238000", "110117.240000", "110117.243000", "110117.246000", "110117.248000", "110117.251000", "110117.253000", "110117.256000", "110117.258000", "110117.261000", "110117.264000", "110117.267000", "110117.270000", "110117.272000", "110117.275000", "110157.224000", "110157.227000", "110157.240000", "110157.242000", "110157.245000", "110157.247000", "110157.250000", "110157.253000", "110157.255000", "110157.258000", "110157.260000", "110157.263000", "110157.265000", "110157.268000", "110157.271000", "110157.273000", "110157.276000", "110157.278000", "110157.281000", "110157.283000", "110237.223000", "110237.227000", "110237.229000", "110237.232000", "110237.234000", "110237.237000", "110237.240000", "110237.242000", "110237.245000", "110237.247000", "110237.250000", "110237.252000", "110237.255000", "110237.257000", "110237.260000", "110237.263000", "110237.265000", "110237.268000", "110237.270000", "110237.273000", "110317.225000", "110317.228000", "110317.230000", "110317.233000", "110317.235000", "110317.238000", "110317.240000", "110317.243000", "110317.246000", "110317.248000", "110317.251000", "110317.253000", "110317.256000", "110317.259000", "110317.261000", "110317.264000", "110317.266000", "110317.269000", "110317.272000", "110317.274000", "110337.225000", "110337.233000", "110337.236000", "110337.238000", "110337.241000", "110337.243000", "110337.246000", "110337.248000", "110337.251000", "110337.254000", "110417.224000", "110417.227000", "110417.230000", "110417.232000", "110417.235000", "110417.238000", "110417.240000", "110417.243000", "110417.245000", "110417.248000", "110417.251000", "110417.253000", "110417.256000", "110417.258000", "110417.261000", "110417.263000", "110417.266000", "110417.269000", "110417.271000", "110417.274000", "110457.224000", "110457.227000", "110457.229000", "110457.232000", "110457.234000", "110457.237000", "110457.239000", "110457.242000", "110457.245000", "110457.247000", "110457.250000", "110457.252000", "110457.255000", "110457.258000", "110457.260000", "110457.263000", "110457.265000", "110457.268000", "110457.271000", "110457.273000", "110537.224000", "110537.227000", "110537.230000", "110537.233000", "110537.235000", "110537.238000", "110537.240000", "110537.243000", "110537.245000", "110537.248000", "110537.251000", "110537.253000", "110537.256000", "110537.258000", "110537.261000", "110537.264000", "110537.266000", "110537.269000", "110537.271000", "110537.274000", "110617.224000", "110617.227000", "110617.230000", "110617.232000", "110617.235000", "110617.238000", "110617.240000", "110617.243000", "110617.246000", "110617.248000", "110617.251000", "110617.253000", "110617.256000", "110617.259000", "110617.261000", "110617.264000", "110617.266000", "110617.269000", "110617.271000", "110617.274000", "110629.492000", "110629.495000", "110629.497000", "110629.500000", "110629.502000", "110629.505000", "110629.508000"],
      "InstanceCreationTime": ["110037.229000", "110037.233000", "110037.235000", "110037.238000", "110037.241000", "110037.243000", "110037.250000", "110037.252000", "110037.255000", "110037.258000", "110037.260000", "110037.263000", "110037.265000", "110037.268000", "110037.271000", "110037.273000", "110037.276000", "110037.278000", "110037.281000", "110037.283000", "110037.286000", "110037.289000", "110037.291000", "110117.225000", "110117.227000", "110117.230000", "110117.233000", "110117.235000", "110117.238000", "110117.240000", "110117.243000", "110117.246000", "110117.248000", "110117.251000", "110117.253000", "110117.256000", "110117.258000", "110117.261000", "110117.264000", "110117.267000", "110117.270000", "110117.272000", "110117.275000", "110157.224000", "110157.227000", "110157.240000", "110157.242000", "110157.245000", "110157.247000", "110157.250000", "110157.253000", "110157.255000", "110157.258000", "110157.260000", "110157.263000", "110157.265000", "110157.268000", "110157.271000", "110157.273000", "110157.276000", "110157.278000", "110157.281000", "110157.283000", "110237.223000", "110237.227000", "110237.229000", "110237.232000", "110237.234000", "110237.237000", "110237.240000", "110237.242000", "110237.245000", "110237.247000", "110237.250000", "110237.252000", "110237.255000", "110237.257000", "110237.260000", "110237.263000", "110237.265000", "110237.268000", "110237.270000", "110237.273000", "110317.225000", "110317.228000", "110317.230000", "110317.233000", "110317.235000", "110317.238000", "110317.240000", "110317.243000", "110317.246000", "110317.248000", "110317.251000", "110317.253000", "110317.256000", "110317.259000", "110317.261000", "110317.264000", "110317.266000", "110317.269000", "110317.272000", "110317.274000", "110337.225000", "110337.233000", "110337.236000", "110337.238000", "110337.241000", "110337.243000", "110337.246000", "110337.248000", "110337.251000", "110337.254000", "110417.224000", "110417.227000", "110417.230000", "110417.232000", "110417.235000", "110417.238000", "110417.240000", "110417.243000", "110417.245000", "110417.248000", "110417.251000", "110417.253000", "110417.256000", "110417.258000", "110417.261000", "110417.263000", "110417.266000", "110417.269000", "110417.271000", "110417.274000", "110457.224000", "110457.227000", "110457.229000", "110457.232000", "110457.234000", "110457.237000", "110457.239000", "110457.242000", "110457.245000", "110457.247000", "110457.250000", "110457.252000", "110457.255000", "110457.258000", "110457.260000", "110457.263000", "110457.265000", "110457.268000", "110457.271000", "110457.273000", "110537.224000", "110537.227000", "110537.230000", "110537.233000", "110537.235000", "110537.238000", "110537.240000", "110537.243000", "110537.245000", "110537.248000", "110537.251000", "110537.253000", "110537.256000", "110537.258000", "110537.261000", "110537.264000", "110537.266000", "110537.269000", "110537.271000", "110537.274000", "110617.224000", "110617.227000", "110617.230000", "110617.232000", "110617.235000", "110617.238000", "110617.240000", "110617.243000", "110617.246000", "110617.248000", "110617.251000", "110617.253000", "110617.256000", "110617.259000", "110617.261000", "110617.264000", "110617.266000", "110617.269000", "110617.271000", "110617.274000", "110629.492000", "110629.495000", "110629.497000", "110629.500000", "110629.502000", "110629.505000", "110629.508000"],
      "InstanceNumber": [1, 2, 3, 4, 5, 6, 7, 8, 9, 10, 11, 12, 13, 14, 15, 16, 17, 18, 19, 20, 21, 22, 23, 24, 25, 26, 27, 28, 29, 30, 31, 32, 33, 34, 35, 36, 37, 38, 39, 40, 41, 42, 43, 44, 45, 46, 47, 48, 49, 50, 51, 52, 53, 54, 55, 56, 57, 58, 59, 60, 61, 62, 63, 64, 65, 66, 67, 68, 69, 70, 71, 72, 73, 74, 75, 76, 77, 78, 79, 80, 81, 82, 83, 84, 85, 86, 87, 88, 89, 90, 91, 92, 93, 94, 95, 96, 97, 98, 99, 100, 101, 102, 103, 104, 105, 106, 107, 108, 109, 110, 111, 112, 113, 114, 115, 116, 117, 118, 119, 120, 121, 122, 123, 124, 125, 126, 127, 128, 129, 130, 131, 132, 133, 134, 135, 136, 137, 138, 139, 140, 141, 142, 143, 144, 145, 146, 147, 148, 149, 150, 151, 152, 153, 154, 155, 156, 157, 158, 159, 160, 161, 162, 163, 164, 165, 166, 167, 168, 169, 170, 171, 172, 173, 174, 175, 176, 177, 178, 179, 180, 181, 182, 183, 184, 185, 186, 187, 188, 189, 190, 191, 192, 193, 194, 195, 196, 197, 198, 199, 200],
      "LargestImagePixelValue": [406, 407, 406, 406, 406, 407, 406, 406, 406, 406, 406, 408, 405, 406, 406, 406, 406, 405, 405, 406, 406, 407, 405, 406, 407, 405, 406, 406, 408, 405, 405, 405, 405, 404, 406, 404, 406, 405, 404, 406, 406, 405, 405, 405, 406, 405, 405, 405, 403, 405, 405, 405, 403, 403, 405, 406, 405, 406, 406, 408, 405, 406, 405, 405, 404, 405, 405, 405, 404, 406, 404, 406, 405, 406, 406, 405, 404, 405, 404, 404, 405, 406, 405, 404, 407, 406, 404, 404, 404, 406, 405, 406, 404, 405, 406, 405, 406, 406, 404, 405, 404, 406, 404, 405, 404, 403, 406, 404, 405, 404, 406, 405, 406, 405, 404, 405, 405, 404, 405, 405, 404, 405, 404, 405, 405, 405, 406, 405, 404, 406, 405, 406, 404, 406, 404, 404, 403, 405, 404, 405, 405, 403, 403, 406, 405, 406, 405, 405, 403, 403, 404, 405, 404, 406, 405, 405, 406, 406, 404, 406, 404, 406, 404, 405, 403, 404, 404, 405, 404, 404, 405, 404, 404, 405, 406, 403, 406, 405, 404, 405, 404, 404, 403, 405, 404, 404, 405, 405, 405, 402, 404, 404, 404, 404, 403, 404, 405, 406, 406, 404],
      "WindowCenter": [319.0, 319.0, 319.0, 319.0, 319.0, 319.0, 319.0, 319.0, 319.0, 319.0, 319.0, 319.0, 318.0, 319.0, 319.0, 318.0, 318.0, 318.0, 319.0, 318.0, 318.0, 318.0, 318.0, 318.0, 318.0, 318.0, 318.0, 318.0, 318.0, 318.0, 318.0, 318.0, 318.0, 318.0, 318.0, 318.0, 318.0, 318.0, 318.0, 318.0, 318.0, 318.0, 318.0, 318.0, 318.0, 318.0, 318.0, 318.0, 318.0, 318.0, 318.0, 318.0, 318.0, 318.0, 318.0, 318.0, 318.0, 318.0, 318.0, 318.0, 318.0, 318.0, 318.0, 318.0, 318.0, 318.0, 318.0, 318.0, 318.0, 318.0, 318.0, 318.0, 318.0, 318.0, 318.0, 318.0, 318.0, 318.0, 318.0, 318.0, 318.0, 318.0, 318.0, 318.0, 318.0, 318.0, 318.0, 318.0, 318.0, 318.0, 318.0, 318.0, 318.0, 318.0, 318.0, 318.0, 318.0, 318.0, 318.0, 318.0, 318.0, 318.0, 318.0, 318.0, 318.0, 318.0, 318.0, 318.0, 318.0, 318.0, 318.0, 318.0, 318.0, 318.0, 318.0, 318.0, 318.0, 318.0, 318.0, 318.0, 318.0, 318.0, 318.0, 318.0, 318.0, 318.0, 318.0, 318.0, 318.0, 318.0, 318.0, 318.0, 318.0, 318.0, 318.0, 318.0, 318.0, 318.0, 318.0, 318.0, 318.0, 318.0, 318.0, 318.0, 317.0, 317.0, 317.0, 318.0, 318.0, 317.0, 318.0, 317.0, 318.0, 317.0, 318.0, 318.0, 318.0, 317.0, 317.0, 318.0, 318.0, 317.0, 318.0, 317.0, 318.0, 318.0, 318.0, 318.0, 317.0, 318.0, 317.0, 317.0, 317.0, 317.0, 318.0, 318.0, 317.0, 317.0, 317.0, 318.0, 318.0, 318.0, 317.0, 317.0, 318.0, 317.0, 317.0, 318.0, 317.0, 317.0, 317.0, 317.0, 317.0, 317.0, 317.0, 317.0, 317.0, 317.0, 317.0, 318.0],
      "WindowWidth": [687.0, 687.0, 687.0, 687.0, 687.0, 687.0, 686.0, 687.0, 686.0, 687.0, 686.0, 686.0, 686.0, 687.0, 687.0, 686.0, 685.0, 686.0, 686.0, 685.0, 685.0, 686.0, 685.0, 685.0, 685.0, 685.0, 685.0, 685.0, 685.0, 685.0, 685.0, 685.0, 685.0, 685.0, 685.0, 685.0, 685.0, 685.0, 685.0, 685.0, 685.0, 685.0, 685.0, 685.0, 685.0, 685.0, 685.0, 685.0, 685.0, 685.0, 685.0, 685.0, 685.0, 685.0, 685.0, 685.0, 685.0, 685.0, 685.0, 685.0, 685.0, 685.0, 685.0, 685.0, 685.0, 685.0, 685.0, 685.0, 685.0, 685.0, 685.0, 685.0, 685.0, 685.0, 685.0, 685.0, 685.0, 685.0, 685.0, 685.0, 685.0, 685.0, 685.0, 685.0, 685.0, 685.0, 685.0, 685.0, 684.0, 685.0, 685.0, 685.0, 685.0, 685.0, 684.0, 685.0, 685.0, 685.0, 685.0, 685.0, 685.0, 685.0, 685.0, 685.0, 685.0, 685.0, 685.0, 685.0, 685.0, 685.0, 685.0, 685.0, 685.0, 685.0, 685.0, 685.0, 685.0, 684.0, 685.0, 685.0, 685.0, 685.0, 685.0, 685.0, 685.0, 685.0, 685.0, 685.0, 685.0, 685.0, 685.0, 685.0, 685.0, 685.0, 685.0, 685.0, 685.0, 685.0, 685.0, 685.0, 685.0, 685.0, 685.0, 685.0, 684.0, 684.0, 684.0, 685.0, 684.0, 684.0, 685.0, 684.0, 685.0, 684.0, 685.0, 685.0, 684.0, 684.0, 684.0, 685.0, 685.0, 684.0, 684.0, 684.0, 685.0, 685.0, 685.0, 685.0, 684.0, 685.0, 683.0, 683.0, 684.0, 684.0, 685.0, 684.0, 684.0, 684.0, 684.0, 684.0, 685.0, 684.0, 684.0, 684.0, 684.0, 684.0, 684.0, 684.0, 684.0, 684.0, 684.0, 684.0, 684.0, 684.0, 683.0, 684.0, 684.0, 684.0, 684.0, 684.0]
    },
    "slices": {}
  }
}