{
  "AcquisitionMatrixPE": 122,
  "AcquisitionNumber": 1,
  "AcquisitionTime": "10:03:32.452500",
  "BandwidthPerPixelPhaseEncode": 27.785,
  "BaseResolution": 122,
  "BodyPartExamined": "BRAIN",
  "CoilCombinationMethod": "Adaptive Combine",
  "ConsistencyInfo": "N4_VE11C_LATEST_20160120",
  "ConversionSoftware": "dcm2niix",
  "ConversionSoftwareVersion": "v1.0.20220720",
  "DerivedVendorReportedEchoSpacing": 0.000590011,
  "DeviceSerialNumber": "66112",
  "DiffusionScheme": "Monopolar",
  "DwellTime": 2e-06,
  "EchoTime": 0.068,
  "EchoTrainLength": 61,
  "EffectiveEchoSpacing": 0.000295005,
  "FlipAngle": 90,
  "HeudiconvVersion": "0.13.1",
  "ImageOrientationPatientDICOM": [0.986042, -0.166495, 0.000147503, 0.158821, 0.940861, 0.29926],
  "ImageOrientationText": "Tra>Cor(17.2)>Sag(2.9)",
  "ImageType": [
    "ORIGINAL",
    "PRIMARY",
    "DIFFUSION",
    "NONE",
    "ND",
    "NORM"
],
  "ImagingFrequency": 123.253,
  "InPlanePhaseEncodingDirectionDICOM": "COL",
  "InstitutionAddress": "Maynard 3,Hanover,NH,US,03755",
  "InstitutionName": "Dartmouth College - PBS",
  "InstitutionalDepartmentName": "Department",
  "MRAcquisitionType": "2D",
  "MagneticFieldStrength": 3,
  "Manufacturer": "Siemens",
  "ManufacturersModelName": "Prisma",
  "Modality": "MR",
  "MultibandAccelerationFactor": 4,
  "NonlinearGradientCorrection": false,
  "ParallelReductionFactorInPlane": 2,
  "PartialFourier": 1,
  "PatientPosition": "HFS",
  "PercentPhaseFOV": 100,
  "PercentSampling": 100,
  "PhaseEncodingDirection": "j-",
  "PhaseEncodingSteps": 122,
  "PhaseResolution": 1,
  "PixelBandwidth": 2050,
  "ProcedureStepDescription": "dbic^QA",
  "ProtocolName": "DTI_30_p2_s4",
  "PulseSequenceDetails": "%SiemensSeq%\\ep2d_diff",
  "ReceiveCoilActiveElements": "HEA;HEP",
  "ReceiveCoilName": "Head_32",
  "ReconMatrixPE": 122,
  "RefLinesPE": 38,
  "RepetitionTime": 3.6,
  "SAR": 0.163609,
  "ScanOptions": "FS",
  "ScanningSequence": "EP",
  "SequenceName": "*ep_b0",
  "SequenceVariant": "SK\\SP",
  "SeriesDescription": "DTI_30_p2_s4",
  "SeriesNumber": 9,
  "ShimSetting": [4148, -7684, -7509, 290, -91, -131, -43, 94],
  "SliceThickness": 2,
  "SliceTiming": [2.58594, 0, 1.78906, 0.19531, 1.98438, 0.39844, 2.1875, 0.59375, 2.38281, 0.99219, 2.78906, 1.19531, 2.98438, 1.39062, 3.17969, 1.59375, 3.38281, 0.79688, 2.58594, 0, 1.78906, 0.19531, 1.98438, 0.39844, 2.1875, 0.59375, 2.38281, 0.99219, 2.78906, 1.19531, 2.98438, 1.39062, 3.17969, 1.59375, 3.38281, 0.79688, 2.58594, 0, 1.78906, 0.19531, 1.98438, 0.39844, 2.1875, 0.59375, 2.38281, 0.99219, 2.78906, 1.19531, 2.98438, 1.39062, 3.17969, 1.59375, 3.38281, 0.79688, 2.58594, 0, 1.78906, 0.19531, 1.98438, 0.39844, 2.1875, 0.59375, 2.38281, 0.99219, 2.78906, 1.19531, 2.98438, 1.39062, 3.17969, 1.59375, 3.38281, 0.79688],
  "SoftwareVersions": "syngo MR E11",
  "SpacingBetweenSlices": 2,
  "SpoilingState": true,
  "StationName": "AWP66112",
  "TotalReadoutTime": 0.0356956,
  "TxRefAmp": 233.132,
  "dcmmeta_affine": [
    [-1.9397554397583008, 0.31243500113487244, 0.09992790222167969, 88.97872924804688],
    [0.32753080129623413, 1.8508741855621338, 0.590118408203125, -141.08680725097656],
    [0.00029017063206993043, -0.5887075662612915, 1.9083442687988281, -45.230377197265625],
    [0.0, 0.0, 0.0, 1.0]
],
  "dcmmeta_reorient_transform": [
    [0.0, -1.0, 0.0, 121.0],
    [1.0, 0.0, 0.0, 0.0],
    [0.0, 0.0, -1.0, 71.0],
    [0.0, 0.0, 0.0, 1.0]
],
  "dcmmeta_shape": [122, 122, 72, 31],
  "dcmmeta_slice_dim": 2,
  "dcmmeta_version": 0.6,
  "global": {
    "const": {
      "AccessionNumber": "qa",
      "AcquisitionMatrix": [122, 0, 0, 122],
      "AngioFlag": "N",
      "BitsAllocated": 16,
      "BitsStored": 12,
      "BodyPartExamined": "BRAIN",
      "Columns": 122,
      "EchoNumbers": 1,
      "EchoTime": 68.0,
      "EchoTrainLength": 61,
      "FlipAngle": 90.0,
      "HighBit": 11,
      "ImageOrientationPatient": [0.98604231878448, -0.1664948161622, 0.00014750340141, 0.15882111938557, 0.94086104456694, 0.29925966459503],
      "ImageType": [
        "ORIGINAL",
        "PRIMARY",
        "DIFFUSION",
        "NONE",
        "ND",
        "NORM"
],
      "ImagedNucleus": "1H",
      "ImagingFrequency": 123.252577,
      "InPlanePhaseEncodingDirection": "COL",
      "MRAcquisitionType": "2D",
      "MagneticFieldStrength": 3.0,
      "Manufacturer": "SIEMENS",
      "ManufacturerModelName": "Prisma",
      "Modality": "MR",
      "NumberOfAverages": 1.0,
      "NumberOfPhaseEncodingSteps": 122,
      "PercentPhaseFieldOfView": 100.0,
      "PercentSampling": 100.0,
      "PerformedProcedureStepStartTime": "092553.848000",
      "PhotometricInterpretation": "MONOCHROME2",
      "PixelBandwidth": 2050.0,
      "PixelRepresentation": 0,
      "PixelSpacing": [1.9672131538391, 1.9672131538391],
      "ProtocolName": "DTI_30_p2_s4",
      "RepetitionTime": 3600.0,
      "Rows": 122,
      "SAR": 0.16360930425796,
      "SamplesPerPixel": 1,
      "ScanOptions": "FS",
      "ScanningSequence": "EP",
      "SequenceVariant": [
        "SK",
        "SP"
],
      "SeriesDescription": "DTI_30_p2_s4",
      "SeriesNumber": 9,
      "SeriesTime": "100341.636000",
      "SliceThickness": 2.0,
      "SmallestImagePixelValue": 0,
      "SoftwareVersions": "syngo MR E11",
      "SpacingBetweenSlices": 2.0,
      "SpecificCharacterSet": "ISO_IR 100",
      "StudyID": "12",
      "StudyTime": "092553.793000",
      "TransmitCoilName": "Body",
      "VariableFlipAngleFlag": "N",
      "WindowCenterWidthExplanation": "Algo1",
      "dBdt": 0.0},
    "slices": {
      "AcquisitionTime": ["100332.452500", "100329.867500", "100331.657500", "100330.065000", "100331.855000", "100330.265000", "100332.055000", "100330.462500", "100332.252500", "100330.862500", "100332.652500", "100331.060000", "100332.850000", "100331.260000", "100333.050000", "100331.457500", "100333.247500", "100330.662500", "100332.452500", "100329.867500", "100331.657500", "100330.065000", "100331.855000", "100330.265000", "100332.055000", "100330.462500", "100332.252500", "100330.862500", "100332.652500", "100331.060000", "100332.850000", "100331.260000", "100333.050000", "100331.457500", "100333.247500", "100330.662500", "100332.452500", "100329.867500", "100331.657500", "100330.065000", "100331.855000", "100330.265000", "100332.055000", "100330.462500", "100332.252500", "100330.862500", "100332.652500", "100331.060000", "100332.850000", "100331.260000", "100333.050000", "100331.457500", "100333.247500", "100330.662500", "100332.452500", "100329.867500", "100331.657500", "100330.065000", "100331.855000", "100330.265000", "100332.055000", "100330.462500", "100332.252500", "100330.862500", "100332.652500", "100331.060000", "100332.850000", "100331.260000", "100333.050000", "100331.457500", "100333.247500", "100330.662500", "100336.052500", "100333.467500", "100335.257500", "100333.665000", "100335.455000", "100333.865000", "100335.655000", "100334.062500", "100335.852500", "100334.462500", "100336.252500", "100334.660000", "100336.450000", "100334.860000", "100336.650000", "100335.057500", "100336.847500", "100334.262500", "100336.052500", "100333.467500", "100335.257500", "100333.665000", "100335.455000", "100333.865000", "100335.655000", "100334.062500", "100335.852500", "100334.462500", "100336.252500", "100334.660000", "100336.450000", "100334.860000", "100336.650000", "100335.057500", "100336.847500", "100334.262500", "100336.052500", "100333.467500", "100335.257500", "100333.665000", "100335.455000", "100333.865000", "100335.655000", "100334.062500", "100335.852500", "100334.462500", "100336.252500", "100334.660000", "100336.450000", "100334.860000", "100336.650000", "100335.057500", "100336.847500", "100334.262500", "100336.052500", "100333.467500", "100335.257500", "100333.665000", "100335.455000", "100333.865000", "100335.655000", "100334.062500", "100335.852500", "100334.462500", "100336.252500", "100334.660000", "100336.450000", "100334.860000", "100336.650000", "100335.057500", "100336.847500", "100334.262500", "100339.652500", "100337.067500", "100338.857500", "100337.265000", "100339.055000", "100337.465000", "100339.255000", "100337.662500", "100339.452500", "100338.062500", "100339.852500", "100338.260000", "100340.050000", "100338.460000", "100340.250000", "100338.657500", "100340.447500", "100337.862500", "100339.652500", "100337.067500", "100338.857500", "100337.265000", "100339.055000", "100337.465000", "100339.255000", "100337.662500", "100339.452500", "100338.062500", "100339.852500", "100338.260000", "100340.050000", "100338.460000", "100340.250000", "100338.657500", "100340.447500", "100337.862500", "100339.652500", "100337.067500", "100338.857500", "100337.265000", "100339.055000", "100337.465000", "100339.255000", "100337.662500", "100339.452500", "100338.062500", "100339.852500", "100338.260000", "100340.050000", "100338.460000", "100340.250000", "100338.657500", "100340.447500", "100337.862500", "100339.652500", "100337.067500", "100338.857500", "100337.265000", "100339.055000", "100337.465000", "100339.255000", "100337.662500", "100339.452500", "100338.062500", "100339.852500", "100338.260000", "100340.050000", "100338.460000", "100340.250000", "100338.657500", "100340.447500", "100337.862500", "100343.252500", "100340.667500", "100342.457500", "100340.865000", "100342.655000", "100341.065000", "100342.855000", "100341.262500", "100343.052500", "100341.662500", "100343.452500", "100341.860000", "100343.650000", "100342.060000", "100343.850000", "100342.257500", "100344.047500", "100341.462500", "100343.252500", "100340.667500", "100342.457500", "100340.865000", "100342.655000", "100341.065000", "100342.855000", "100341.262500", "100343.052500", "100341.662500", "100343.452500", "100341.860000", "100343.650000", "100342.060000", "100343.850000", "100342.257500", "100344.047500", "100341.462500", "100343.252500", "100340.667500", "100342.457500", "100340.865000", "100342.655000", "100341.065000", "100342.855000", "100341.262500", "100343.052500", "100341.662500", "100343.452500", "100341.860000", "100343.650000", "100342.060000", "100343.850000", "100342.257500", "100344.047500", "100341.462500", "100343.252500", "100340.667500", "100342.457500", "100340.865000", "100342.655000", "100341.065000", "100342.855000", "100341.262500", "100343.052500", "100341.662500", "100343.452500", "100341.860000", "100343.650000", "100342.060000", "100343.850000", "100342.257500", "100344.047500", "100341.462500", "100346.852500", "100344.267500", "100346.057500", "100344.465000", "100346.255000", "100344.665000", "100346.455000", "100344.862500", "100346.652500", "100345.262500", "100347.052500", "100345.460000", "100347.250000", "100345.660000", "100347.450000", "100345.857500", "100347.647500", "100345.062500", "100346.852500", "100344.267500", "100346.057500", "100344.465000", "100346.255000", "100344.665000", "100346.455000", "100344.862500", "100346.652500", "100345.262500", "100347.052500", "100345.460000", "100347.250000", "100345.660000", "100347.450000", "100345.857500", "100347.647500", "100345.062500", "100346.852500", "100344.267500", "100346.057500", "100344.465000", "100346.255000", "100344.665000", "100346.455000", "100344.862500", "100346.652500", "100345.262500", "100347.052500", "100345.460000", "100347.250000", "100345.660000", "100347.450000", "100345.857500", "100347.647500", "100345.062500", "100346.852500", "100344.267500", "100346.057500", "100344.465000", "100346.255000", "100344.665000", "100346.455000", "100344.862500", "100346.652500", "100345.262500", "100347.052500", "100345.460000", "100347.250000", "100345.660000", "100347.450000", "100345.857500", "100347.647500", "100345.062500", "100350.452500", "100347.867500", "100349.657500", "100348.065000", "100349.855000", "100348.265000", "100350.055000", "100348.462500", "100350.252500", "100348.862500", "100350.652500", "100349.060000", "100350.850000", "100349.260000", "100351.050000", "100349.457500", "100351.247500", "100348.662500", "100350.452500", "100347.867500", "100349.657500", "100348.065000", "100349.855000", "100348.265000", "100350.055000", "100348.462500", "100350.252500", "100348.862500", "100350.652500", "100349.060000", "100350.850000", "100349.260000", "100351.050000", "100349.457500", "100351.247500", "100348.662500", "100350.452500", "100347.867500", "100349.657500", "100348.065000", "100349.855000", "100348.265000", "100350.055000", "100348.462500", "100350.252500", "100348.862500", "100350.652500", "100349.060000", "100350.850000", "100349.260000", "100351.050000", "100349.457500", "100351.247500", "100348.662500", "100350.452500", "100347.867500", "100349.657500", "100348.065000", "100349.855000", "100348.265000", "100350.055000", "100348.462500", "100350.252500", "100348.862500", "100350.652500", "100349.060000", "100350.850000", "100349.260000", "100351.050000", "100349.457500", "100351.247500", "100348.662500", "100354.052500", "100351.467500", "100353.257500", "100351.665000", "100353.455000", "100351.865000", "100353.655000", "100352.062500", "100353.852500", "100352.462500", "100354.252500", "100352.660000", "100354.450000", "100352.860000", "100354.650000", "100353.057500", "100354.847500", "100352.262500", "100354.052500", "100351.467500", "100353.257500", "100351.665000", "100353.455000", "100351.865000", "100353.655000", "100352.062500", "100353.852500", "100352.462500", "100354.252500", "100352.660000", "100354.450000", "100352.860000", "100354.650000", "100353.057500", "100354.847500", "100352.262500", "100354.052500", "100351.467500", "100353.257500", "100351.665000", "100353.455000", "100351.865000", "100353.655000", "100352.062500", "100353.852500", "100352.462500", "100354.252500", "100352.660000", "100354.450000", "100352.860000", "100354.650000", "100353.057500", "100354.847500", "100352.262500", "100354.052500", "100351.467500", "100353.257500", "100351.665000", "100353.455000", "100351.865000", "100353.655000", "100352.062500", "100353.852500", "100352.462500", "100354.252500", "100352.660000", "100354.450000", "100352.860000", "100354.650000", "100353.057500", "100354.847500", "100352.262500", "100357.652500", "100355.067500", "100356.857500", "100355.265000", "100357.055000", "100355.465000", "100357.255000", "100355.662500", "100357.452500", "100356.062500", "100357.852500", "100356.260000", "100358.050000", "100356.460000", "100358.250000", "100356.657500", "100358.447500", "100355.862500", "100357.652500", "100355.067500", "100356.857500", "100355.265000", "100357.055000", "100355.465000", "100357.255000", "100355.662500", "100357.452500", "100356.062500", "100357.852500", "100356.260000", "100358.050000", "100356.460000", "100358.250000", "100356.657500", "100358.447500", "100355.862500", "100357.652500", "100355.067500", "100356.857500", "100355.265000", "100357.055000", "100355.465000", "100357.255000", "100355.662500", "100357.452500", "100356.062500", "100357.852500", "100356.260000", "100358.050000", "100356.460000", "100358.250000", "100356.657500", "100358.447500", "100355.862500", "100357.652500", "100355.067500", "100356.857500", "100355.265000", "100357.055000", "100355.465000", "100357.255000", "100355.662500", "100357.452500", "100356.062500", "100357.852500", "100356.260000", "100358.050000", "100356.460000", "100358.250000", "100356.657500", "100358.447500", "100355.862500", "100401.252500", "100358.667500", "100400.457500", "100358.865000", "100400.655000", "100359.065000", "100400.855000", "100359.262500", "100401.052500", "100359.662500", "100401.452500", "100359.860000", "100401.650000", "100400.060000", "100401.850000", "100400.257500", "100402.047500", "100359.462500", "100401.252500", "100358.667500", "100400.457500", "100358.865000", "100400.655000", "100359.065000", "100400.855000", "100359.262500", "100401.052500", "100359.662500", "100401.452500", "100359.860000", "100401.650000", "100400.060000", "100401.850000", "100400.257500", "100402.047500", "100359.462500", "100401.252500", "100358.667500", "100400.457500", "100358.865000", "100400.655000", "100359.065000", "100400.855000", "100359.262500", "100401.052500", "100359.662500", "100401.452500", "100359.860000", "100401.650000", "100400.060000", "100401.850000", "100400.257500", "100402.047500", "100359.462500", "100401.252500", "100358.667500", "100400.457500", "100358.865000", "100400.655000", "100359.065000", "100400.855000", "100359.262500", "100401.052500", "100359.662500", "100401.452500", "100359.860000", "100401.650000", "100400.060000", "100401.850000", "100400.257500", "100402.047500", "100359.462500", "100404.852500", "100402.267500", "100404.057500", "100402.465000", "100404.255000", "100402.665000", "100404.455000", "100402.862500", "100404.652500", "100403.262500", "100405.052500", "100403.460000", "100405.250000", "100403.660000", "100405.450000", "100403.857500", "100405.647500", "100403.062500", "100404.852500", "100402.267500", "100404.057500", "100402.465000", "100404.255000", "100402.665000", "100404.455000", "100402.862500", "100404.652500", "100403.262500", "100405.052500", "100403.460000", "100405.250000", "100403.660000", "100405.450000", "100403.857500", "100405.647500", "100403.062500", "100404.852500", "100402.267500", "100404.057500", "100402.465000", "100404.255000", "100402.665000", "100404.455000", "100402.862500", "100404.652500", "100403.262500", "100405.052500", "100403.460000", "100405.250000", "100403.660000", "100405.450000", "100403.857500", "100405.647500", "100403.062500", "100404.852500", "100402.267500", "100404.057500", "100402.465000", "100404.255000", "100402.665000", "100404.455000", "100402.862500", "100404.652500", "100403.262500", "100405.052500", "100403.460000", "100405.250000", "100403.660000", "100405.450000", "100403.857500", "100405.647500", "100403.062500", "100408.452500", "100405.867500", "100407.657500", "100406.065000", "100407.855000", "100406.265000", "100408.055000", "100406.462500", "100408.252500", "100406.862500", "100408.652500", "100407.060000", "100408.850000", "100407.260000", "100409.050000", "100407.457500", "100409.247500", "100406.662500", "100408.452500", "100405.867500", "100407.657500", "100406.065000", "100407.855000", "100406.265000", "100408.055000", "100406.462500", "100408.252500", "100406.862500", "100408.652500", "100407.060000", "100408.850000", "100407.260000", "100409.050000", "100407.457500", "100409.247500", "100406.662500", "100408.452500", "100405.867500", "100407.657500", "100406.065000", "100407.855000", "100406.265000", "100408.055000", "100406.462500", "100408.252500", "100406.862500", "100408.652500", "100407.060000", "100408.850000", "100407.260000", "100409.050000", "100407.457500", "100409.247500", "100406.662500", "100408.452500", "100405.867500", "100407.657500", "100406.065000", "100407.855000", "100406.265000", "100408.055000", "100406.462500", "100408.252500", "100406.862500", "100408.652500", "100407.060000", "100408.850000", "100407.260000", "100409.050000", "100407.457500", "100409.247500", "100406.662500", "100412.052500", "100409.467500", "100411.257500", "100409.665000", "100411.455000", "100409.865000", "100411.655000", "100410.062500", "100411.852500", "100410.462500", "100412.252500", "100410.660000", "100412.450000", "100410.860000", "100412.650000", "100411.057500", "100412.847500", "100410.262500", "100412.052500", "100409.467500", "100411.257500", "100409.665000", "100411.455000", "100409.865000", "100411.655000", "100410.062500", "100411.852500", "100410.462500", "100412.252500", "100410.660000", "100412.450000", "100410.860000", "100412.650000", "100411.057500", "100412.847500", "100410.262500", "100412.052500", "100409.467500", "100411.257500", "100409.665000", "100411.455000", "100409.865000", "100411.655000", "100410.062500", "100411.852500", "100410.462500", "100412.252500", "100410.660000", "100412.450000", "100410.860000", "100412.650000", "100411.057500", "100412.847500", "100410.262500", "100412.052500", "100409.467500", "100411.257500", "100409.665000", "100411.455000", "100409.865000", "100411.655000", "100410.062500", "100411.852500", "100410.462500", "100412.252500", "100410.660000", "100412.450000", "100410.860000", "100412.650000", "100411.057500", "100412.847500", "100410.262500", "100415.652500", "100413.067500", "100414.857500", "100413.265000", "100415.055000", "100413.465000", "100415.255000", "100413.662500", "100415.452500", "100414.062500", "100415.852500", "100414.260000", "100416.050000", "100414.460000", "100416.250000", "100414.657500", "100416.447500", "100413.862500", "100415.652500", "100413.067500", "100414.857500", "100413.265000", "100415.055000", "100413.465000", "100415.255000", "100413.662500", "100415.452500", "100414.062500", "100415.852500", "100414.260000", "100416.050000", "100414.460000", "100416.250000", "100414.657500", "100416.447500", "100413.862500", "100415.652500", "100413.067500", "100414.857500", "100413.265000", "100415.055000", "100413.465000", "100415.255000", "100413.662500", "100415.452500", "100414.062500", "100415.852500", "100414.260000", "100416.050000", "100414.460000", "100416.250000", "100414.657500", "100416.447500", "100413.862500", "100415.652500", "100413.067500", "100414.857500", "100413.265000", "100415.055000", "100413.465000", "100415.255000", "100413.662500", "100415.452500", "100414.062500", "100415.852500", "100414.260000", "100416.050000", "100414.460000", "100416.250000", "100414.657500", "100416.447500", "100413.862500", "100419.252500", "100416.667500", "100418.457500", "100416.865000", "100418.655000", "100417.065000", "100418.855000", "100417.262500", "100419.052500", "100417.662500", "100419.452500", "100417.860000", "100419.650000", "100418.060000", "100419.850000", "100418.257500", "100420.047500", "100417.462500", "100419.252500", "100416.667500", "100418.457500", "100416.865000", "100418.655000", "100417.065000", "100418.855000", "100417.262500", "100419.052500", "100417.662500", "100419.452500", "100417.860000", "100419.650000", "100418.060000", "100419.850000", "100418.257500", "100420.047500", "100417.462500", "100419.252500", "100416.667500", "100418.457500", "100416.865000", "100418.655000", "100417.065000", "100418.855000", "100417.262500", "100419.052500", "100417.662500", "100419.452500", "100417.860000", "100419.650000", "100418.060000", "100419.850000", "100418.257500", "100420.047500", "100417.462500", "100419.252500", "100416.667500", "100418.457500", "100416.865000", "100418.655000", "100417.065000", "100418.855000", "100417.262500", "100419.052500", "100417.662500", "100419.452500", "100417.860000", "100419.650000", "100418.060000", "100419.850000", "100418.257500", "100420.047500", "100417.462500", "100422.852500", "100420.267500", "100422.057500", "100420.465000", "100422.255000", "100420.665000", "100422.455000", "100420.862500", "100422.652500", "100421.262500", "100423.052500", "100421.460000", "100423.250000", "100421.660000", "100423.450000", "100421.857500", "100423.647500", "100421.062500", "100422.852500", "100420.267500", "100422.057500", "100420.465000", "100422.255000", "100420.665000", "100422.455000", "100420.862500", "100422.652500", "100421.262500", "100423.052500", "100421.460000", "100423.250000", "100421.660000", "100423.450000", "100421.857500", "100423.647500", "100421.062500", "100422.852500", "100420.267500", "100422.057500", "100420.465000", "100422.255000", "100420.665000", "100422.455000", "100420.862500", "100422.652500", "100421.262500", "100423.052500", "100421.460000", "100423.250000", "100421.660000", "100423.450000", "100421.857500", "100423.647500", "100421.062500", "100422.852500", "100420.267500", "100422.057500", "100420.465000", "100422.255000", "100420.665000", "100422.455000", "100420.862500", "100422.652500", "100421.262500", "100423.052500", "100421.460000", "100423.250000", "100421.660000", "100423.450000", "100421.857500", "100423.647500", "100421.062500", "100426.452500", "100423.867500", "100425.657500", "100424.065000", "100425.855000", "100424.265000", "100426.055000", "100424.462500", "100426.252500", "100424.862500", "100426.652500", "100425.060000", "100426.850000", "100425.260000", "100427.050000", "100425.457500", "100427.247500", "100424.662500", "100426.452500", "100423.867500", "100425.657500", "100424.065000", "100425.855000", "100424.265000", "100426.055000", "100424.462500", "100426.252500", "100424.862500", "100426.652500", "100425.060000", "100426.850000", "100425.260000", "100427.050000", "100425.457500", "100427.247500", "100424.662500", "100426.452500", "100423.867500", "100425.657500", "100424.065000", "100425.855000", "100424.265000", "100426.055000", "100424.462500", "100426.252500", "100424.862500", "100426.652500", "100425.060000", "100426.850000", "100425.260000", "100427.050000", "100425.457500", "100427.247500", "100424.662500", "100426.452500", "100423.867500", "100425.657500", "100424.065000", "100425.855000", "100424.265000", "100426.055000", "100424.462500", "100426.252500", "100424.862500", "100426.652500", "100425.060000", "100426.850000", "100425.260000", "100427.050000", "100425.457500", "100427.247500", "100424.662500", "100430.052500", "100427.467500", "100429.257500", "100427.665000", "100429.455000", "100427.865000", "100429.655000", "100428.062500", "100429.852500", "100428.462500", "100430.252500", "100428.660000", "100430.450000", "100428.860000", "100430.650000", "100429.057500", "100430.847500", "100428.262500", "100430.052500", "100427.467500", "100429.257500", "100427.665000", "100429.455000", "100427.865000", "100429.655000", "100428.062500", "100429.852500", "100428.462500", "100430.252500", "100428.660000", "100430.450000", "100428.860000", "100430.650000", "100429.057500", "100430.847500", "100428.262500", "100430.052500", "100427.467500", "100429.257500", "100427.665000", "100429.455000", "100427.865000", "100429.655000", "100428.062500", "100429.852500", "100428.462500", "100430.252500", "100428.660000", "100430.450000", "100428.860000", "100430.650000", "100429.057500", "100430.847500", "100428.262500", "100430.052500", "100427.467500", "100429.257500", "100427.665000", "100429.455000", "100427.865000", "100429.655000", "100428.062500", "100429.852500", "100428.462500", "100430.252500", "100428.660000", "100430.450000", "100428.860000", "100430.650000", "100429.057500", "100430.847500", "100428.262500", "100433.652500", "100431.067500", "100432.857500", "100431.265000", "100433.055000", "100431.465000", "100433.255000", "100431.662500", "100433.452500", "100432.062500", "100433.852500", "100432.260000", "100434.050000", "100432.460000", "100434.250000", "100432.657500", "100434.447500", "100431.862500", "100433.652500", "100431.067500", "100432.857500", "100431.265000", "100433.055000", "100431.465000", "100433.255000", "100431.662500", "100433.452500", "100432.062500", "100433.852500", "100432.260000", "100434.050000", "100432.460000", "100434.250000", "100432.657500", "100434.447500", "100431.862500", "100433.652500", "100431.067500", "100432.857500", "100431.265000", "100433.055000", "100431.465000", "100433.255000", "100431.662500", "100433.452500", "100432.062500", "100433.852500", "100432.260000", "100434.050000", "100432.460000", "100434.250000", "100432.657500", "100434.447500", "100431.862500", "100433.652500", "100431.067500", "100432.857500", "100431.265000", "100433.055000", "100431.465000", "100433.255000", "100431.662500", "100433.452500", "100432.062500", "100433.852500", "100432.260000", "100434.050000", "100432.460000", "100434.250000", "100432.657500", "100434.447500", "100431.862500", "100437.252500", "100434.667500", "100436.457500", "100434.865000", "100436.655000", "100435.065000", "100436.855000", "100435.262500", "100437.052500", "100435.662500", "100437.452500", "100435.860000", "100437.650000", "100436.060000", "100437.850000", "100436.257500", "100438.047500", "100435.462500", "100437.252500", "100434.667500", "100436.457500", "100434.865000", "100436.655000", "100435.065000", "100436.855000", "100435.262500", "100437.052500", "100435.662500", "100437.452500", "100435.860000", "100437.650000", "100436.060000", "100437.850000", "100436.257500", "100438.047500", "100435.462500", "100437.252500", "100434.667500", "100436.457500", "100434.865000", "100436.655000", "100435.065000", "100436.855000", "100435.262500", "100437.052500", "100435.662500", "100437.452500", "100435.860000", "100437.650000", "100436.060000", "100437.850000", "100436.257500", "100438.047500", "100435.462500", "100437.252500", "100434.667500", "100436.457500", "100434.865000", "100436.655000", "100435.065000", "100436.855000", "100435.262500", "100437.052500", "100435.662500", "100437.452500", "100435.860000", "100437.650000", "100436.060000", "100437.850000", "100436.257500", "100438.047500", "100435.462500", "100440.852500", "100438.267500", "100440.057500", "100438.465000", "100440.255000", "100438.665000", "100440.455000", "100438.862500", "100440.652500", "100439.262500", "100441.052500", "100439.460000", "100441.250000", "100439.660000", "100441.450000", "100439.857500", "100441.647500", "100439.062500", "100440.852500", "100438.267500", "100440.057500", "100438.465000", "100440.255000", "100438.665000", "100440.455000", "100438.862500", "100440.652500", "100439.262500", "100441.052500", "100439.460000", "100441.250000", "100439.660000", "100441.450000", "100439.857500", "100441.647500", "100439.062500", "100440.852500", "100438.267500", "100440.057500", "100438.465000", "100440.255000", "100438.665000", "100440.455000", "100438.862500", "100440.652500", "100439.262500", "100441.052500", "100439.460000", "100441.250000", "100439.660000", "100441.450000", "100439.857500", "100441.647500", "100439.062500", "100440.852500", "100438.267500", "100440.057500", "100438.465000", "100440.255000", "100438.665000", "100440.455000", "100438.862500", "100440.652500", "100439.262500", "100441.052500", "100439.460000", "100441.250000",