{
  "AcquisitionMatrixPE": 122,
  "AcquisitionNumber": 1,
  "AcquisitionTime": "10:10:36.457500",
  "BandwidthPerPixelPhaseEncode": 27.785,
  "BaseResolution": 122,
  "BodyPartExamined": "BRAIN",
  "CoilCombinationMethod": "Adaptive Combine",
  "ConsistencyInfo": "N4_VE11C_LATEST_20160120",
  "ConversionSoftware": "dcm2niix",
  "ConversionSoftwareVersion": "v1.0.20220720",
  "DerivedVendorReportedEchoSpacing": 0.000590011,
  "DeviceSerialNumber": "66112",
  "DiffusionScheme": "Monopolar",
  "DwellTime": 2e-06,
  "EchoTime": 0.068,
  "EchoTrainLength": 61,
  "EffectiveEchoSpacing": 0.000295005,
  "FlipAngle": 90,
  "HeudiconvVersion": "0.13.1",
  "ImageOrientationPatientDICOM": [0.976858, 0.213625, 0.010632, -0.206569, 0.929365, 0.305957],
  "ImageOrientationText": "Tra>Cor(17.5)>Sag(-3.2)",
  "ImageType": [
    "ORIGINAL",
    "PRIMARY",
    "DIFFUSION",
    "NONE",
    "ND",
    "NORM"
],
  "ImagingFrequency": 123.252,
  "InPlanePhaseEncodingDirectionDICOM": "COL",
  "InstitutionAddress": "Maynard 3,Hanover,NH,US,03755",
  "InstitutionName": "Dartmouth College - PBS",
  "InstitutionalDepartmentName": "Department",
  "MRAcquisitionType": "2D",
  "MagneticFieldStrength": 3,
  "Manufacturer": "Siemens",
  "ManufacturersModelName": "Prisma",
  "Modality": "MR",
  "MultibandAccelerationFactor": 4,
  "NonlinearGradientCorrection": false,
  "ParallelReductionFactorInPlane": 2,
  "PartialFourier": 1,
  "PatientPosition": "HFS",
  "PercentPhaseFOV": 100,
  "PercentSampling": 100,
  "PhaseEncodingDirection": "j-",
  "PhaseEncodingSteps": 122,
  "PhaseResolution": 1,
  "PixelBandwidth": 2050,
  "ProcedureStepDescription": "dbic^QA",
  "ProtocolName": "dwi_acq-DTI-30-p2-s4",
  "PulseSequenceDetails": "%SiemensSeq%\\ep2d_diff",
  "ReceiveCoilActiveElements": "HEA;HEP",
  "ReceiveCoilName": "Head_32",
  "ReconMatrixPE": 122,
  "RefLinesPE": 38,
  "RepetitionTime": 3.6,
  "SAR": 0.160157,
  "ScanOptions": "FS",
  "ScanningSequence": "EP",
  "SequenceName": "*ep_b0",
  "SequenceVariant": "SK\\SP",
  "SeriesDescription": "dwi_acq-DTI-30-p2-s4",
  "SeriesNumber": 9,
  "ShimSetting": [4147, -7695, -7511, 283, -33, -173, -48, 46],
  "SliceThickness": 2,
  "SliceTiming": [2.59375, 0, 1.78906, 0.20312, 1.99219, 0.39844, 2.1875, 0.60156, 2.39062, 1, 2.78906, 1.19531, 2.98438, 1.39844, 3.1875, 1.59375, 3.38281, 0.79688, 2.59375, 0, 1.78906, 0.20312, 1.99219, 0.39844, 2.1875, 0.60156, 2.39062, 1, 2.78906, 1.19531, 2.98438, 1.39844, 3.1875, 1.59375, 3.38281, 0.79688, 2.59375, 0, 1.78906, 0.20312, 1.99219, 0.39844, 2.1875, 0.60156, 2.39062, 1, 2.78906, 1.19531, 2.98438, 1.39844, 3.1875, 1.59375, 3.38281, 0.79688, 2.59375, 0, 1.78906, 0.20312, 1.99219, 0.39844, 2.1875, 0.60156, 2.39062, 1, 2.78906, 1.19531, 2.98438, 1.39844, 3.1875, 1.59375, 3.38281, 0.79688],
  "SoftwareVersions": "syngo MR E11",
  "SpacingBetweenSlices": 2,
  "SpoilingState": true,
  "StationName": "AWP66112",
  "TotalReadoutTime": 0.0356956,
  "TxRefAmp": 231.722,
  "dcmmeta_affine": [
    [-1.9216878414154053, -0.4063645601272583, -0.11095786094665527, 147.41436767578125],
    [-0.4202452003955841, 1.8282593488693237, 0.6021442413330078, -97.39957427978516],
    [0.020915428176522255, -0.6018831729888916, 1.9039688110351562, -30.178979873657227],
    [0.0, 0.0, 0.0, 1.0]
],
  "dcmmeta_reorient_transform": [
    [0.0, -1.0, 0.0, 121.0],
    [1.0, 0.0, 0.0, 0.0],
    [0.0, 0.0, -1.0, 71.0],
    [0.0, 0.0, 0.0, 1.0]
],
  "dcmmeta_shape": [122, 122, 72, 31],
  "dcmmeta_slice_dim": 2,
  "dcmmeta_version": 0.6,
  "global": {
    "const": {
      "AccessionNumber": "qa",
      "AcquisitionMatrix": [122, 0, 0, 122],
      "AngioFlag": "N",
      "BitsAllocated": 16,
      "BitsStored": 12,
      "BodyPartExamined": "BRAIN",
      "Columns": 122,
      "EchoNumbers": 1,
      "EchoTime": 68.0,
      "EchoTrainLength": 61,
      "FlipAngle": 90.0,
      "HighBit": 11,
      "ImageOrientationPatient": [0.97685795908021, 0.21362464315129, 0.01063200922393, -0.2065686547667, 0.92936512902388, 0.3059572646993],
      "ImageType": [
        "ORIGINAL",
        "PRIMARY",
        "DIFFUSION",
        "NONE",
        "ND",
        "NORM"
],
      "ImagedNucleus": "1H",
      "ImagingFrequency": 123.252435,
      "InPlanePhaseEncodingDirection": "COL",
      "MRAcquisitionType": "2D",
      "MagneticFieldStrength": 3.0,
      "Manufacturer": "SIEMENS",
      "ManufacturerModelName": "Prisma",
      "Modality": "MR",
      "NumberOfAverages": 1.0,
      "NumberOfPhaseEncodingSteps": 122,
      "PercentPhaseFieldOfView": 100.0,
      "PercentSampling": 100.0,
      "PerformedProcedureStepStartTime": "094012.078000",
      "PhotometricInterpretation": "MONOCHROME2",
      "PixelBandwidth": 2050.0,
      "PixelRepresentation": 0,
      "PixelSpacing": [1.9672131538391, 1.9672131538391],
      "ProtocolName": "dwi_acq-DTI-30-p2-s4",
      "RepetitionTime": 3600.0,
      "Rows": 122,
      "SAR": 0.16015708496585,
      "SamplesPerPixel": 1,
      "ScanOptions": "FS",
      "ScanningSequence": "EP",
      "SequenceVariant": [
        "SK",
        "SP"
],
      "SeriesDescription": "dwi_acq-DTI-30-p2-s4",
      "SeriesNumber": 9,
      "SeriesTime": "101045.247000",
      "SliceThickness": 2.0,
      "SmallestImagePixelValue": 0,
      "SoftwareVersions": "syngo MR E11",
      "SpacingBetweenSlices": 2.0,
      "SpecificCharacterSet": "ISO_IR 100",
      "StudyID": "77",
      "StudyTime": "094011.953000",
      "TransmitCoilName": "Body",
      "VariableFlipAngleFlag": "N",
      "WindowCenterWidthExplanation": "Algo1",
      "dBdt": 0.0},
    "slices": {
      "AcquisitionTime": ["101036.457500", "101033.870000", "101035.660000", "101034.070000", "101035.860000", "101034.267500", "101036.057500", "101034.467500", "101036.257500", "101034.865000", "101036.655000", "101035.065000", "101036.855000", "101035.262500", "101037.052500", "101035.462500", "101037.252500", "101034.667500", "101036.457500", "101033.870000", "101035.660000", "101034.070000", "101035.860000", "101034.267500", "101036.057500", "101034.467500", "101036.257500", "101034.865000", "101036.655000", "101035.065000", "101036.855000", "101035.262500", "101037.052500", "101035.462500", "101037.252500", "101034.667500", "101036.457500", "101033.870000", "101035.660000", "101034.070000", "101035.860000", "101034.267500", "101036.057500", "101034.467500", "101036.257500", "101034.865000", "101036.655000", "101035.065000", "101036.855000", "101035.262500", "101037.052500", "101035.462500", "101037.252500", "101034.667500", "101036.457500", "101033.870000", "101035.660000", "101034.070000", "101035.860000", "101034.267500", "101036.057500", "101034.467500", "101036.257500", "101034.865000", "101036.655000", "101035.065000", "101036.855000", "101035.262500", "101037.052500", "101035.462500", "101037.252500", "101034.667500", "101040.057500", "101037.470000", "101039.260000", "101037.670000", "101039.460000", "101037.867500", "101039.657500", "101038.067500", "101039.857500", "101038.465000", "101040.255000", "101038.665000", "101040.455000", "101038.862500", "101040.652500", "101039.062500", "101040.852500", "101038.267500", "101040.057500", "101037.470000", "101039.260000", "101037.670000", "101039.460000", "101037.867500", "101039.657500", "101038.067500", "101039.857500", "101038.465000", "101040.255000", "101038.665000", "101040.455000", "101038.862500", "101040.652500", "101039.062500", "101040.852500", "101038.267500", "101040.057500", "101037.470000", "101039.260000", "101037.670000", "101039.460000", "101037.867500", "101039.657500", "101038.067500", "101039.857500", "101038.465000", "101040.255000", "101038.665000", "101040.455000", "101038.862500", "101040.652500", "101039.062500", "101040.852500", "101038.267500", "101040.057500", "101037.470000", "101039.260000", "101037.670000", "101039.460000", "101037.867500", "101039.657500", "101038.067500", "101039.857500", "101038.465000", "101040.255000", "101038.665000", "101040.455000", "101038.862500", "101040.652500", "101039.062500", "101040.852500", "101038.267500", "101043.657500", "101041.070000", "101042.860000", "101041.270000", "101043.060000", "101041.467500", "101043.257500", "101041.667500", "101043.457500", "101042.065000", "101043.855000", "101042.265000", "101044.055000", "101042.462500", "101044.252500", "101042.662500", "101044.452500", "101041.867500", "101043.657500", "101041.070000", "101042.860000", "101041.270000", "101043.060000", "101041.467500", "101043.257500", "101041.667500", "101043.457500", "101042.065000", "101043.855000", "101042.265000", "101044.055000", "101042.462500", "101044.252500", "101042.662500", "101044.452500", "101041.867500", "101043.657500", "101041.070000", "101042.860000", "101041.270000", "101043.060000", "101041.467500", "101043.257500", "101041.667500", "101043.457500", "101042.065000", "101043.855000", "101042.265000", "101044.055000", "101042.462500", "101044.252500", "101042.662500", "101044.452500", "101041.867500", "101043.657500", "101041.070000", "101042.860000", "101041.270000", "101043.060000", "101041.467500", "101043.257500", "101041.667500", "101043.457500", "101042.065000", "101043.855000", "101042.265000", "101044.055000", "101042.462500", "101044.252500", "101042.662500", "101044.452500", "101041.867500", "101047.257500", "101044.670000", "101046.460000", "101044.870000", "101046.660000", "101045.067500", "101046.857500", "101045.267500", "101047.057500", "101045.665000", "101047.455000", "101045.865000", "101047.655000", "101046.062500", "101047.852500", "101046.262500", "101048.052500", "101045.467500", "101047.257500", "101044.670000", "101046.460000", "101044.870000", "101046.660000", "101045.067500", "101046.857500", "101045.267500", "101047.057500", "101045.665000", "101047.455000", "101045.865000", "101047.655000", "101046.062500", "101047.852500", "101046.262500", "101048.052500", "101045.467500", "101047.257500", "101044.670000", "101046.460000", "101044.870000", "101046.660000", "101045.067500", "101046.857500", "101045.267500", "101047.057500", "101045.665000", "101047.455000", "101045.865000", "101047.655000", "101046.062500", "101047.852500", "101046.262500", "101048.052500", "101045.467500", "101047.257500", "101044.670000", "101046.460000", "101044.870000", "101046.660000", "101045.067500", "101046.857500", "101045.267500", "101047.057500", "101045.665000", "101047.455000", "101045.865000", "101047.655000", "101046.062500", "101047.852500", "101046.262500", "101048.052500", "101045.467500", "101050.857500", "101048.270000", "101050.060000", "101048.470000", "101050.260000", "101048.667500", "101050.457500", "101048.867500", "101050.657500", "101049.265000", "101051.055000", "101049.465000", "101051.255000", "101049.662500", "101051.452500", "101049.862500", "101051.652500", "101049.067500", "101050.857500", "101048.270000", "101050.060000", "101048.470000", "101050.260000", "101048.667500", "101050.457500", "101048.867500", "101050.657500", "101049.265000", "101051.055000", "101049.465000", "101051.255000", "101049.662500", "101051.452500", "101049.862500", "101051.652500", "101049.067500", "101050.857500", "101048.270000", "101050.060000", "101048.470000", "101050.260000", "101048.667500", "101050.457500", "101048.867500", "101050.657500", "101049.265000", "101051.055000", "101049.465000", "101051.255000", "101049.662500", "101051.452500", "101049.862500", "101051.652500", "101049.067500", "101050.857500", "101048.270000", "101050.060000", "101048.470000", "101050.260000", "101048.667500", "101050.457500", "101048.867500", "101050.657500", "101049.265000", "101051.055000", "101049.465000", "101051.255000", "101049.662500", "101051.452500", "101049.862500", "101051.652500", "101049.067500", "101054.457500", "101051.870000", "101053.660000", "101052.070000", "101053.860000", "101052.267500", "101054.057500", "101052.467500", "101054.257500", "101052.865000", "101054.655000", "101053.065000", "101054.855000", "101053.262500", "101055.052500", "101053.462500", "101055.252500", "101052.667500", "101054.457500", "101051.870000", "101053.660000", "101052.070000", "101053.860000", "101052.267500", "101054.057500", "101052.467500", "101054.257500", "101052.865000", "101054.655000", "101053.065000", "101054.855000", "101053.262500", "101055.052500", "101053.462500", "101055.252500", "101052.667500", "101054.457500", "101051.870000", "101053.660000", "101052.070000", "101053.860000", "101052.267500", "101054.057500", "101052.467500", "101054.257500", "101052.865000", "101054.655000", "101053.065000", "101054.855000", "101053.262500", "101055.052500", "101053.462500", "101055.252500", "101052.667500", "101054.457500", "101051.870000", "101053.660000", "101052.070000", "101053.860000", "101052.267500", "101054.057500", "101052.467500", "101054.257500", "101052.865000", "101054.655000", "101053.065000", "101054.855000", "101053.262500", "101055.052500", "101053.462500", "101055.252500", "101052.667500", "101058.057500", "101055.470000", "101057.260000", "101055.670000", "101057.460000", "101055.867500", "101057.657500", "101056.067500", "101057.857500", "101056.465000", "101058.255000", "101056.665000", "101058.455000", "101056.862500", "101058.652500", "101057.062500", "101058.852500", "101056.267500", "101058.057500", "101055.470000", "101057.260000", "101055.670000", "101057.460000", "101055.867500", "101057.657500", "101056.067500", "101057.857500", "101056.465000", "101058.255000", "101056.665000", "101058.455000", "101056.862500", "101058.652500", "101057.062500", "101058.852500", "101056.267500", "101058.057500", "101055.470000", "101057.260000", "101055.670000", "101057.460000", "101055.867500", "101057.657500", "101056.067500", "101057.857500", "101056.465000", "101058.255000", "101056.665000", "101058.455000", "101056.862500", "101058.652500", "101057.062500", "101058.852500", "101056.267500", "101058.057500", "101055.470000", "101057.260000", "101055.670000", "101057.460000", "101055.867500", "101057.657500", "101056.067500", "101057.857500", "101056.465000", "101058.255000", "101056.665000", "101058.455000", "101056.862500", "101058.652500", "101057.062500", "101058.852500", "101056.267500", "101101.657500", "101059.070000", "101100.860000", "101059.270000", "101101.060000", "101059.467500", "101101.257500", "101059.667500", "101101.457500", "101100.065000", "101101.855000", "101100.265000", "101102.055000", "101100.462500", "101102.252500", "101100.662500", "101102.452500", "101059.867500", "101101.657500", "101059.070000", "101100.860000", "101059.270000", "101101.060000", "101059.467500", "101101.257500", "101059.667500", "101101.457500", "101100.065000", "101101.855000", "101100.265000", "101102.055000", "101100.462500", "101102.252500", "101100.662500", "101102.452500", "101059.867500", "101101.657500", "101059.070000", "101100.860000", "101059.270000", "101101.060000", "101059.467500", "101101.257500", "101059.667500", "101101.457500", "101100.065000", "101101.855000", "101100.265000", "101102.055000", "101100.462500", "101102.252500", "101100.662500", "101102.452500", "101059.867500", "101101.657500", "101059.070000", "101100.860000", "101059.270000", "101101.060000", "101059.467500", "101101.257500", "101059.667500", "101101.457500", "101100.065000", "101101.855000", "101100.265000", "101102.055000", "101100.462500", "101102.252500", "101100.662500", "101102.452500", "101059.867500", "101105.257500", "101102.670000", "101104.460000", "101102.870000", "101104.660000", "101103.067500", "101104.857500", "101103.267500", "101105.057500", "101103.665000", "101105.455000", "101103.865000", "101105.655000", "101104.062500", "101105.852500", "101104.262500", "101106.052500", "101103.467500", "101105.257500", "101102.670000", "101104.460000", "101102.870000", "101104.660000", "101103.067500", "101104.857500", "101103.267500", "101105.057500", "101103.665000", "101105.455000", "101103.865000", "101105.655000", "101104.062500", "101105.852500", "101104.262500", "101106.052500", "101103.467500", "101105.257500", "101102.670000", "101104.460000", "101102.870000", "101104.660000", "101103.067500", "101104.857500", "101103.267500", "101105.057500", "101103.665000", "101105.455000", "101103.865000", "101105.655000", "101104.062500", "101105.852500", "101104.262500", "101106.052500", "101103.467500", "101105.257500", "101102.670000", "101104.460000", "101102.870000", "101104.660000", "101103.067500", "101104.857500", "101103.267500", "101105.057500", "101103.665000", "101105.455000", "101103.865000", "101105.655000", "101104.062500", "101105.852500", "101104.262500", "101106.052500", "101103.467500", "101108.857500", "101106.270000", "101108.060000", "101106.470000", "101108.260000", "101106.667500", "101108.457500", "101106.867500", "101108.657500", "101107.265000", "101109.055000", "101107.465000", "101109.255000", "101107.662500", "101109.452500", "101107.862500", "101109.652500", "101107.067500", "101108.857500", "101106.270000", "101108.060000", "101106.470000", "101108.260000", "101106.667500", "101108.457500", "101106.867500", "101108.657500", "101107.265000", "101109.055000", "101107.465000", "101109.255000", "101107.662500", "101109.452500", "101107.862500", "101109.652500", "101107.067500", "101108.857500", "101106.270000", "101108.060000", "101106.470000", "101108.260000", "101106.667500", "101108.457500", "101106.867500", "101108.657500", "101107.265000", "101109.055000", "101107.465000", "101109.255000", "101107.662500", "101109.452500", "101107.862500", "101109.652500", "101107.067500", "101108.857500", "101106.270000", "101108.060000", "101106.470000", "101108.260000", "101106.667500", "101108.457500", "101106.867500", "101108.657500", "101107.265000", "101109.055000", "101107.465000", "101109.255000", "101107.662500", "101109.452500", "101107.862500", "101109.652500", "101107.067500", "101112.457500", "101109.870000", "101111.660000", "101110.070000", "101111.860000", "101110.267500", "101112.057500", "101110.467500", "101112.257500", "101110.865000", "101112.655000", "101111.065000", "101112.855000", "101111.262500", "101113.052500", "101111.462500", "101113.252500", "101110.667500", "101112.457500", "101109.870000", "101111.660000", "101110.070000", "101111.860000", "101110.267500", "101112.057500", "101110.467500", "101112.257500", "101110.865000", "101112.655000", "101111.065000", "101112.855000", "101111.262500", "101113.052500", "101111.462500", "101113.252500", "101110.667500", "101112.457500", "101109.870000", "101111.660000", "101110.070000", "101111.860000", "101110.267500", "101112.057500", "101110.467500", "101112.257500", "101110.865000", "101112.655000", "101111.065000", "101112.855000", "101111.262500", "101113.052500", "101111.462500", "101113.252500", "101110.667500", "101112.457500", "101109.870000", "101111.660000", "101110.070000", "101111.860000", "101110.267500", "101112.057500", "101110.467500", "101112.257500", "101110.865000", "101112.655000", "101111.065000", "101112.855000", "101111.262500", "101113.052500", "101111.462500", "101113.252500", "101110.667500", "101116.057500", "101113.470000", "101115.260000", "101113.670000", "101115.460000", "101113.867500", "101115.657500", "101114.067500", "101115.857500", "101114.465000", "101116.255000", "101114.665000", "101116.455000", "101114.862500", "101116.652500", "101115.062500", "101116.852500", "101114.267500", "101116.057500", "101113.470000", "101115.260000", "101113.670000", "101115.460000", "101113.867500", "101115.657500", "101114.067500", "101115.857500", "101114.465000", "101116.255000", "101114.665000", "101116.455000", "101114.862500", "101116.652500", "101115.062500", "101116.852500", "101114.267500", "101116.057500", "101113.470000", "101115.260000", "101113.670000", "101115.460000", "101113.867500", "101115.657500", "101114.067500", "101115.857500", "101114.465000", "101116.255000", "101114.665000", "101116.455000", "101114.862500", "101116.652500", "101115.062500", "101116.852500", "101114.267500", "101116.057500", "101113.470000", "101115.260000", "101113.670000", "101115.460000", "101113.867500", "101115.657500", "101114.067500", "101115.857500", "101114.465000", "101116.255000", "101114.665000", "101116.455000", "101114.862500", "101116.652500", "101115.062500", "101116.852500", "101114.267500", "101119.657500", "101117.070000", "101118.860000", "101117.270000", "101119.060000", "101117.467500", "101119.257500", "101117.667500", "101119.457500", "101118.065000", "101119.855000", "101118.265000", "101120.055000", "101118.462500", "101120.252500", "101118.662500", "101120.452500", "101117.867500", "101119.657500", "101117.070000", "101118.860000", "101117.270000", "101119.060000", "101117.467500", "101119.257500", "101117.667500", "101119.457500", "101118.065000", "101119.855000", "101118.265000", "101120.055000", "101118.462500", "101120.252500", "101118.662500", "101120.452500", "101117.867500", "101119.657500", "101117.070000", "101118.860000", "101117.270000", "101119.060000", "101117.467500", "101119.257500", "101117.667500", "101119.457500", "101118.065000", "101119.855000", "101118.265000", "101120.055000", "101118.462500", "101120.252500", "101118.662500", "101120.452500", "101117.867500", "101119.657500", "101117.070000", "101118.860000", "101117.270000", "101119.060000", "101117.467500", "101119.257500", "101117.667500", "101119.457500", "101118.065000", "101119.855000", "101118.265000", "101120.055000", "101118.462500", "101120.252500", "101118.662500", "101120.452500", "101117.867500", "101123.257500", "101120.670000", "101122.460000", "101120.870000", "101122.660000", "101121.067500", "101122.857500", "101121.267500", "101123.057500", "101121.665000", "101123.455000", "101121.865000", "101123.655000", "101122.062500", "101123.852500", "101122.262500", "101124.052500", "101121.467500", "101123.257500", "101120.670000", "101122.460000", "101120.870000", "101122.660000", "101121.067500", "101122.857500", "101121.267500", "101123.057500", "101121.665000", "101123.455000", "101121.865000", "101123.655000", "101122.062500", "101123.852500", "101122.262500", "101124.052500", "101121.467500", "101123.257500", "101120.670000", "101122.460000", "101120.870000", "101122.660000", "101121.067500", "101122.857500", "101121.267500", "101123.057500", "101121.665000", "101123.455000", "101121.865000", "101123.655000", "101122.062500", "101123.852500", "101122.262500", "101124.052500", "101121.467500", "101123.257500", "101120.670000", "101122.460000", "101120.870000", "101122.660000", "101121.067500", "101122.857500", "101121.267500", "101123.057500", "101121.665000", "101123.455000", "101121.865000", "101123.655000", "101122.062500", "101123.852500", "101122.262500", "101124.052500", "101121.467500", "101126.857500", "101124.270000", "101126.060000", "101124.470000", "101126.260000", "101124.667500", "101126.457500", "101124.867500", "101126.657500", "101125.265000", "101127.055000", "101125.465000", "101127.255000", "101125.662500", "101127.452500", "101125.862500", "101127.652500", "101125.067500", "101126.857500", "101124.270000", "101126.060000", "101124.470000", "101126.260000", "101124.667500", "101126.457500", "101124.867500", "101126.657500", "101125.265000", "101127.055000", "101125.465000", "101127.255000", "101125.662500", "101127.452500", "101125.862500", "101127.652500", "101125.067500", "101126.857500", "101124.270000", "101126.060000", "101124.470000", "101126.260000", "101124.667500", "101126.457500", "101124.867500", "101126.657500", "101125.265000", "101127.055000", "101125.465000", "101127.255000", "101125.662500", "101127.452500", "101125.862500", "101127.652500", "101125.067500", "101126.857500", "101124.270000", "101126.060000", "101124.470000", "101126.260000", "101124.667500", "101126.457500", "101124.867500", "101126.657500", "101125.265000", "101127.055000", "101125.465000", "101127.255000", "101125.662500", "101127.452500", "101125.862500", "101127.652500", "101125.067500", "101130.457500", "101127.870000", "101129.660000", "101128.070000", "101129.860000", "101128.267500", "101130.057500", "101128.467500", "101130.257500", "101128.865000", "101130.655000", "101129.065000", "101130.855000", "101129.262500", "101131.052500", "101129.462500", "101131.252500", "101128.667500", "101130.457500", "101127.870000", "101129.660000", "101128.070000", "101129.860000", "101128.267500", "101130.057500", "101128.467500", "101130.257500", "101128.865000", "101130.655000", "101129.065000", "101130.855000", "101129.262500", "101131.052500", "101129.462500", "101131.252500", "101128.667500", "101130.457500", "101127.870000", "101129.660000", "101128.070000", "101129.860000", "101128.267500", "101130.057500", "101128.467500", "101130.257500", "101128.865000", "101130.655000", "101129.065000", "101130.855000", "101129.262500", "101131.052500", "101129.462500", "101131.252500", "101128.667500", "101130.457500", "101127.870000", "101129.660000", "101128.070000", "101129.860000", "101128.267500", "101130.057500", "101128.467500", "101130.257500", "101128.865000", "101130.655000", "101129.065000", "101130.855000", "101129.262500", "101131.052500", "101129.462500", "101131.252500", "101128.667500", "101134.057500", "101131.470000", "101133.260000", "101131.670000", "101133.460000", "101131.867500", "101133.657500", "101132.067500", "101133.857500", "101132.465000", "101134.255000", "101132.665000", "101134.455000", "101132.862500", "101134.652500", "101133.062500", "101134.852500", "101132.267500", "101134.057500", "101131.470000", "101133.260000", "101131.670000", "101133.460000", "101131.867500", "101133.657500", "101132.067500", "101133.857500", "101132.465000", "101134.255000", "101132.665000", "101134.455000", "101132.862500", "101134.652500", "101133.062500", "101134.852500", "101132.267500", "101134.057500", "101131.470000", "101133.260000", "101131.670000", "101133.460000", "101131.867500", "101133.657500", "101132.067500", "101133.857500", "101132.465000", "101134.255000", "101132.665000", "101134.455000", "101132.862500", "101134.652500", "101133.062500", "101134.852500", "101132.267500", "101134.057500", "101131.470000", "101133.260000", "101131.670000", "101133.460000", "101131.867500", "101133.657500", "101132.067500", "101133.857500", "101132.465000", "101134.255000", "101132.665000", "101134.455000", "101132.862500", "101134.652500", "101133.062500", "101134.852500", "101132.267500", "101137.657500", "101135.070000", "101136.860000", "101135.270000", "101137.060000", "101135.467500", "101137.257500", "101135.667500", "101137.457500", "101136.065000", "101137.855000", "101136.265000", "101138.055000", "101136.462500", "101138.252500", "101136.662500", "101138.452500", "101135.867500", "101137.657500", "101135.070000", "101136.860000", "101135.270000", "101137.060000", "101135.467500", "101137.257500", "101135.667500", "101137.457500", "101136.065000", "101137.855000", "101136.265000", "101138.055000", "101136.462500", "101138.252500", "101136.662500", "101138.452500", "101135.867500", "101137.657500", "101135.070000", "101136.860000", "101135.270000", "101137.060000", "101135.467500", "101137.257500", "101135.667500", "101137.457500", "101136.065000", "101137.855000", "101136.265000", "101138.055000", "101136.462500", "101138.252500", "101136.662500", "101138.452500", "101135.867500", "101137.657500", "101135.070000", "101136.860000", "101135.270000", "101137.060000", "101135.467500", "101137.257500", "101135.667500", "101137.457500", "101136.065000", "101137.855000", "101136.265000", "101138.055000", "101136.462500", "101138.252500", "101136.662500", "101138.452500", "101135.867500", "101141.257500", "101138.670000", "101140.460000", "101138.870000", "101140.660000", "101139.067500", "101140.857500", "101139.267500", "101141.057500", "101139.665000", "101141.455000", "101139.865000", "101141.655000", "101140.062500", "101141.852500", "101140.262500", "101142.052500", "101139.467500", "101141.257500", "101138.670000", "101140.460000", "101138.870000", "101140.660000", "101139.067500", "101140.857500", "101139.267500", "101141.057500", "101139.665000", "101141.455000", "101139.865000", "101141.655000", "101140.062500", "101141.852500", "101140.262500", "101142.052500", "101139.467500", "101141.257500", "101138.670000", "101140.460000", "101138.870000", "101140.660000", "101139.067500", "101140.857500", "101139.267500", "101141.057500", "101139.665000", "101141.455000", "101139.865000", "101141.655000", "101140.062500", "101141.852500", "101140.262500", "101142.052500", "101139.467500", "101141.257500", "101138.670000", "101140.460000", "101138.870000", "101140.660000", "101139.067500", "101140.857500", "101139.267500", "101141.057500", "101139.665000", "101141.455000", "101139.865000", "101141.655000", "101140.062500", "101141.852500", "101140.262500", "101142.052500", "101139.467500", "101144.857500", "101142.270000", "101144.060000", "101142.470000", "101144.260000", "101142.667500", "101144.457500", "101142.867500", "101144.657500", "101143.265000", "101145.055000", "101143.465000", "101145.255000", "101143.662500", "101145.452500", "101143.862500", "101145.652500", "101143.067500", "101144.857500", "101142.270000", "101144.060000", "101142.470000", "101144.260000", "101142.667500", "101144.457500", "101142.867500", "101144.657500", "101143.265000", "101145.055000", "101143.465000", "101145.255000", "101143.662500", "101145.452500", "101143.862500", "101145.652500", "101143.067500", "101144.857500", "101142.270000", "101144.060000", "101142.470000", "101144.260000", "101142.667500", "101144.457500", "101142.867500", "101144.657500", "101143.265000", "101145.055000", "101143.465000", "101145.255000", "101143.662500", "101145.452500", "101143.862500", "101145.652500", "101143.067500", "101144.857500", "101142.270000", "101144.060000", "101142.470000", "101144.260000", "101142.667500", "101144.457500", "101142.867500", "101144.657500", "101143.265000", "101145.055000", "101143.465000", "101145.255000