{
  "AcquisitionMatrixPE": 122,
  "AcquisitionNumber": 1,
  "AcquisitionTime": "10:06:14.055000",
  "BandwidthPerPixelPhaseEncode": 28.76,
  "BaseResolution": 122,
  "BodyPartExamined": "BRAIN",
  "CoilCombinationMethod": "Adaptive Combine",
  "ConsistencyInfo": "N4_VE11C_LATEST_20160120",
  "ConversionSoftware": "dcm2niix",
  "ConversionSoftwareVersion": "v1.0.20220720",
  "DerivedVendorReportedEchoSpacing": 0.000570008,
  "DeviceSerialNumber": "66112",
  "DiffusionScheme": "Monopolar",
  "DwellTime": 2e-06,
  "EchoTime": 0.075,
  "EchoTrainLength": 61,
  "EffectiveEchoSpacing": 0.000285004,
  "FlipAngle": 90,
  "HeudiconvVersion": "0.13.1",
  "ImageOrientationPatientDICOM": [0.976858, 0.213625, 0.010632, -0.206569, 0.929365, 0.305957],
  "ImageOrientationText": "Tra>Cor(17.5)>Sag(-3.2)",
  "ImageType": [
    "ORIGINAL",
    "PRIMARY",
    "DIFFUSION",
    "NONE",
    "ND",
    "NORM"
],
  "ImagingFrequency": 123.252,
  "InPlanePhaseEncodingDirectionDICOM": "COL",
  "InstitutionAddress": "Maynard 3,Hanover,NH,US,03755",
  "InstitutionName": "Dartmouth College - PBS",
  "InstitutionalDepartmentName": "Department",
  "MRAcquisitionType": "2D",
  "MagneticFieldStrength": 3,
  "Manufacturer": "Siemens",
  "ManufacturersModelName": "Prisma",
  "MatrixCoilMode": "GRAPPA",
  "Modality": "MR",
  "NonlinearGradientCorrection": false,
  "ParallelReductionFactorInPlane": 2,
  "PartialFourier": 1,
  "PatientPosition": "HFS",
  "PercentPhaseFOV": 100,
  "PercentSampling": 100,
  "PhaseEncodingDirection": "j-",
  "PhaseEncodingSteps": 122,
  "PhaseResolution": 1,
  "PixelBandwidth": 2050,
  "ProcedureStepDescription": "dbic^QA",
  "ProtocolName": "dwi_acq-DTI-30-p2",
  "PulseSequenceDetails": "%SiemensSeq%\\ep2d_diff",
  "ReceiveCoilActiveElements": "HEA;HEP",
  "ReceiveCoilName": "Head_32",
  "ReconMatrixPE": 122,
  "RefLinesPE": 38,
  "RepetitionTime": 7.7,
  "SAR": 0.101839,
  "ScanOptions": "FS",
  "ScanningSequence": "EP",
  "SequenceName": "*ep_b0",
  "SequenceVariant": "SK\\SP",
  "SeriesDescription": "dwi_acq-DTI-30-p2",
  "SeriesNumber": 8,
  "ShimSetting": [4146, -7695, -7511, 284, -33, -172, -49, 46],
  "SliceThickness": 2,
  "SliceTiming": [3.83594, 0, 3.94531, 0.10938, 4.05469, 0.21094, 4.16406, 0.32031, 4.27344, 0.4375, 4.38281, 0.54688, 4.49219, 0.65625, 4.60156, 0.76562, 4.71094, 0.875, 4.82031, 0.98438, 4.9375, 1.09375, 5.03906, 1.20312, 5.14844, 1.3125, 5.25781, 1.42188, 5.375, 1.53125, 5.48438, 1.64062, 5.59375, 1.75, 5.70312, 1.85938, 5.8125, 1.96875, 5.92188, 2.07812, 6.03125, 2.1875, 6.14062, 2.29688, 6.25, 2.40625, 6.35938, 2.51562, 6.46875, 2.625, 6.57812, 2.74219, 6.6875, 2.85156, 6.79688, 2.96094, 6.90625, 3.0625, 7.01562, 3.17969, 7.125, 3.28906, 7.23438, 3.39844, 7.34375, 3.50781, 7.45312, 3.61719, 7.5625, 3.72656],
  "SoftwareVersions": "syngo MR E11",
  "SpacingBetweenSlices": 2,
  "SpoilingState": true,
  "StationName": "AWP66112",
  "TotalReadoutTime": 0.0344855,
  "TxRefAmp": 231.722,
  "dcmmeta_affine": [
    [-1.9216878414154053, -0.4063645601272583, -0.11095798015594482, 147.3034210205078],
    [-0.4202452003955841, 1.8282593488693237, 0.6021461486816406, -96.79756164550781],
    [0.020915428176522255, -0.6018831729888916, 1.9039688110351562, -28.27501106262207],
    [0.0, 0.0, 0.0, 1.0]
],
  "dcmmeta_reorient_transform": [
    [0.0, -1.0, 0.0, 121.0],
    [1.0, 0.0, 0.0, 0.0],
    [0.0, 0.0, -1.0, 69.0],
    [0.0, 0.0, 0.0, 1.0]
],
  "dcmmeta_shape": [122, 122, 70, 31],
  "dcmmeta_slice_dim": 2,
  "dcmmeta_version": 0.6,
  "global": {
    "const": {
      "AccessionNumber": "qa",
      "AcquisitionMatrix": [122, 0, 0, 122],
      "AngioFlag": "N",
      "BitsAllocated": 16,
      "BitsStored": 12,
      "BodyPartExamined": "BRAIN",
      "Columns": 122,
      "EchoNumbers": 1,
      "EchoTime": 75.0,
      "EchoTrainLength": 61,
      "FlipAngle": 90.0,
      "HighBit": 11,
      "ImageOrientationPatient": [0.97685795908021, 0.21362464315129, 0.01063200922393, -0.2065686547667, 0.92936512902388, 0.3059572646993],
      "ImageType": [
        "ORIGINAL",
        "PRIMARY",
        "DIFFUSION",
        "NONE",
        "ND",
        "NORM"
],
      "ImagedNucleus": "1H",
      "ImagingFrequency": 123.252434,
      "InPlanePhaseEncodingDirection": "COL",
      "MRAcquisitionType": "2D",
      "MagneticFieldStrength": 3.0,
      "Manufacturer": "SIEMENS",
      "ManufacturerModelName": "Prisma",
      "Modality": "MR",
      "NumberOfAverages": 1.0,
      "NumberOfPhaseEncodingSteps": 122,
      "PercentPhaseFieldOfView": 100.0,
      "PercentSampling": 100.0,
      "PerformedProcedureStepStartTime": "094012.078000",
      "PhotometricInterpretation": "MONOCHROME2",
      "PixelBandwidth": 2050.0,
      "PixelRepresentation": 0,
      "PixelSpacing": [1.9672131538391, 1.9672131538391],
      "ProtocolName": "dwi_acq-DTI-30-p2",
      "RepetitionTime": 7700.0,
      "Rows": 122,
      "SAR": 0.10183947673788,
      "SamplesPerPixel": 1,
      "ScanOptions": "FS",
      "ScanningSequence": "EP",
      "SequenceVariant": [
        "SK",
        "SP"
],
      "SeriesDescription": "dwi_acq-DTI-30-p2",
      "SeriesNumber": 8,
      "SeriesTime": "100631.496000",
      "SliceThickness": 2.0,
      "SmallestImagePixelValue": 0,
      "SoftwareVersions": "syngo MR E11",
      "SpacingBetweenSlices": 2.0,
      "SpecificCharacterSet": "ISO_IR 100",
      "StudyID": "77",
      "StudyTime": "094011.953000",
      "TransmitCoilName": "Body",
      "VariableFlipAngleFlag": "N",
      "WindowCenterWidthExplanation": "Algo1",
      "dBdt": 0.0},
    "slices": {
      "AcquisitionTime": ["100614.055000", "100610.215000", "100614.165000", "100610.325000", "100614.272500", "100610.432500", "100614.382500", "100610.542500", "100614.492500", "100610.652500", "100614.602500", "100610.762500", "100614.712500", "100610.872500", "100614.822500", "100610.982500", "100614.932500", "100611.092500", "100615.042500", "100611.202500", "100615.152500", "100611.312500", "100615.260000", "100611.420000", "100615.370000", "100611.530000", "100615.480000", "100611.640000", "100615.590000", "100611.750000", "100615.700000", "100611.860000", "100615.810000", "100611.970000", "100615.920000", "100612.080000", "100616.030000", "100612.190000", "100616.137500", "100612.300000", "100616.247500", "100612.407500", "100616.357500", "100612.517500", "100616.467500", "100612.627500", "100616.577500", "100612.737500", "100616.687500", "100612.847500", "100616.797500", "100612.957500", "100616.907500", "100613.067500", "100617.017500", "100613.177500", "100617.125000", "100613.285000", "100617.235000", "100613.395000", "100617.345000", "100613.505000", "100617.455000", "100613.615000", "100617.565000", "100613.725000", "100617.675000", "100613.835000", "100617.785000", "100613.945000", "100621.755000", "100617.915000", "100621.865000", "100618.025000", "100621.972500", "100618.132500", "100622.082500", "100618.242500", "100622.192500", "100618.352500", "100622.302500", "100618.462500", "100622.412500", "100618.572500", "100622.522500", "100618.682500", "100622.632500", "100618.792500", "100622.742500", "100618.902500", "100622.852500", "100619.012500", "100622.960000", "100619.120000", "100623.070000", "100619.230000", "100623.180000", "100619.340000", "100623.290000", "100619.450000", "100623.400000", "100619.560000", "100623.510000", "100619.670000", "100623.620000", "100619.780000", "100623.730000", "100619.890000", "100623.837500", "100620.000000", "100623.947500", "100620.107500", "100624.057500", "100620.217500", "100624.167500", "100620.327500", "100624.277500", "100620.437500", "100624.387500", "100620.547500", "100624.497500", "100620.657500", "100624.607500", "100620.767500", "100624.717500", "100620.877500", "100624.825000", "100620.985000", "100624.935000", "100621.095000", "100625.045000", "100621.205000", "100625.155000", "100621.315000", "100625.265000", "100621.425000", "100625.375000", "100621.535000", "100625.485000", "100621.645000", "100629.455000", "100625.615000", "100629.565000", "100625.725000", "100629.672500", "100625.832500", "100629.782500", "100625.942500", "100629.892500", "100626.052500", "100630.002500", "100626.162500", "100630.112500", "100626.272500", "100630.222500", "100626.382500", "100630.332500", "100626.492500", "100630.442500", "100626.602500", "100630.552500", "100626.712500", "100630.660000", "100626.820000", "100630.770000", "100626.930000", "100630.880000", "100627.040000", "100630.990000", "100627.150000", "100631.100000", "100627.260000", "100631.210000", "100627.370000", "100631.320000", "100627.480000", "100631.430000", "100627.590000", "100631.537500", "100627.700000", "100631.647500", "100627.807500", "100631.757500", "100627.917500", "100631.867500", "100628.027500", "100631.977500", "100628.137500", "100632.087500", "100628.247500", "100632.197500", "100628.357500", "100632.307500", "100628.467500", "100632.417500", "100628.577500", "100632.525000", "100628.685000", "100632.635000", "100628.795000", "100632.745000", "100628.905000", "100632.855000", "100629.015000", "100632.965000", "100629.125000", "100633.075000", "100629.235000", "100633.185000", "100629.345000", "100637.155000", "100633.315000", "100637.265000", "100633.425000", "100637.372500", "100633.532500", "100637.482500", "100633.642500", "100637.592500", "100633.752500", "100637.702500", "100633.862500", "100637.812500", "100633.972500", "100637.922500", "100634.082500", "100638.032500", "100634.192500", "100638.142500", "100634.302500", "100638.252500", "100634.412500", "100638.360000", "100634.520000", "100638.470000", "100634.630000", "100638.580000", "100634.740000", "100638.690000", "100634.850000", "100638.800000", "100634.960000", "100638.910000", "100635.070000", "100639.020000", "100635.180000", "100639.130000", "100635.290000", "100639.237500", "100635.400000", "100639.347500", "100635.507500", "100639.457500", "100635.617500", "100639.567500", "100635.727500", "100639.677500", "100635.837500", "100639.787500", "100635.947500", "100639.897500", "100636.057500", "100640.007500", "100636.167500", "100640.117500", "100636.277500", "100640.225000", "100636.385000", "100640.335000", "100636.495000", "100640.445000", "100636.605000", "100640.555000", "100636.715000", "100640.665000", "100636.825000", "100640.775000", "100636.935000", "100640.885000", "100637.045000", "100644.855000", "100641.015000", "100644.965000", "100641.125000", "100645.072500", "100641.232500", "100645.182500", "100641.342500", "100645.292500", "100641.452500", "100645.402500", "100641.562500", "100645.512500", "100641.672500", "100645.622500", "100641.782500", "100645.732500", "100641.892500", "100645.842500", "100642.002500", "100645.952500", "100642.112500", "100646.060000", "100642.220000", "100646.170000", "100642.330000", "100646.280000", "100642.440000", "100646.390000", "100642.550000", "100646.500000", "100642.660000", "100646.610000", "100642.770000", "100646.720000", "100642.880000", "100646.830000", "100642.990000", "100646.937500", "100643.100000", "100647.047500", "100643.207500", "100647.157500", "100643.317500", "100647.267500", "100643.427500", "100647.377500", "100643.537500", "100647.487500", "100643.647500", "100647.597500", "100643.757500", "100647.707500", "100643.867500", "100647.817500", "100643.977500", "100647.925000", "100644.085000", "100648.035000", "100644.195000", "100648.145000", "100644.305000", "100648.255000", "100644.415000", "100648.365000", "100644.525000", "100648.475000", "100644.635000", "100648.585000", "100644.745000", "100652.555000", "100648.715000", "100652.665000", "100648.825000", "100652.772500", "100648.932500", "100652.882500", "100649.042500", "100652.992500", "100649.152500", "100653.102500", "100649.262500", "100653.212500", "100649.372500", "100653.322500", "100649.482500", "100653.432500", "100649.592500", "100653.542500", "100649.702500", "100653.652500", "100649.812500", "100653.760000", "100649.920000", "100653.870000", "100650.030000", "100653.980000", "100650.140000", "100654.090000", "100650.250000", "100654.200000", "100650.360000", "100654.310000", "100650.470000", "100654.420000", "100650.580000", "100654.530000", "100650.690000", "100654.637500", "100650.800000", "100654.747500", "100650.907500", "100654.857500", "100651.017500", "100654.967500", "100651.127500", "100655.077500", "100651.237500", "100655.187500", "100651.347500", "100655.297500", "100651.457500", "100655.407500", "100651.567500", "100655.517500", "100651.677500", "100655.625000", "100651.785000", "100655.735000", "100651.895000", "100655.845000", "100652.005000", "100655.955000", "100652.115000", "100656.065000", "100652.225000", "100656.175000", "100652.335000", "100656.285000", "100652.445000", "100700.255000", "100656.415000", "100700.365000", "100656.525000", "100700.472500", "100656.632500", "100700.582500", "100656.742500", "100700.692500", "100656.852500", "100700.802500", "100656.962500", "100700.912500", "100657.072500", "100701.022500", "100657.182500", "100701.132500", "100657.292500", "100701.242500", "100657.402500", "100701.352500", "100657.512500", "100701.460000", "100657.620000", "100701.570000", "100657.730000", "100701.680000", "100657.840000", "100701.790000", "100657.950000", "100701.900000", "100658.060000", "100702.010000", "100658.170000", "100702.120000", "100658.280000", "100702.230000", "100658.390000", "100702.337500", "100658.500000", "100702.447500", "100658.607500", "100702.557500", "100658.717500", "100702.667500", "100658.827500", "100702.777500", "100658.937500", "100702.887500", "100659.047500", "100702.997500", "100659.157500", "100703.107500", "100659.267500", "100703.217500", "100659.377500", "100703.325000", "100659.485000", "100703.435000", "100659.595000", "100703.545000", "100659.705000", "100703.655000", "100659.815000", "100703.765000", "100659.925000", "100703.875000", "100700.035000", "100703.985000", "100700.145000", "100707.955000", "100704.115000", "100708.065000", "100704.225000", "100708.172500", "100704.332500", "100708.282500", "100704.442500", "100708.392500", "100704.552500", "100708.502500", "100704.662500", "100708.612500", "100704.772500", "100708.722500", "100704.882500", "100708.832500", "100704.992500", "100708.942500", "100705.102500", "100709.052500", "100705.212500", "100709.160000", "100705.320000", "100709.270000", "100705.430000", "100709.380000", "100705.540000", "100709.490000", "100705.650000", "100709.600000", "100705.760000", "100709.710000", "100705.870000", "100709.820000", "100705.980000", "100709.930000", "100706.090000", "100710.037500", "100706.200000", "100710.147500", "100706.307500", "100710.257500", "100706.417500", "100710.367500", "100706.527500", "100710.477500", "100706.637500", "100710.587500", "100706.747500", "100710.697500", "100706.857500", "100710.807500", "100706.967500", "100710.917500", "100707.077500", "100711.025000", "100707.185000", "100711.135000", "100707.295000", "100711.245000", "100707.405000", "100711.355000", "100707.515000", "100711.465000", "100707.625000", "100711.575000", "100707.735000", "100711.685000", "100707.845000", "100715.655000", "100711.815000", "100715.765000", "100711.925000", "100715.872500", "100712.032500", "100715.982500", "100712.142500", "100716.092500", "100712.252500", "100716.202500", "100712.362500", "100716.312500", "100712.472500", "100716.422500", "100712.582500", "100716.532500", "100712.692500", "100716.642500", "100712.802500", "100716.752500", "100712.912500", "100716.860000", "100713.020000", "100716.970000", "100713.130000", "100717.080000", "100713.240000", "100717.190000", "100713.350000", "100717.300000", "100713.460000", "100717.410000", "100713.570000", "100717.520000", "100713.680000", "100717.630000", "100713.790000", "100717.737500", "100713.900000", "100717.847500", "100714.007500", "100717.957500", "100714.117500", "100718.067500", "100714.227500", "100718.177500", "100714.337500", "100718.287500", "100714.447500", "100718.397500", "100714.557500", "100718.507500", "100714.667500", "100718.617500", "100714.777500", "100718.725000", "100714.885000", "100718.835000", "100714.995000", "100718.945000", "100715.105000", "100719.055000", "100715.215000", "100719.165000", "100715.325000", "100719.275000", "100715.435000", "100719.385000", "100715.545000", "100723.355000", "100719.515000", "100723.465000", "100719.625000", "100723.572500", "100719.732500", "100723.682500", "100719.842500", "100723.792500", "100719.952500", "100723.902500", "100720.062500", "100724.012500", "100720.172500", "100724.122500", "100720.282500", "100724.232500", "100720.392500", "100724.342500", "100720.502500", "100724.452500", "100720.612500", "100724.560000", "100720.720000", "100724.670000", "100720.830000", "100724.780000", "100720.940000", "100724.890000", "100721.050000", "100725.000000", "100721.160000", "100725.110000", "100721.270000", "100725.220000", "100721.380000", "100725.330000", "100721.490000", "100725.437500", "100721.600000", "100725.547500", "100721.707500", "100725.657500", "100721.817500", "100725.767500", "100721.927500", "100725.877500", "100722.037500", "100725.987500", "100722.147500", "100726.097500", "100722.257500", "100726.207500", "100722.367500", "100726.317500", "100722.477500", "100726.425000", "100722.585000", "100726.535000", "100722.695000", "100726.645000", "100722.805000", "100726.755000", "100722.915000", "100726.865000", "100723.025000", "100726.975000", "100723.135000", "100727.085000", "100723.245000", "100731.055000", "100727.215000", "100731.165000", "100727.325000", "100731.272500", "100727.432500", "100731.382500", "100727.542500", "100731.492500", "100727.652500", "100731.602500", "100727.762500", "100731.712500", "100727.872500", "100731.822500", "100727.982500", "100731.932500", "100728.092500", "100732.042500", "100728.202500", "100732.152500", "100728.312500", "100732.260000", "100728.420000", "100732.370000", "100728.530000", "100732.480000", "100728.640000", "100732.590000", "100728.750000", "100732.700000", "100728.860000", "100732.810000", "100728.970000", "100732.920000", "100729.080000", "100733.030000", "100729.190000", "100733.137500", "100729.300000", "100733.247500", "100729.407500", "100733.357500", "100729.517500", "100733.467500", "100729.627500", "100733.577500", "100729.737500", "100733.687500", "100729.847500", "100733.797500", "100729.957500", "100733.907500", "100730.067500", "100734.017500", "100730.177500", "100734.125000", "100730.285000", "100734.235000", "100730.395000", "100734.345000", "100730.505000", "100734.455000", "100730.615000", "100734.565000", "100730.725000", "100734.675000", "100730.835000", "100734.785000", "100730.945000", "100738.755000", "100734.915000", "100738.865000", "100735.025000", "100738.972500", "100735.132500", "100739.082500", "100735.242500", "100739.192500", "100735.352500", "100739.302500", "100735.462500", "100739.412500", "100735.572500", "100739.522500", "100735.682500", "100739.632500", "100735.792500", "100739.742500", "100735.902500", "100739.852500", "100736.012500", "100739.960000", "100736.120000", "100740.070000", "100736.230000", "100740.180000", "100736.340000", "100740.290000", "100736.450000", "100740.400000", "100736.560000", "100740.510000", "100736.670000", "100740.620000", "100736.780000", "100740.730000", "100736.890000", "100740.837500", "100737.000000", "100740.947500", "100737.107500", "100741.057500", "100737.217500", "100741.167500", "100737.327500", "100741.277500", "100737.437500", "100741.387500", "100737.547500", "100741.497500", "100737.657500", "100741.607500", "100737.767500", "100741.717500", "100737.877500", "100741.825000", "100737.985000", "100741.935000", "100738.095000", "100742.045000", "100738.205000", "100742.155000", "100738.315000", "100742.265000", "100738.425000", "100742.375000", "100738.535000", "100742.485000", "100738.645000", "100746.455000", "100742.615000", "100746.565000", "100742.725000", "100746.672500", "100742.832500", "100746.782500", "100742.942500", "100746.892500", "100743.052500", "100747.002500", "100743.162500", "100747.112500", "100743.272500", "100747.222500", "100743.382500", "100747.332500", "100743.492500", "100747.442500", "100743.602500", "100747.552500", "100743.712500", "100747.660000", "100743.820000", "100747.770000", "100743.930000", "100747.880000", "100744.040000", "100747.990000", "100744.150000", "100748.100000", "100744.260000", "100748.210000", "100744.370000", "100748.320000", "100744.480000", "100748.430000", "100744.590000", "100748.537500", "100744.700000", "100748.647500", "100744.807500", "100748.757500", "100744.917500", "100748.867500", "100745.027500", "100748.977500", "100745.137500", "100749.087500", "100745.247500", "100749.197500", "100745.357500", "100749.307500", "100745.467500", "100749.417500", "100745.577500", "100749.525000", "100745.685000", "100749.635000", "100745.795000", "100749.745000", "100745.905000", "100749.855000", "100746.015000", "100749.965000", "100746.125000", "100750.075000", "100746.235000", "100750.185000", "100746.345000", "100754.155000", "100750.315000", "100754.265000", "100750.425000", "100754.372500", "100750.532500", "100754.482500", "100750.642500", "100754.592500", "100750.752500", "100754.702500", "100750.862500", "100754.812500", "100750.972500", "100754.922500", "100751.082500", "100755.032500", "100751.192500", "100755.142500", "100751.302500", "100755.252500", "100751.412500", "100755.360000", "100751.520000", "100755.470000", "100751.630000", "100755.580000", "100751.740000", "100755.690000", "100751.850000", "100755.800000", "100751.960000", "100755.910000", "100752.070000", "100756.020000", "100752.180000", "100756.130000", "100752.290000", "100756.237500", "100752.400000", "100756.347500", "100752.507500", "100756.457500", "100752.617500", "100756.567500", "100752.727500", "100756.677500", "100752.837500", "100756.787500", "100752.947500", "100756.897500", "100753.057500", "100757.007500", "100753.167500", "100757.117500", "100753.277500", "100757.225000", "100753.385000", "100757.335000", "100753.495000", "100757.445000", "100753.605000", "100757.555000", "100753.715000", "100757.665000", "100753.825000", "100757.775000", "100753.935000", "100757.885000", "100754.045000", "100801.855000", "100758.015000", "100801.965000", "100758.125000", "100802.072500", "100758.232500", "100802.182500", "100758.342500", "100802.292500", "100758.452500", "100802.402500", "100758.562500", "100802.512500", "100758.672500", "100802.622500", "100758.782500", "100802.732500", "100758.892500", "100802.842500", "100759.002500", "100802.952500", "100759.112500", "100803.060000", "100759.220000", "100803.170000", "100759.330000", "100803.280000", "100759.440000", "100803.390000", "100759.550000", "100803.500000", "100759.660000", "100803.610000", "100759.770000", "100803.720000", "100759.880000", "100803.830000", "100759.990000", "100803.937500", "100800.100000", "100804.047500", "100800.207500", "100804.157500", "100800.317500", "100804.267500", "100800.427500", "100804.377500", "100800.537500", "100804.487500", "100800.647500", "100804.597500", "100800.757500", "100804.707500", "100800.867500", "100804.817500", "100800.977500", "100804.925000", "100801.085000", "100805.035000", "100801.195000", "100805.145000", "100801.305000", "100805.255000", "100801.415000", "100805.365000", "100801.525000", "100805.475000", "100801.635000", "100805.585000", "100801.745000", "100809.555000", "100805.715000", "100809.665000", "100805.825000", "100809.772500", "100805.932500", "100809.882500", "100806.042500", "100809.992500", "100806.152500", "100810.102500", "100806.262500", "100810.212500", "100806.372500", "100810.322500", "100806.482500", "100810.432500", "100806.592500", "100810.542500", "100806.702500", "100810.652500", "100806.812500", "100810.760000", "100806.920000", "100810.870000", "100807.030000", "100810.980000", "100807.140000", "100811.090000", "100807.250000", "100811.200000", "100807.360000", "100811.310000", "100807.470000", "100811.420000", "100807.580000", "100811.530000", "100807.690000", "100811.637500", "100807.800000", "100811.747500", "100807.907500", "100811.857500", "100808.017500", "100811.967500", "100808.127500", "100812.077500", "100808.237500", "100812.187500", "100808.347500", "100812.297500", "100808.457500", "100812.407500", "100808.567500", "100812.517500", "100808.677500", "100812.625000", "100808.785000", "100812.735000", "100808.895000", "100812.845000", "100809.005000", "100812.955000", "100809.115000", "100813.065000", "100809.225000", "100813.175000", "100809.335000", "100813.285000", "100809.445000", "100817.255000", "100813.415000", "100817.365000", "100813.525000", "100817.472500", "100813.632500", "100817.582500", "100813.742500", "100817.692500", "100813.852500", "100817.802500", "100813.962500", "100817.912500", "100814.072500", "100818.022500", "100814.182500", "100818.132500", "100814.292500", "100818.242500", "100814.402500", "100818.352500", "100814.512500", "100818.460000", "100814.620000", "100818.570000", "100814.730000", "100818.680000", "100814.840000", "100818.790000", "100814.950000", "100818.900000", "100815.060000", "100819.010000", "100815.170000", "100819.120000", "100815.280000", "100819.230000", "100815.390000", "100819.337500", "100815.500000", "100819.447500", "100815.607500", "100819.557500", "100815.717500", "100819.667500", "100815.827500", "100819.777500", "100815.937500", "100819.887500", "100816.047500", "100819.997500", "100816.157500", "100820.107500", "100816.267500", "100820.217500", "100816.377500", "100820.325000", "100816.485000", "100820.435000", "100816.595000", "100820.545000", "100816.705000", "100820.655000", "100816.815000", "100820.765000", "100816.925000", "100820.875000", "100817.035000", "100820.985000", "100817.145000", "100824.955000", "100821.115000", "100825.065000", "100821.225000", "100825.172500", "100821.332500", "100825.282500", "100821.442500", "100825.392500", "100821.552500", "100825.502500", "100821.662500", "100825.612500", "100821.772500", "100825.722500", "100821.882500", "100825.832500", "100821.992500", "100825.942500", "100822.102500", "100826.052500", "100822.212500", "100826.160000", "100822.320000", "100826.270000", "100822.430000", "100826.380000", "100822.540000", "100826.490000", "100822.650000", "100826.600000", "100822.760000", "100826.710000", "100822.870000", "100826.820000", "100822.980000", "100826.930000", "100823.090000", "100827.037500", "100823.200000", "100827.147500", "100823.307500", "100827.257500", "100823.417500", "100827.367500", "100823.527500", "100827.477500", "100823.637500", "100827.587500", "100823.747500", "100827.697500", "100823.857500", "100827.807500", "100823.967500", "100827.917500", "100824.077500", "100828.025000", "100824.185000", "100828.135000", "100824.295000", "100828.245000", "100824.405000", "100828.355000", "100824.515000", "100828.465000", "100824.625000", "100828.575000", "100824.735000", "100828.685000", "100824.845000", "100832.655000", "100828.815000", "100832.765000", "100828.925000", "100832.872500", "100829.032500", "100832.982500", "100829.142500", "100833.092500", "100829.252500", "100833.202500", "100829.362500", "100833.312500", "100829.472500", "100833.422500", "100829.582500", "100833.532500", "100829.692500", "100833.642500", "100829.802500", "100833.752500", "100829.912500", "100833.860000", "100830.020000", "100833.970000", "100830.130000", "100834.080000", "100830.240000", "100834.190000", "100830.350000", "100834.300000", "100830.460000", "100834.410000", "100830.570000", "100834.520000", "100830.680000", "100834.630000", "100830.790000", "100834.737500", "100830.900000", "100834.847500", "100831.007500", "100834.957500", "100831.117500", "100835.067500", "100831.227500", "100835.177500", "100831.337500", "100835.287500", "100831.447500", "100835.397500", "100831.557500", "100835.507500", "100831.667500", "100835.617500", "100831.777500", "100835.725000", "100831.885000", "100835.835000", "100831.995000", "100835.945000", "100832.105000", "100836.055000", "100832.215000", "100836.165000", "100832.325000", "100836.275000", "100832.435000", "100836.385000", "100832.545000", "100840.355000", "100836.515000", "100840.465000", "100836.625000", "100840.572500", "100836.732500", "100840.682500", "100836.842500", "100840.792500", "100836.952500", "100840.902500", "100837.062500", "100841.012500", "100837.172500", "100841.122500", "100837.282500", "100841.232500", "100837.392500", "100841.342500", "100837.502500", "100841.452500", "100837.612500", "100841.560000", "100837.720000", "100841.670000", "100837.830000", "100841.780000", "100837.940000", "100841.890000", "100838.050000", "100842.000000", "100838.160000", "100842.110000", "100838.270000", "100842.220000", "100838.380000", "100842.330000", "100838.490000", "100842.437500", "100838.600000", "100842.547500", "100838.707500", "100842.657500", "100838.817500", "100842.767500", "100838.927500", "100842.877500", "100839.037500", "100842.987500", "100839.147500", "100843.097500", "100839.257500", "100843.207500", "100839.367500", "100843.317500", "100839.477500", "100843.425000", "100839.585000", "100843.535000", "100839.695000", "100843.645000", "100839.805000", "100843.755000", "100839.915000", "100843.865000", "100840.025000", "100843.975000", "100840.135000", "100844.085000", "100840.245000", "100848.055000", "100844.215000", "100848.165000", "100844.325000", "100848.272500", "100844.432500", "100848.382500", "100844.542500", "100848.492500", "100844.652500", "100848.602500", "100844.762500", "100848.712500", "100844.872500", "100848.822500", "100844.982500", "100848.932500", "100845.092500", "100849.042500", "100845.202500", "100849.152500", "100845.312500", "100849.260000", "100845.420000", "100849.370000", "100845.530000", "100849.480000", "100845.640000", "100849.590000", "100845.750000", "100849.700000", "100845.860000", "100849.810000", "100845.970000", "100849.920000", "100846.