{
  "AcquisitionMatrixPE": 80,
  "AcquisitionNumber": 1,
  "AcquisitionTime": "09:05:31.497500",
  "BandwidthPerPixelPhaseEncode": 25,
  "BaseResolution": 80,
  "BodyPartExamined": "BRAIN",
  "CoilCombinationMethod": "Sum of Squares",
  "ConsistencyInfo": "N4_VE11E_LATEST_20181129",
  "ConversionSoftware": "dcm2niix",
  "ConversionSoftwareVersion": "v1.0.20220720",
  "DerivedVendorReportedEchoSpacing": 0.0005,
  "DeviceSerialNumber": "66112",
  "DwellTime": 2.7e-06,
  "EchoTime": 0.03,
  "EchoTrainLength": 80,
  "EffectiveEchoSpacing": 0.0005,
  "FlipAngle": 10,
  "HeudiconvVersion": "0.13.1",
  "ImageOrientationPatientDICOM": [0.992239, -0.124338, 0.00126437, 0.118142, 0.945866, 0.302292],
  "ImageOrientationText": "Tra>Cor(17.5)>Sag(2.2)",
  "ImageType": [
    "ORIGINAL",
    "PRIMARY",
    "M",
    "ND",
    "NORM",
    "MOSAIC"
],
  "ImagingFrequency": 123.259,
  "InPlanePhaseEncodingDirectionDICOM": "COL",
  "InstitutionAddress": "Maynard 3,Hanover,NH,US,03755",
  "InstitutionName": "Dartmouth College - PBS",
  "InstitutionalDepartmentName": "Department",
  "MRAcquisitionType": "2D",
  "MagneticFieldStrength": 3,
  "Manufacturer": "Siemens",
  "ManufacturersModelName": "Prisma",
  "MatrixCoilMode": "SENSE",
  "Modality": "MR",
  "NonlinearGradientCorrection": false,
  "PartialFourier": 1,
  "PatientPosition": "HFS",
  "PercentPhaseFOV": 100,
  "PercentSampling": 100,
  "PhaseEncodingDirection": "j-",
  "PhaseEncodingSteps": 80,
  "PhaseResolution": 1,
  "PixelBandwidth": 2315,
  "ProcedureStepDescription": "dbic^QA",
  "ProtocolName": "func-bold_fa-10",
  "PulseSequenceDetails": "%SiemensSeq%\\ep2d_bold",
  "ReceiveCoilActiveElements": "HC1-7;NC1,2",
  "ReceiveCoilName": "HeadNeck_64",
  "ReconMatrixPE": 80,
  "RepetitionTime": 2,
  "SAR": 0.00759549,
  "ScanOptions": "FS",
  "ScanningSequence": "EP",
  "SequenceName": "*epfid2d1_80",
  "SequenceVariant": "SK",
  "SeriesDescription": "func-bold_fa-10",
  "SeriesNumber": 7,
  "ShimSetting": [4214, -7737, -7487, -133, -143, -227, -38, 96],
  "SliceThickness": 3.5,
  "SliceTiming": [0.9875, 0, 1.055, 0.065, 1.12, 0.13, 1.1875, 0.1975, 1.2525, 0.2625, 1.3175, 0.33, 1.385, 0.395, 1.45, 0.46, 1.5175, 0.5275, 1.5825, 0.5925, 1.6475, 0.66, 1.715, 0.725, 1.78, 0.79, 1.8475, 0.8575, 1.9125, 0.9225],
  "SoftwareVersions": "syngo MR E11",
  "SpacingBetweenSlices": 3.99,
  "StationName": "AWP66112",
  "TotalReadoutTime": 0.0395,
  "TxRefAmp": 209.682,
  "dcmmeta_affine": [
    [-2.976717472076416, 0.3544250428676605, 0.154741108417511, 102.54719543457031],
    [0.37301379442214966, 2.8375978469848633, 1.1961867809295654, -139.1181182861328],
    [0.0037930957041680813, -0.9068748354911804, 3.803326368331909, -22.10523796081543],
    [0.0, 0.0, 0.0, 1.0]
],
  "dcmmeta_reorient_transform": [
    [0.0, -1.0, 0.0, 79.0],
    [1.0, 0.0, 0.0, 0.0],
    [0.0, 0.0, 1.0, 0.0],
    [0.0, 0.0, 0.0, 1.0]
],
  "dcmmeta_shape": [80, 80, 30, 200],
  "dcmmeta_slice_dim": 2,
  "dcmmeta_version": 0.6,
  "global": {
    "const": {
      "AccessionNumber": "qa64",
      "AcquisitionMatrix": [80, 0, 0, 80],
      "AngioFlag": "N",
      "BitsAllocated": 16,
      "BitsStored": 12,
      "BodyPartExamined": "BRAIN",
      "Columns": 480,
      "EchoNumbers": 1,
      "EchoTime": 30.0,
      "EchoTrainLength": 80,
      "FlipAngle": 10.0,
      "HighBit": 11,
      "ImageOrientationPatient": [0.99223912467977, -0.124337929994, 0.00126436526246, 0.11814168557806, 0.94586591316465, 0.30229160828904],
      "ImagePositionPatient": [-796.77526385095, -577.96889406813, -275.88193334233],
      "ImageType": [
        "ORIGINAL",
        "PRIMARY",
        "M",
        "ND",
        "NORM",
        "MOSAIC"
],
      "ImagedNucleus": "1H",
      "ImagingFrequency": 123.259243,
      "InPlanePhaseEncodingDirection": "COL",
      "MRAcquisitionType": "2D",
      "MagneticFieldStrength": 3.0,
      "Manufacturer": "SIEMENS",
      "ManufacturerModelName": "Prisma",
      "Modality": "MR",
      "NumberOfAverages": 1.0,
      "NumberOfPhaseEncodingSteps": 80,
      "PercentPhaseFieldOfView": 100.0,
      "PercentSampling": 100.0,
      "PerformedProcedureStepStartTime": "084415.497000",
      "PhotometricInterpretation": "MONOCHROME2",
      "PixelBandwidth": 2315.0,
      "PixelRepresentation": 0,
      "PixelSpacing": [3.0, 3.0],
      "ProtocolName": "func-bold_fa-10",
      "RepetitionTime": 2000.0,
      "Rows": 480,
      "SAR": 0.00759549381478,
      "SamplesPerPixel": 1,
      "ScanOptions": "FS",
      "ScanningSequence": "EP",
      "SequenceName": "*epfid2d1_80",
      "SequenceVariant": "SK",
      "SeriesDescription": "func-bold_fa-10",
      "SeriesNumber": 7,
      "SeriesTime": "090622.625000",
      "SliceLocation": -58.801108650393,
      "SliceThickness": 3.5,
      "SmallestImagePixelValue": 0,
      "SoftwareVersions": "syngo MR E11",
      "SpacingBetweenSlices": 3.9899999794985,
      "SpecificCharacterSet": "ISO_IR 100",
      "StudyID": "8",
      "StudyTime": "084415.391000",
      "TransmitCoilName": "Body",
      "VariableFlipAngleFlag": "N",
      "WindowCenterWidthExplanation": "Algo1"
    },
    "slices": {}
  },
  "time": {
    "samples": {
      "AcquisitionNumber": [1, 2, 3, 4, 5, 6, 7, 8, 9, 10, 11, 12, 13, 14, 15, 16, 17, 18, 19, 20, 21, 22, 23, 24, 25, 26, 27, 28, 29, 30, 31, 32, 33, 34, 35, 36, 37, 38, 39, 40, 41, 42, 43, 44, 45, 46, 47, 48, 49, 50, 51, 52, 53, 54, 55, 56, 57, 58, 59, 60, 61, 62, 63, 64, 65, 66, 67, 68, 69, 70, 71, 72, 73, 74, 75, 76, 77, 78, 79, 80, 81, 82, 83, 84, 85, 86, 87, 88, 89, 90, 91, 92, 93, 94, 95, 96, 97, 98, 99, 100, 101, 102, 103, 104, 105, 106, 107, 108, 109, 110, 111, 112, 113, 114, 115, 116, 117, 118, 119, 120, 121, 122, 123, 124, 125, 126, 127, 128, 129, 130, 131, 132, 133, 134, 135, 136, 137, 138, 139, 140, 141, 142, 143, 144, 145, 146, 147, 148, 149, 150, 151, 152, 153, 154, 155, 156, 157, 158, 159, 160, 161, 162, 163, 164, 165, 166, 167, 168, 169, 170, 171, 172, 173, 174, 175, 176, 177, 178, 179, 180, 181, 182, 183, 184, 185, 186, 187, 188, 189, 190, 191, 192, 193, 194, 195, 196, 197, 198, 199, 200],
      "AcquisitionTime": ["090531.497500", "090533.497500", "090535.497500", "090537.497500", "090539.497500", "090541.497500", "090543.497500", "090545.497500", "090547.497500", "090549.497500", "090551.497500", "090553.497500", "090555.497500", "090557.497500", "090559.497500", "090601.497500", "090603.497500", "090605.497500", "090607.497500", "090609.497500", "090611.497500", "090613.497500", "090615.497500", "090617.497500", "090619.497500", "090621.497500", "090623.497500", "090625.497500", "090627.497500", "090629.497500", "090631.497500", "090633.497500", "090635.497500", "090637.497500", "090639.497500", "090641.497500", "090643.497500", "090645.497500", "090647.497500", "090649.497500", "090651.497500", "090653.497500", "090655.497500", "090657.497500", "090659.497500", "090701.497500", "090703.497500", "090705.497500", "090707.497500", "090709.497500", "090711.497500", "090713.497500", "090715.497500", "090717.497500", "090719.497500", "090721.497500", "090723.497500", "090725.497500", "090727.497500", "090729.497500", "090731.497500", "090733.497500", "090735.497500", "090737.497500", "090739.497500", "090741.497500", "090743.497500", "090745.497500", "090747.497500", "090749.497500", "090751.497500", "090753.497500", "090755.497500", "090757.497500", "090759.497500", "090801.497500", "090803.497500", "090805.497500", "090807.497500", "090809.497500", "090811.497500", "090813.497500", "090815.497500", "090817.497500", "090819.497500", "090821.497500", "090823.497500", "090825.497500", "090827.497500", "090829.497500", "090831.497500", "090833.497500", "090835.497500", "090837.497500", "090839.497500", "090841.497500", "090843.497500", "090845.497500", "090847.497500", "090849.497500", "090851.497500", "090853.497500", "090855.497500", "090857.497500", "090859.497500", "090901.497500", "090903.497500", "090905.497500", "090907.497500", "090909.497500", "090911.497500", "090913.497500", "090915.497500", "090917.497500", "090919.497500", "090921.497500", "090923.497500", "090925.497500", "090927.497500", "090929.497500", "090931.497500", "090933.497500", "090935.497500", "090937.497500", "090939.497500", "090941.497500", "090943.497500", "090945.497500", "090947.497500", "090949.497500", "090951.497500", "090953.497500", "090955.497500", "090957.497500", "090959.497500", "091001.497500", "091003.497500", "091005.497500", "091007.497500", "091009.497500", "091011.497500", "091013.497500", "091015.497500", "091017.497500", "091019.497500", "091021.497500", "091023.497500", "091025.497500", "091027.497500", "091029.497500", "091031.497500", "091033.497500", "091035.497500", "091037.497500", "091039.497500", "091041.497500", "091043.497500", "091045.497500", "091047.497500", "091049.497500", "091051.497500", "091053.497500", "091055.497500", "091057.497500", "091059.497500", "091101.497500", "091103.497500", "091105.497500", "091107.497500", "091109.497500", "091111.497500", "091113.497500", "091115.497500", "091117.497500", "091119.497500", "091121.497500", "091123.497500", "091125.497500", "091127.497500", "091129.497500", "091131.497500", "091133.497500", "091135.497500", "091137.497500", "091139.497500", "091141.497500", "091143.497500", "091145.497500", "091147.497500", "091149.497500", "091151.497500", "091153.497500", "091155.497500", "091157.497500", "091159.497500", "091201.497500", "091203.497500", "091205.497500", "091207.497500", "091209.497500"],
      "ContentTime": ["090622.628000", "090622.631000", "090622.633000", "090622.636000", "090622.638000", "090622.640000", "090622.643000", "090622.654000", "090622.657000", "090622.659000", "090622.661000", "090622.664000", "090622.666000", "090622.673000", "090622.675000", "090622.677000", "090622.680000", "090622.682000", "090622.684000", "090622.686000", "090622.689000", "090622.691000", "090622.693000", "090622.696000", "090622.698000", "090702.623000", "090702.626000", "090702.628000", "090702.630000", "090702.633000", "090702.635000", "090702.637000", "090702.640000", "090702.642000", "090702.644000", "090702.646000", "090702.649000", "090702.651000", "090702.654000", "090702.656000", "090702.658000", "090702.660000", "090702.663000", "090702.665000", "090702.667000", "090742.623000", "090742.626000", "090742.634000", "090742.636000", "090742.639000", "090742.641000", "090742.643000", "090742.646000", "090742.648000", "090742.650000", "090742.652000", "090742.655000", "090742.657000", "090742.659000", "090742.662000", "090742.664000", "090742.666000", "090742.669000", "090742.671000", "090742.673000", "090822.623000", "090822.626000", "090822.628000", "090822.631000", "090822.633000", "090822.635000", "090822.638000", "090822.640000", "090822.642000", "090822.644000", "090822.647000", "090822.649000", "090822.651000", "090822.654000", "090822.656000", "090822.658000", "090822.661000", "090822.663000", "090822.665000", "090822.668000", "090902.623000", "090902.626000", "090902.628000", "090902.631000", "090902.633000", "090902.635000", "090902.638000", "090902.640000", "090902.642000", "090902.644000", "090902.647000", "090902.649000", "090902.651000", "090902.654000", "090902.656000", "090902.658000", "090902.661000", "090902.663000", "090902.665000", "090902.668000", "090942.623000", "090942.626000", "090942.628000", "090942.630000", "090942.633000", "090942.635000", "090942.637000", "090942.640000", "090942.642000", "090942.644000", "090942.646000", "090942.649000", "090942.651000", "090942.653000", "090942.656000", "090942.658000", "090942.660000", "090942.662000", "090942.665000", "090942.667000", "091022.622000", "091022.625000", "091022.627000", "091022.629000", "091022.631000", "091022.634000", "091022.636000", "091022.638000", "091022.641000", "091022.643000", "091022.645000", "091022.648000", "091022.650000", "091022.652000", "091022.654000", "091022.657000", "091022.659000", "091022.661000", "091022.664000", "091022.666000", "091102.623000", "091102.626000", "091102.628000", "091102.631000", "091102.633000", "091102.635000", "091102.637000", "091102.640000", "091102.642000", "091102.644000", "091102.657000", "091102.659000", "091102.661000", "091102.664000", "091102.666000", "091102.668000", "091102.671000", "091102.673000", "091102.675000", "091102.678000", "091142.623000", "091142.626000", "091142.628000", "091142.630000", "091142.633000", "091142.635000", "091142.637000", "091142.639000", "091142.642000", "091142.644000", "091142.646000", "091142.649000", "091142.656000", "091142.658000", "091142.660000", "091142.662000", "091142.665000", "091142.667000", "091142.669000", "091142.672000", "091210.878000", "091210.881000", "091210.883000", "091210.885000", "091210.888000", "091210.890000", "091210.892000", "091210.895000", "091210.897000", "091210.899000", "091210.902000", "091210.904000", "091210.906000", "091210.910000", "091210.917000"],
      "InstanceCreationTime": ["090622.628000", "090622.631000", "090622.633000", "090622.636000", "090622.638000", "090622.640000", "090622.643000", "090622.654000", "090622.657000", "090622.659000", "090622.661000", "090622.664000", "090622.666000", "090622.673000", "090622.675000", "090622.677000", "090622.680000", "090622.682000", "090622.684000", "090622.686000", "090622.689000", "090622.691000", "090622.693000", "090622.696000", "090622.698000", "090702.623000", "090702.626000", "090702.628000", "090702.630000", "090702.633000", "090702.635000", "090702.637000", "090702.640000", "090702.642000", "090702.644000", "090702.646000", "090702.649000", "090702.651000", "090702.654000", "090702.656000", "090702.658000", "090702.660000", "090702.663000", "090702.665000", "090702.667000", "090742.623000", "090742.626000", "090742.634000", "090742.636000", "090742.639000", "090742.641000", "090742.643000", "090742.646000", "090742.648000", "090742.650000", "090742.652000", "090742.655000", "090742.657000", "090742.659000", "090742.662000", "090742.664000", "090742.666000", "090742.669000", "090742.671000", "090742.673000", "090822.623000", "090822.626000", "090822.628000", "090822.631000", "090822.633000", "090822.635000", "090822.638000", "090822.640000", "090822.642000", "090822.644000", "090822.647000", "090822.649000", "090822.651000", "090822.654000", "090822.656000", "090822.658000", "090822.661000", "090822.663000", "090822.665000", "090822.668000", "090902.623000", "090902.626000", "090902.628000", "090902.631000", "090902.633000", "090902.635000", "090902.638000", "090902.640000", "090902.642000", "090902.644000", "090902.647000", "090902.649000", "090902.651000", "090902.654000", "090902.656000", "090902.658000", "090902.661000", "090902.663000", "090902.665000", "090902.668000", "090942.623000", "090942.626000", "090942.628000", "090942.630000", "090942.633000", "090942.635000", "090942.637000", "090942.640000", "090942.642000", "090942.644000", "090942.646000", "090942.649000", "090942.651000", "090942.653000", "090942.656000", "090942.658000", "090942.660000", "090942.662000", "090942.665000", "090942.667000", "091022.622000", "091022.625000", "091022.627000", "091022.629000", "091022.631000", "091022.634000", "091022.636000", "091022.638000", "091022.641000", "091022.643000", "091022.645000", "091022.648000", "091022.650000", "091022.652000", "091022.654000", "091022.657000", "091022.659000", "091022.661000", "091022.664000", "091022.666000", "091102.623000", "091102.626000", "091102.628000", "091102.631000", "091102.633000", "091102.635000", "091102.637000", "091102.640000", "091102.642000", "091102.644000", "091102.657000", "091102.659000", "091102.661000", "091102.664000", "091102.666000", "091102.668000", "091102.671000", "091102.673000", "091102.675000", "091102.678000", "091142.623000", "091142.626000", "091142.628000", "091142.630000", "091142.633000", "091142.635000", "091142.637000", "091142.639000", "091142.642000", "091142.644000", "091142.646000", "091142.649000", "091142.656000", "091142.658000", "091142.660000", "091142.662000", "091142.665000", "091142.667000", "091142.669000", "091142.672000", "091210.878000", "091210.881000", "091210.883000", "091210.885000", "091210.888000", "091210.890000", "091210.892000", "091210.895000", "091210.897000", "091210.899000", "091210.902000", "091210.904000", "091210.906000", "091210.910000", "091210.917000"],
      "InstanceNumber": [1, 2, 3, 4, 5, 6, 7, 8, 9, 10, 11, 12, 13, 14, 15, 16, 17, 18, 19, 20, 21, 22, 23, 24, 25, 26, 27, 28, 29, 30, 31, 32, 33, 34, 35, 36, 37, 38, 39, 40, 41, 42, 43, 44, 45, 46, 47, 48, 49, 50, 51, 52, 53, 54, 55, 56, 57, 58, 59, 60, 61, 62, 63, 64, 65, 66, 67, 68, 69, 70, 71, 72, 73, 74, 75, 76, 77, 78, 79, 80, 81, 82, 83, 84, 85, 86, 87, 88, 89, 90, 91, 92, 93, 94, 95, 96, 97, 98, 99, 100, 101, 102, 103, 104, 105, 106, 107, 108, 109, 110, 111, 112, 113, 114, 115, 116, 117, 118, 119, 120, 121, 122, 123, 124, 125, 126, 127, 128, 129, 130, 131, 132, 133, 134, 135, 136, 137, 138, 139, 140, 141, 142, 143, 144, 145, 146, 147, 148, 149, 150, 151, 152, 153, 154, 155, 156, 157, 158, 159, 160, 161, 162, 163, 164, 165, 166, 167, 168, 169, 170, 171, 172, 173, 174, 175, 176, 177, 178, 179, 180, 181, 182, 183, 184, 185, 186, 187, 188, 189, 190, 191, 192, 193, 194, 195, 196, 197, 198, 199, 200],
      "LargestImagePixelValue": [679, 679, 678, 678, 676, 679, 679, 675, 675, 674, 672, 678, 678, 676, 675, 678, 671, 678, 675, 680, 675, 677, 676, 673, 678, 681, 679, 674, 675, 677, 675, 677, 677, 678, 675, 676, 676, 674, 677, 676, 672, 678, 676, 676, 674, 674, 675, 678, 675, 677, 674, 673, 674, 672, 675, 679, 674, 672, 672, 675, 672, 676, 676, 680, 676, 677, 675, 675, 671, 676, 675, 675, 672, 677, 673, 673, 675, 672, 677, 673, 671, 673, 675, 675, 676, 673, 672, 674, 674, 674, 674, 676, 673, 673, 672, 674, 675, 676, 679, 674, 680, 674, 677, 675, 676, 676, 676, 674, 674, 672, 673, 676, 676, 677, 672, 674, 678, 676, 674, 674, 676, 674, 675, 674, 672, 673, 675, 675, 676, 674, 673, 672, 676, 679, 679, 676, 677, 671, 674, 672, 677, 677, 675, 673, 673, 672, 676, 675, 674, 673, 674, 673, 670, 671, 675, 675, 673, 676, 673, 672, 671, 675, 674, 676, 673, 672, 669, 671, 674, 675, 673, 672, 669, 674, 669, 674, 674, 669, 674, 670, 671, 674, 671, 670, 672, 672, 670, 673, 672, 673, 673, 674, 669, 675, 669, 669, 674, 676, 678, 670],
      "WindowCenter": [464.0, 464.0, 464.0, 465.0, 465.0, 464.0, 464.0, 464.0, 464.0, 464.0, 464.0, 464.0, 464.0, 464.0, 464.0, 464.0, 464.0, 464.0, 464.0, 464.0, 464.0, 464.0, 464.0, 464.0, 464.0, 464.0, 464.0, 464.0, 464.0, 464.0, 464.0, 464.0, 464.0, 464.0, 464.0, 464.0, 464.0, 464.0, 464.0, 464.0, 464.0, 464.0, 464.0, 464.0, 464.0, 464.0, 464.0, 464.0, 464.0, 464.0, 464.0, 464.0, 464.0, 464.0, 464.0, 464.0, 464.0, 464.0, 464.0, 464.0, 464.0, 464.0, 464.0, 464.0, 464.0, 464.0, 464.0, 464.0, 464.0, 464.0, 464.0, 464.0, 464.0, 464.0, 464.0, 464.0, 464.0, 464.0, 464.0, 464.0, 464.0, 464.0, 464.0, 464.0, 464.0, 464.0, 464.0, 464.0, 464.0, 464.0, 464.0, 464.0, 464.0, 464.0, 464.0, 464.0, 464.0, 464.0, 464.0, 464.0, 464.0, 464.0, 464.0, 464.0, 464.0, 464.0, 464.0, 464.0, 464.0, 464.0, 464.0, 464.0, 464.0, 464.0, 464.0, 464.0, 464.0, 464.0, 464.0, 464.0, 464.0, 464.0, 464.0, 464.0, 464.0, 464.0, 464.0, 464.0, 464.0, 464.0, 464.0, 464.0, 464.0, 464.0, 464.0, 464.0, 464.0, 464.0, 464.0, 463.0, 464.0, 464.0, 463.0, 464.0, 463.0, 463.0, 463.0, 464.0, 464.0, 463.0, 463.0, 463.0, 463.0, 463.0, 464.0, 463.0, 463.0, 463.0, 463.0, 463.0, 464.0, 464.0, 463.0, 463.0, 463.0, 463.0, 462.0, 463.0, 463.0, 464.0, 463.0, 463.0, 462.0, 463.0, 462.0, 463.0, 463.0, 462.0, 463.0, 463.0, 463.0, 463.0, 463.0, 464.0, 463.0, 463.0, 463.0, 463.0, 463.0, 463.0, 463.0, 463.0, 462.0, 463.0, 462.0, 462.0, 463.0, 463.0, 463.0, 463.0],
      "WindowWidth": [964.0, 964.0, 964.0, 964.0, 964.0, 964.0, 964.0, 964.0, 964.0, 964.0, 964.0, 964.0, 964.0, 964.0, 963.0, 963.0, 964.0, 964.0, 964.0, 964.0, 964.0, 963.0, 963.0, 964.0, 964.0, 964.0, 964.0, 963.0, 964.0, 964.0, 964.0, 963.0, 964.0, 964.0, 964.0, 963.0, 963.0, 963.0, 963.0, 964.0, 964.0, 963.0, 964.0, 963.0, 963.0, 963.0, 964.0, 964.0, 964.0, 963.0, 963.0, 963.0, 963.0, 964.0, 963.0, 963.0, 963.0, 963.0, 963.0, 963.0, 963.0, 963.0, 963.0, 963.0, 963.0, 963.0, 963.0, 963.0, 963.0, 963.0, 963.0, 963.0, 963.0, 963.0, 963.0, 963.0, 963.0, 963.0, 962.0, 962.0, 963.0, 963.0, 963.0, 963.0, 963.0, 962.0, 962.0, 962.0, 963.0, 963.0, 963.0, 963.0, 962.0, 962.0, 962.0, 962.0, 963.0, 963.0, 963.0, 962.0, 962.0, 962.0, 962.0, 963.0, 963.0, 962.0, 962.0, 962.0, 962.0, 962.0, 962.0, 963.0, 962.0, 962.0, 962.0, 962.0, 962.0, 962.0, 962.0, 962.0, 962.0, 962.0, 962.0, 962.0, 962.0, 962.0, 962.0, 962.0, 962.0, 962.0, 962.0, 962.0, 962.0, 962.0, 962.0, 962.0, 962.0, 962.0, 962.0, 962.0, 962.0, 962.0, 961.0, 962.0, 961.0, 961.0, 962.0, 962.0, 962.0, 961.0, 961.0, 961.0, 961.0, 961.0, 962.0, 961.0, 961.0, 961.0, 961.0, 961.0, 962.0, 962.0, 961.0, 961.0, 961.0, 961.0, 960.0, 961.0, 961.0, 962.0, 961.0, 961.0, 960.0, 961.0, 960.0, 961.0, 961.0, 960.0, 961.0, 961.0, 961.0, 961.0, 961.0, 962.0, 961.0, 961.0, 961.0, 961.0, 961.0, 961.0, 961.0, 961.0, 960.0, 961.0, 960.0, 960.0, 961.0, 961.0, 961.0, 962.0]
    },
    "slices": {}
  }
}