{
  "AcquisitionMatrixPE": 80,
  "AcquisitionNumber": 1,
  "AcquisitionTime": "09:12:27.497500",
  "BandwidthPerPixelPhaseEncode": 25,
  "BaseResolution": 80,
  "BodyPartExamined": "BRAIN",
  "CoilCombinationMethod": "Sum of Squares",
  "ConsistencyInfo": "N4_VE11E_LATEST_20181129",
  "ConversionSoftware": "dcm2niix",
  "ConversionSoftwareVersion": "v1.0.20220720",
  "DerivedVendorReportedEchoSpacing": 0.0005,
  "DeviceSerialNumber": "66112",
  "DwellTime": 2.7e-06,
  "EchoTime": 0.03,
  "EchoTrainLength": 80,
  "EffectiveEchoSpacing": 0.0005,
  "FlipAngle": 10,
  "HeudiconvVersion": "0.13.1",
  "ImageOrientationPatientDICOM": [0.984903, 0.173018, 0.00556985, -0.1657, 0.932959, 0.319579],
  "ImageOrientationText": "Tra>Cor(18.4)>Sag(-2.9)",
  "ImageType": [
    "ORIGINAL",
    "PRIMARY",
    "M",
    "ND",
    "NORM",
    "MOSAIC"
],
  "ImagingFrequency": 123.252,
  "InPlanePhaseEncodingDirectionDICOM": "COL",
  "InstitutionAddress": "Maynard 3,Hanover,NH,US,03755",
  "InstitutionName": "Dartmouth College - PBS",
  "InstitutionalDepartmentName": "Department",
  "MRAcquisitionType": "2D",
  "MagneticFieldStrength": 3,
  "Manufacturer": "Siemens",
  "ManufacturersModelName": "Prisma",
  "MatrixCoilMode": "SENSE",
  "Modality": "MR",
  "NonlinearGradientCorrection": false,
  "PartialFourier": 1,
  "PatientPosition": "HFS",
  "PercentPhaseFOV": 100,
  "PercentSampling": 100,
  "PhaseEncodingDirection": "j-",
  "PhaseEncodingSteps": 80,
  "PhaseResolution": 1,
  "PixelBandwidth": 2315,
  "ProcedureStepDescription": "dbic^QA",
  "ProtocolName": "func-bold_fa-10",
  "PulseSequenceDetails": "%SiemensSeq%\\ep2d_bold",
  "ReceiveCoilActiveElements": "HC1-7;NC1,2",
  "ReceiveCoilName": "HeadNeck_64",
  "ReconMatrixPE": 80,
  "RepetitionTime": 2,
  "SAR": 0.00757252,
  "ScanOptions": "FS",
  "ScanningSequence": "EP",
  "SequenceName": "*epfid2d1_80",
  "SequenceVariant": "SK",
  "SeriesDescription": "func-bold_fa-10",
  "SeriesNumber": 9,
  "ShimSetting": [4143, -7702, -7509, 165, -75, -307, -30, 75],
  "SliceThickness": 3.5,
  "SliceTiming": [0.99, 0, 1.0575, 0.0675, 1.1225, 0.1325, 1.1875, 0.1975, 1.255, 0.265, 1.32, 0.33, 1.385, 0.3975, 1.4525, 0.4625, 1.5175, 0.5275, 1.585, 0.595, 1.65, 0.66, 1.715, 0.7275, 1.7825, 0.7925, 1.8475, 0.8575, 1.915, 0.925],
  "SoftwareVersions": "syngo MR E11",
  "SpacingBetweenSlices": 3.99,
  "StationName": "AWP66112",
  "TotalReadoutTime": 0.0395,
  "TxRefAmp": 211.373,
  "dcmmeta_affine": [
    [-2.9547088146209717, -0.497099906206131, -0.1998848170042038, 140.09262084960938],
    [-0.5190529823303223, 2.798877000808716, 1.2595539093017578, -91.67571258544922],
    [0.01670956052839756, -0.958738386631012, 3.7806971073150635, -20.709848403930664],
    [0.0, 0.0, 0.0, 1.0]
],
  "dcmmeta_reorient_transform": [
    [0.0, -1.0, 0.0, 79.0],
    [1.0, 0.0, 0.0, 0.0],
    [0.0, 0.0, 1.0, 0.0],
    [0.0, 0.0, 0.0, 1.0]
],
  "dcmmeta_shape": [80, 80, 30, 200],
  "dcmmeta_slice_dim": 2,
  "dcmmeta_version": 0.6,
  "global": {
    "const": {
      "AccessionNumber": "qa64",
      "AcquisitionMatrix": [80, 0, 0, 80],
      "AngioFlag": "N",
      "BitsAllocated": 16,
      "BitsStored": 12,
      "BodyPartExamined": "BRAIN",
      "Columns": 480,
      "EchoNumbers": 1,
      "EchoTime": 30.0,
      "EchoTrainLength": 80,
      "FlipAngle": 10.0,
      "HighBit": 11,
      "ImageOrientationPatient": [0.98490297251452, 0.17301766229093, 0.00556985344913, -0.1656999721743, 0.9329589952564, 0.31957946178004],
      "ImagePositionPatient": [-592.3435218859, -793.02156601747, -291.53976938566],
      "ImageType": [
        "ORIGINAL",
        "PRIMARY",
        "M",
        "ND",
        "NORM",
        "MOSAIC"
],
      "ImagedNucleus": "1H",
      "ImagingFrequency": 123.252359,
      "InPlanePhaseEncodingDirection": "COL",
      "MRAcquisitionType": "2D",
      "MagneticFieldStrength": 3.0,
      "Manufacturer": "SIEMENS",
      "ManufacturerModelName": "Prisma",
      "Modality": "MR",
      "NumberOfAverages": 1.0,
      "NumberOfPhaseEncodingSteps": 80,
      "PercentPhaseFieldOfView": 100.0,
      "PercentSampling": 100.0,
      "PerformedProcedureStepStartTime": "085721.060000",
      "PhotometricInterpretation": "MONOCHROME2",
      "PixelBandwidth": 2315.0,
      "PixelRepresentation": 0,
      "PixelSpacing": [3.0, 3.0],
      "ProtocolName": "func-bold_fa-10",
      "RepetitionTime": 2000.0,
      "Rows": 480,
      "SAR": 0.00757252126742,
      "SamplesPerPixel": 1,
      "ScanOptions": "FS",
      "ScanningSequence": "EP",
      "SequenceName": "*epfid2d1_80",
      "SequenceVariant": "SK",
      "SeriesDescription": "func-bold_fa-10",
      "SeriesNumber": 9,
      "SeriesTime": "091323.627000",
      "SliceLocation": -55.581591942465,
      "SliceThickness": 3.5,
      "SmallestImagePixelValue": 0,
      "SoftwareVersions": "syngo MR E11",
      "SpacingBetweenSlices": 3.9899999922594,
      "SpecificCharacterSet": "ISO_IR 100",
      "StudyID": "3",
      "StudyTime": "085720.991000",
      "TransmitCoilName": "Body",
      "VariableFlipAngleFlag": "N",
      "WindowCenterWidthExplanation": "Algo1"
    },
    "slices": {}
  },
  "time": {
    "samples": {
      "AcquisitionNumber": [1, 2, 3, 4, 5, 6, 7, 8, 9, 10, 11, 12, 13, 14, 15, 16, 17, 18, 19, 20, 21, 22, 23, 24, 25, 26, 27, 28, 29, 30, 31, 32, 33, 34, 35, 36, 37, 38, 39, 40, 41, 42, 43, 44, 45, 46, 47, 48, 49, 50, 51, 52, 53, 54, 55, 56, 57, 58, 59, 60, 61, 62, 63, 64, 65, 66, 67, 68, 69, 70, 71, 72, 73, 74, 75, 76, 77, 78, 79, 80, 81, 82, 83, 84, 85, 86, 87, 88, 89, 90, 91, 92, 93, 94, 95, 96, 97, 98, 99, 100, 101, 102, 103, 104, 105, 106, 107, 108, 109, 110, 111, 112, 113, 114, 115, 116, 117, 118, 119, 120, 121, 122, 123, 124, 125, 126, 127, 128, 129, 130, 131, 132, 133, 134, 135, 136, 137, 138, 139, 140, 141, 142, 143, 144, 145, 146, 147, 148, 149, 150, 151, 152, 153, 154, 155, 156, 157, 158, 159, 160, 161, 162, 163, 164, 165, 166, 167, 168, 169, 170, 171, 172, 173, 174, 175, 176, 177, 178, 179, 180, 181, 182, 183, 184, 185, 186, 187, 188, 189, 190, 191, 192, 193, 194, 195, 196, 197, 198, 199, 200],
      "AcquisitionTime": ["091227.497500", "091229.497500", "091231.497500", "091233.497500", "091235.497500", "091237.497500", "091239.497500", "091241.497500", "091243.497500", "091245.497500", "091247.497500", "091249.497500", "091251.497500", "091253.497500", "091255.497500", "091257.497500", "091259.497500", "091301.497500", "091303.497500", "091305.497500", "091307.497500", "091309.497500", "091311.497500", "091313.497500", "091315.497500", "091317.497500", "091319.497500", "091321.497500", "091323.497500", "091325.497500", "091327.497500", "091329.497500", "091331.497500", "091333.497500", "091335.497500", "091337.497500", "091339.497500", "091341.497500", "091343.497500", "091345.497500", "091347.497500", "091349.497500", "091351.497500", "091353.497500", "091355.497500", "091357.497500", "091359.497500", "091401.497500", "091403.497500", "091405.497500", "091407.497500", "091409.497500", "091411.497500", "091413.497500", "091415.497500", "091417.497500", "091419.497500", "091421.497500", "091423.497500", "091425.497500", "091427.497500", "091429.497500", "091431.497500", "091433.497500", "091435.497500", "091437.497500", "091439.497500", "091441.497500", "091443.497500", "091445.497500", "091447.497500", "091449.497500", "091451.497500", "091453.497500", "091455.497500", "091457.497500", "091459.497500", "091501.497500", "091503.497500", "091505.497500", "091507.497500", "091509.497500", "091511.497500", "091513.497500", "091515.497500", "091517.497500", "091519.497500", "091521.497500", "091523.497500", "091525.497500", "091527.497500", "091529.497500", "091531.497500", "091533.497500", "091535.497500", "091537.497500", "091539.497500", "091541.497500", "091543.497500", "091545.497500", "091547.497500", "091549.497500", "091551.497500", "091553.497500", "091555.497500", "091557.497500", "091559.497500", "091601.497500", "091603.497500", "091605.497500", "091607.497500", "091609.497500", "091611.497500", "091613.497500", "091615.497500", "091617.497500", "091619.497500", "091621.497500", "091623.497500", "091625.497500", "091627.497500", "091629.497500", "091631.497500", "091633.497500", "091635.497500", "091637.497500", "091639.497500", "091641.497500", "091643.497500", "091645.497500", "091647.497500", "091649.497500", "091651.497500", "091653.497500", "091655.497500", "091657.497500", "091659.497500", "091701.497500", "091703.497500", "091705.497500", "091707.497500", "091709.497500", "091711.497500", "091713.497500", "091715.497500", "091717.497500", "091719.497500", "091721.497500", "091723.497500", "091725.497500", "091727.497500", "091729.497500", "091731.497500", "091733.497500", "091735.497500", "091737.497500", "091739.497500", "091741.497500", "091743.497500", "091745.497500", "091747.497500", "091749.497500", "091751.497500", "091753.497500", "091755.497500", "091757.497500", "091759.497500", "091801.497500", "091803.497500", "091805.497500", "091807.497500", "091809.497500", "091811.497500", "091813.497500", "091815.497500", "091817.497500", "091819.497500", "091821.497500", "091823.497500", "091825.497500", "091827.497500", "091829.497500", "091831.497500", "091833.497500", "091835.497500", "091837.497500", "091839.497500", "091841.497500", "091843.497500", "091845.497500", "091847.497500", "091849.497500", "091851.497500", "091853.497500", "091855.497500", "091857.497500", "091859.497500", "091901.497500", "091903.497500", "091905.497500"],
      "ContentTime": ["091323.630000", "091323.633000", "091323.635000", "091323.638000", "091323.640000", "091323.642000", "091323.645000", "091323.647000", "091323.649000", "091323.652000", "091323.654000", "091323.656000", "091323.659000", "091323.661000", "091323.663000", "091323.665000", "091323.668000", "091323.670000", "091323.673000", "091323.675000", "091323.677000", "091323.680000", "091323.682000", "091323.684000", "091323.710000", "091323.712000", "091323.714000", "091323.717000", "091343.625000", "091343.628000", "091343.630000", "091343.633000", "091343.643000", "091343.645000", "091343.647000", "091343.650000", "091343.652000", "091343.654000", "091423.625000", "091423.628000", "091423.630000", "091423.632000", "091423.635000", "091423.637000", "091423.639000", "091423.642000", "091423.644000", "091423.646000", "091423.649000", "091423.651000", "091423.653000", "091423.656000", "091423.658000", "091423.660000", "091423.662000", "091423.665000", "091423.667000", "091423.669000", "091503.625000", "091503.628000", "091503.630000", "091503.632000", "091503.635000", "091503.637000", "091503.639000", "091503.642000", "091503.644000", "091503.646000", "091503.649000", "091503.651000", "091503.653000", "091503.656000", "091503.658000", "091503.660000", "091503.675000", "091503.677000", "091503.680000", "091503.682000", "091543.625000", "091543.628000", "091543.630000", "091543.633000", "091543.635000", "091543.637000", "091543.640000", "091543.642000", "091543.644000", "091543.646000", "091543.649000", "091543.651000", "091543.654000", "091543.656000", "091543.658000", "091543.661000", "091543.663000", "091543.665000", "091543.667000", "091543.670000", "091623.625000", "091623.628000", "091623.630000", "091623.632000", "091623.635000", "091623.637000", "091623.639000", "091623.642000", "091623.644000", "091623.646000", "091623.649000", "091623.651000", "091623.653000", "091623.656000", "091623.658000", "091623.660000", "091623.662000", "091623.665000", "091623.667000", "091623.669000", "091703.625000", "091703.628000", "091703.630000", "091703.632000", "091703.635000", "091703.637000", "091703.639000", "091703.642000", "091703.644000", "091703.646000", "091703.649000", "091703.658000", "091703.661000", "091703.663000", "091703.665000", "091703.668000", "091703.670000", "091703.672000", "091703.675000", "091703.677000", "091743.625000", "091743.628000", "091743.630000", "091743.632000", "091743.635000", "091743.637000", "091743.639000", "091743.642000", "091743.644000", "091743.646000", "091743.649000", "091743.651000", "091743.653000", "091743.656000", "091743.658000", "091743.660000", "091743.663000", "091743.665000", "091743.667000", "091743.670000", "091823.625000", "091823.628000", "091823.630000", "091823.633000", "091823.635000", "091823.637000", "091823.640000", "091823.642000", "091823.644000", "091823.647000", "091823.649000", "091823.651000", "091823.653000", "091823.656000", "091823.658000", "091823.660000", "091823.663000", "091823.665000", "091823.668000", "091823.670000", "091903.625000", "091903.628000", "091903.630000", "091903.633000", "091903.635000", "091903.637000", "091903.639000", "091903.642000", "091903.644000", "091903.646000", "091903.649000", "091903.651000", "091903.653000", "091903.656000", "091903.658000", "091903.660000", "091903.663000", "091903.665000", "091903.667000", "091903.670000", "091907.093000", "091907.095000"],
      "InstanceCreationTime": ["091323.630000", "091323.633000", "091323.635000", "091323.638000", "091323.640000", "091323.642000", "091323.645000", "091323.647000", "091323.649000", "091323.652000", "091323.654000", "091323.656000", "091323.659000", "091323.661000", "091323.663000", "091323.665000", "091323.668000", "091323.670000", "091323.673000", "091323.675000", "091323.677000", "091323.680000", "091323.682000", "091323.684000", "091323.710000", "091323.712000", "091323.714000", "091323.717000", "091343.625000", "091343.628000", "091343.630000", "091343.633000", "091343.643000", "091343.645000", "091343.647000", "091343.650000", "091343.652000", "091343.654000", "091423.625000", "091423.628000", "091423.630000", "091423.632000", "091423.635000", "091423.637000", "091423.639000", "091423.642000", "091423.644000", "091423.646000", "091423.649000", "091423.651000", "091423.653000", "091423.656000", "091423.658000", "091423.660000", "091423.662000", "091423.665000", "091423.667000", "091423.669000", "091503.625000", "091503.628000", "091503.630000", "091503.632000", "091503.635000", "091503.637000", "091503.639000", "091503.642000", "091503.644000", "091503.646000", "091503.649000", "091503.651000", "091503.653000", "091503.656000", "091503.658000", "091503.660000", "091503.675000", "091503.677000", "091503.680000", "091503.682000", "091543.625000", "091543.628000", "091543.630000", "091543.633000", "091543.635000", "091543.637000", "091543.640000", "091543.642000", "091543.644000", "091543.646000", "091543.649000", "091543.651000", "091543.654000", "091543.656000", "091543.658000", "091543.661000", "091543.663000", "091543.665000", "091543.667000", "091543.670000", "091623.625000", "091623.628000", "091623.630000", "091623.632000", "091623.635000", "091623.637000", "091623.639000", "091623.642000", "091623.644000", "091623.646000", "091623.649000", "091623.651000", "091623.653000", "091623.656000", "091623.658000", "091623.660000", "091623.662000", "091623.665000", "091623.667000", "091623.669000", "091703.625000", "091703.628000", "091703.630000", "091703.632000", "091703.635000", "091703.637000", "091703.639000", "091703.642000", "091703.644000", "091703.646000", "091703.649000", "091703.658000", "091703.661000", "091703.663000", "091703.665000", "091703.668000", "091703.670000", "091703.672000", "091703.675000", "091703.677000", "091743.625000", "091743.628000", "091743.630000", "091743.632000", "091743.635000", "091743.637000", "091743.639000", "091743.642000", "091743.644000", "091743.646000", "091743.649000", "091743.651000", "091743.653000", "091743.656000", "091743.658000", "091743.660000", "091743.663000", "091743.665000", "091743.667000", "091743.670000", "091823.625000", "091823.628000", "091823.630000", "091823.633000", "091823.635000", "091823.637000", "091823.640000", "091823.642000", "091823.644000", "091823.647000", "091823.649000", "091823.651000", "091823.653000", "091823.656000", "091823.658000", "091823.660000", "091823.663000", "091823.665000", "091823.668000", "091823.670000", "091903.625000", "091903.628000", "091903.630000", "091903.633000", "091903.635000", "091903.637000", "091903.639000", "091903.642000", "091903.644000", "091903.646000", "091903.649000", "091903.651000", "091903.653000", "091903.656000", "091903.658000", "091903.660000", "091903.663000", "091903.665000", "091903.667000", "091903.670000", "091907.093000", "091907.095000"],
      "InstanceNumber": [1, 2, 3, 4, 5, 6, 7, 8, 9, 10, 11, 12, 13, 14, 15, 16, 17, 18, 19, 20, 21, 22, 23, 24, 25, 26, 27, 28, 29, 30, 31, 32, 33, 34, 35, 36, 37, 38, 39, 40, 41, 42, 43, 44, 45, 46, 47, 48, 49, 50, 51, 52, 53, 54, 55, 56, 57, 58, 59, 60, 61, 62, 63, 64, 65, 66, 67, 68, 69, 70, 71, 72, 73, 74, 75, 76, 77, 78, 79, 80, 81, 82, 83, 84, 85, 86, 87, 88, 89, 90, 91, 92, 93, 94, 95, 96, 97, 98, 99, 100, 101, 102, 103, 104, 105, 106, 107, 108, 109, 110, 111, 112, 113, 114, 115, 116, 117, 118, 119, 120, 121, 122, 123, 124, 125, 126, 127, 128, 129, 130, 131, 132, 133, 134, 135, 136, 137, 138, 139, 140, 141, 142, 143, 144, 145, 146, 147, 148, 149, 150, 151, 152, 153, 154, 155, 156, 157, 158, 159, 160, 161, 162, 163, 164, 165, 166, 167, 168, 169, 170, 171, 172, 173, 174, 175, 176, 177, 178, 179, 180, 181, 182, 183, 184, 185, 186, 187, 188, 189, 190, 191, 192, 193, 194, 195, 196, 197, 198, 199, 200],
      "LargestImagePixelValue": [594, 598, 593, 595, 595, 594, 591, 593, 592, 593, 593, 594, 592, 593, 595, 596, 597, 594, 596, 593, 592, 595, 594, 599, 594, 597, 595, 597, 594, 593, 599, 598, 597, 599, 594, 590, 593, 598, 599, 596, 597, 595, 595, 601, 598, 595, 592, 598, 596, 603, 596, 599, 596, 597, 599, 598, 598, 596, 600, 595, 599, 595, 594, 593, 593, 594, 596, 599, 596, 595, 592, 598, 595, 594, 595, 595, 599, 597, 598, 590, 602, 594, 598, 597, 598, 599, 595, 602, 600, 601, 597, 599, 596, 602, 601, 600, 598, 594, 597, 596, 597, 592, 594, 596, 603, 594, 591, 593, 598, 599, 596, 595, 594, 594, 592, 597, 594, 594, 593, 593, 599, 602, 600, 598, 598, 598, 600, 598, 595, 599, 597, 598, 593, 596, 597, 595, 594, 599, 597, 594, 599, 593, 594, 592, 593, 597, 599, 596, 594, 596, 598, 600, 599, 598, 599, 598, 597, 599, 598, 597, 605, 600, 599, 601, 596, 597, 594, 595, 595, 592, 593, 598, 599, 595, 593, 598, 593, 595, 595, 596, 597, 601, 597, 592, 597, 595, 599, 599, 593, 596, 596, 601, 596, 599, 599, 599, 599, 595, 602, 600],
      "WindowCenter": [434.0, 434.0, 434.0, 434.0, 434.0, 434.0, 434.0, 434.0, 434.0, 434.0, 434.0, 434.0, 434.0, 434.0, 434.0, 434.0, 434.0, 434.0, 434.0, 434.0, 434.0, 434.0, 434.0, 434.0, 434.0, 434.0, 434.0, 434.0, 434.0, 434.0, 434.0, 434.0, 434.0, 434.0, 434.0, 434.0, 434.0, 434.0, 434.0, 434.0, 434.0, 434.0, 434.0, 434.0, 434.0, 434.0, 434.0, 434.0, 434.0, 434.0, 434.0, 434.0, 434.0, 434.0, 434.0, 434.0, 434.0, 434.0, 434.0, 434.0, 434.0, 434.0, 434.0, 434.0, 434.0, 434.0, 434.0, 434.0, 434.0, 434.0, 434.0, 434.0, 434.0, 434.0, 434.0, 434.0, 434.0, 433.0, 434.0, 433.0, 434.0, 433.0, 434.0, 434.0, 434.0, 434.0, 433.0, 434.0, 433.0, 434.0, 433.0, 434.0, 434.0, 434.0, 434.0, 434.0, 434.0, 433.0, 434.0, 433.0, 434.0, 433.0, 434.0, 433.0, 433.0, 433.0, 433.0, 434.0, 433.0, 434.0, 433.0, 434.0, 433.0, 433.0, 433.0, 433.0, 433.0, 433.0, 433.0, 433.0, 434.0, 433.0, 433.0, 433.0, 433.0, 433.0, 433.0, 433.0, 433.0, 433.0, 433.0, 434.0, 433.0, 434.0, 433.0, 433.0, 433.0, 433.0, 433.0, 433.0, 433.0, 433.0, 433.0, 433.0, 433.0, 433.0, 433.0, 433.0, 433.0, 433.0, 433.0, 433.0, 433.0, 433.0, 433.0, 433.0, 433.0, 433.0, 433.0, 433.0, 433.0, 433.0, 433.0, 433.0, 433.0, 433.0, 433.0, 433.0, 433.0, 433.0, 433.0, 433.0, 433.0, 433.0, 433.0, 433.0, 433.0, 433.0, 433.0, 433.0, 433.0, 433.0, 433.0, 433.0, 433.0, 433.0, 433.0, 433.0, 433.0, 433.0, 433.0, 433.0, 433.0, 433.0, 433.0, 433.0, 433.0, 433.0, 433.0, 433.0],
      "WindowWidth": [905.0, 906.0, 905.0, 906.0, 906.0, 906.0, 905.0, 905.0, 905.0, 906.0, 906.0, 905.0, 905.0, 905.0, 906.0, 905.0, 906.0, 905.0, 906.0, 905.0, 906.0, 906.0, 905.0, 906.0, 905.0, 906.0, 905.0, 906.0, 905.0, 905.0, 905.0, 906.0, 905.0, 905.0, 905.0, 905.0, 905.0, 905.0, 906.0, 905.0, 905.0, 905.0, 905.0, 906.0, 905.0, 905.0, 905.0, 905.0, 905.0, 905.0, 905.0, 905.0, 905.0, 905.0, 905.0, 905.0, 906.0, 905.0, 905.0, 905.0, 905.0, 905.0, 905.0, 905.0, 905.0, 905.0, 905.0, 905.0, 905.0, 905.0, 905.0, 905.0, 905.0, 905.0, 905.0, 905.0, 905.0, 904.0, 905.0, 904.0, 905.0, 904.0, 905.0, 905.0, 905.0, 905.0, 904.0, 905.0, 904.0, 905.0, 904.0, 905.0, 905.0, 905.0, 905.0, 905.0, 905.0, 904.0, 905.0, 904.0, 905.0, 904.0, 905.0, 904.0, 904.0, 904.0, 904.0, 905.0, 904.0, 905.0, 904.0, 905.0, 904.0, 904.0, 904.0, 904.0, 904.0, 904.0, 904.0, 904.0, 905.0, 903.0, 904.0, 904.0, 904.0, 904.0, 904.0, 905.0, 904.0, 904.0, 904.0, 905.0, 904.0, 905.0, 904.0, 904.0, 904.0, 904.0, 904.0, 904.0, 904.0, 903.0, 904.0, 903.0, 904.0, 904.0, 904.0, 904.0, 904.0, 904.0, 903.0, 904.0, 903.0, 904.0, 903.0, 904.0, 903.0, 904.0, 904.0, 904.0, 904.0, 903.0, 904.0, 903.0, 904.0, 903.0, 904.0, 903.0, 903.0, 904.0, 903.0, 904.0, 903.0, 904.0, 903.0, 904.0, 903.0, 903.0, 904.0, 903.0, 903.0, 903.0, 904.0, 903.0, 904.0, 903.0, 903.0, 903.0, 903.0, 903.0, 903.0, 903.0, 903.0, 904.0, 903.0, 904.0, 903.0, 903.0, 903.0, 903.0]
    },
    "slices": {}
  }
}