{
  "AcquisitionMatrixPE": 80,
  "AcquisitionNumber": 1,
  "AcquisitionTime": "09:05:41.492500",
  "BandwidthPerPixelPhaseEncode": 25,
  "BaseResolution": 80,
  "BodyPartExamined": "BRAIN",
  "CoilCombinationMethod": "Sum of Squares",
  "ConsistencyInfo": "N4_VE11E_LATEST_20181129",
  "ConversionSoftware": "dcm2niix",
  "ConversionSoftwareVersion": "v1.0.20220720",
  "DerivedVendorReportedEchoSpacing": 0.0005,
  "DeviceSerialNumber": "66112",
  "DwellTime": 2.7e-06,
  "EchoTime": 0.03,
  "EchoTrainLength": 80,
  "EffectiveEchoSpacing": 0.0005,
  "FlipAngle": 77,
  "HeudiconvVersion": "0.13.1",
  "ImageOrientationPatientDICOM": [0.984903, 0.173018, 0.00556985, -0.1657, 0.932959, 0.319579],
  "ImageOrientationText": "Tra>Cor(18.4)>Sag(-2.9)",
  "ImageType": [
    "ORIGINAL",
    "PRIMARY",
    "M",
    "ND",
    "NORM",
    "MOSAIC"
],
  "ImagingFrequency": 123.252,
  "InPlanePhaseEncodingDirectionDICOM": "COL",
  "InstitutionAddress": "Maynard 3,Hanover,NH,US,03755",
  "InstitutionName": "Dartmouth College - PBS",
  "InstitutionalDepartmentName": "Department",
  "MRAcquisitionType": "2D",
  "MagneticFieldStrength": 3,
  "Manufacturer": "Siemens",
  "ManufacturersModelName": "Prisma",
  "MatrixCoilMode": "SENSE",
  "Modality": "MR",
  "NonlinearGradientCorrection": false,
  "PartialFourier": 1,
  "PatientPosition": "HFS",
  "PercentPhaseFOV": 100,
  "PercentSampling": 100,
  "PhaseEncodingDirection": "j-",
  "PhaseEncodingSteps": 80,
  "PhaseResolution": 1,
  "PixelBandwidth": 2315,
  "ProcedureStepDescription": "dbic^QA",
  "ProtocolName": "func-bold_fa-77",
  "PulseSequenceDetails": "%SiemensSeq%\\ep2d_bold",
  "ReceiveCoilActiveElements": "HC1-7;NC1,2",
  "ReceiveCoilName": "HeadNeck_64",
  "ReconMatrixPE": 80,
  "RepetitionTime": 2,
  "SAR": 0.0282294,
  "ScanOptions": "FS",
  "ScanningSequence": "EP",
  "SequenceName": "*epfid2d1_80",
  "SequenceVariant": "SK",
  "SeriesDescription": "func-bold_fa-77",
  "SeriesNumber": 7,
  "ShimSetting": [4143, -7702, -7509, 165, -75, -307, -30, 75],
  "SliceThickness": 3.5,
  "SliceTiming": [0.99, 0, 1.055, 0.065, 1.1225, 0.1325, 1.1875, 0.1975, 1.2525, 0.2625, 1.32, 0.33, 1.385, 0.395, 1.4525, 0.4625, 1.5175, 0.5275, 1.5825, 0.5925, 1.65, 0.66, 1.715, 0.725, 1.7825, 0.7925, 1.8475, 0.8575, 1.9125, 0.9225],
  "SoftwareVersions": "syngo MR E11",
  "SpacingBetweenSlices": 3.99,
  "StationName": "AWP66112",
  "TotalReadoutTime": 0.0395,
  "TxRefAmp": 211.373,
  "dcmmeta_affine": [
    [-2.9547088146209717, -0.497099906206131, -0.1998848170042038, 140.09262084960938],
    [-0.5190529823303223, 2.798877000808716, 1.2595539093017578, -91.67571258544922],
    [0.01670956052839756, -0.958738386631012, 3.7806971073150635, -20.709848403930664],
    [0.0, 0.0, 0.0, 1.0]
],
  "dcmmeta_reorient_transform": [
    [0.0, -1.0, 0.0, 79.0],
    [1.0, 0.0, 0.0, 0.0],
    [0.0, 0.0, 1.0, 0.0],
    [0.0, 0.0, 0.0, 1.0]
],
  "dcmmeta_shape": [80, 80, 30, 200],
  "dcmmeta_slice_dim": 2,
  "dcmmeta_version": 0.6,
  "global": {
    "const": {
      "AccessionNumber": "qa64",
      "AcquisitionMatrix": [80, 0, 0, 80],
      "AngioFlag": "N",
      "BitsAllocated": 16,
      "BitsStored": 12,
      "BodyPartExamined": "BRAIN",
      "Columns": 480,
      "EchoNumbers": 1,
      "EchoTime": 30.0,
      "EchoTrainLength": 80,
      "FlipAngle": 77.0,
      "HighBit": 11,
      "ImageOrientationPatient": [0.98490297251452, 0.17301766229093, 0.00556985344913, -0.1656999721743, 0.9329589952564, 0.31957946178004],
      "ImagePositionPatient": [-592.3435218859, -793.02156601747, -291.53976938566],
      "ImageType": [
        "ORIGINAL",
        "PRIMARY",
        "M",
        "ND",
        "NORM",
        "MOSAIC"
],
      "ImagedNucleus": "1H",
      "ImagingFrequency": 123.252358,
      "InPlanePhaseEncodingDirection": "COL",
      "MRAcquisitionType": "2D",
      "MagneticFieldStrength": 3.0,
      "Manufacturer": "SIEMENS",
      "ManufacturerModelName": "Prisma",
      "Modality": "MR",
      "NumberOfAverages": 1.0,
      "NumberOfPhaseEncodingSteps": 80,
      "PercentPhaseFieldOfView": 100.0,
      "PercentSampling": 100.0,
      "PerformedProcedureStepStartTime": "085721.060000",
      "PhotometricInterpretation": "MONOCHROME2",
      "PixelBandwidth": 2315.0,
      "PixelRepresentation": 0,
      "PixelSpacing": [3.0, 3.0],
      "ProtocolName": "func-bold_fa-77",
      "RepetitionTime": 2000.0,
      "Rows": 480,
      "SAR": 0.02822943842844,
      "SamplesPerPixel": 1,
      "ScanOptions": "FS",
      "ScanningSequence": "EP",
      "SequenceName": "*epfid2d1_80",
      "SequenceVariant": "SK",
      "SeriesDescription": "func-bold_fa-77",
      "SeriesNumber": 7,
      "SeriesTime": "090623.840000",
      "SliceLocation": -55.581591942465,
      "SliceThickness": 3.5,
      "SmallestImagePixelValue": 0,
      "SoftwareVersions": "syngo MR E11",
      "SpacingBetweenSlices": 3.9899999922594,
      "SpecificCharacterSet": "ISO_IR 100",
      "StudyID": "3",
      "StudyTime": "085720.991000",
      "TransmitCoilName": "Body",
      "VariableFlipAngleFlag": "N",
      "WindowCenterWidthExplanation": "Algo1"
    },
    "slices": {}
  },
  "time": {
    "samples": {
      "AcquisitionNumber": [1, 2, 3, 4, 5, 6, 7, 8, 9, 10, 11, 12, 13, 14, 15, 16, 17, 18, 19, 20, 21, 22, 23, 24, 25, 26, 27, 28, 29, 30, 31, 32, 33, 34, 35, 36, 37, 38, 39, 40, 41, 42, 43, 44, 45, 46, 47, 48, 49, 50, 51, 52, 53, 54, 55, 56, 57, 58, 59, 60, 61, 62, 63, 64, 65, 66, 67, 68, 69, 70, 71, 72, 73, 74, 75, 76, 77, 78, 79, 80, 81, 82, 83, 84, 85, 86, 87, 88, 89, 90, 91, 92, 93, 94, 95, 96, 97, 98, 99, 100, 101, 102, 103, 104, 105, 106, 107, 108, 109, 110, 111, 112, 113, 114, 115, 116, 117, 118, 119, 120, 121, 122, 123, 124, 125, 126, 127, 128, 129, 130, 131, 132, 133, 134, 135, 136, 137, 138, 139, 140, 141, 142, 143, 144, 145, 146, 147, 148, 149, 150, 151, 152, 153, 154, 155, 156, 157, 158, 159, 160, 161, 162, 163, 164, 165, 166, 167, 168, 169, 170, 171, 172, 173, 174, 175, 176, 177, 178, 179, 180, 181, 182, 183, 184, 185, 186, 187, 188, 189, 190, 191, 192, 193, 194, 195, 196, 197, 198, 199, 200],
      "AcquisitionTime": ["090541.492500", "090543.492500", "090545.492500", "090547.492500", "090549.492500", "090551.492500", "090553.492500", "090555.492500", "090557.492500", "090559.492500", "090601.492500", "090603.492500", "090605.492500", "090607.492500", "090609.492500", "090611.492500", "090613.492500", "090615.492500", "090617.492500", "090619.492500", "090621.492500", "090623.492500", "090625.492500", "090627.492500", "090629.492500", "090631.492500", "090633.492500", "090635.492500", "090637.492500", "090639.492500", "090641.492500", "090643.492500", "090645.492500", "090647.492500", "090649.492500", "090651.492500", "090653.492500", "090655.492500", "090657.492500", "090659.492500", "090701.492500", "090703.492500", "090705.492500", "090707.492500", "090709.492500", "090711.492500", "090713.492500", "090715.492500", "090717.492500", "090719.492500", "090721.492500", "090723.492500", "090725.492500", "090727.492500", "090729.492500", "090731.492500", "090733.492500", "090735.492500", "090737.492500", "090739.492500", "090741.492500", "090743.492500", "090745.492500", "090747.492500", "090749.492500", "090751.492500", "090753.492500", "090755.492500", "090757.492500", "090759.492500", "090801.492500", "090803.492500", "090805.492500", "090807.492500", "090809.492500", "090811.492500", "090813.492500", "090815.492500", "090817.492500", "090819.492500", "090821.492500", "090823.492500", "090825.492500", "090827.492500", "090829.492500", "090831.492500", "090833.492500", "090835.492500", "090837.492500", "090839.492500", "090841.492500", "090843.492500", "090845.492500", "090847.492500", "090849.492500", "090851.492500", "090853.492500", "090855.492500", "090857.492500", "090859.492500", "090901.492500", "090903.492500", "090905.492500", "090907.492500", "090909.492500", "090911.492500", "090913.492500", "090915.492500", "090917.492500", "090919.492500", "090921.492500", "090923.492500", "090925.492500", "090927.492500", "090929.492500", "090931.492500", "090933.492500", "090935.492500", "090937.492500", "090939.492500", "090941.492500", "090943.492500", "090945.492500", "090947.492500", "090949.492500", "090951.492500", "090953.492500", "090955.492500", "090957.492500", "090959.492500", "091001.492500", "091003.492500", "091005.492500", "091007.492500", "091009.492500", "091011.492500", "091013.492500", "091015.492500", "091017.492500", "091019.492500", "091021.492500", "091023.492500", "091025.492500", "091027.492500", "091029.492500", "091031.492500", "091033.492500", "091035.492500", "091037.492500", "091039.492500", "091041.492500", "091043.492500", "091045.492500", "091047.492500", "091049.492500", "091051.492500", "091053.492500", "091055.492500", "091057.492500", "091059.492500", "091101.492500", "091103.492500", "091105.492500", "091107.492500", "091109.492500", "091111.492500", "091113.492500", "091115.492500", "091117.492500", "091119.492500", "091121.492500", "091123.492500", "091125.492500", "091127.492500", "091129.492500", "091131.492500", "091133.492500", "091135.492500", "091137.492500", "091139.492500", "091141.492500", "091143.492500", "091145.492500", "091147.492500", "091149.492500", "091151.492500", "091153.492500", "091155.492500", "091157.492500", "091159.492500", "091201.492500", "091203.492500", "091205.492500", "091207.492500", "091209.492500", "091211.492500", "091213.492500", "091215.492500", "091217.492500", "091219.492500"],
      "ContentTime": ["090623.844000", "090623.847000", "090623.849000", "090623.862000", "090623.865000", "090623.867000", "090623.869000", "090623.871000", "090623.874000", "090623.876000", "090623.879000", "090623.881000", "090623.883000", "090623.885000", "090623.895000", "090623.897000", "090623.899000", "090623.902000", "090623.904000", "090623.906000", "090623.909000", "090703.801000", "090703.804000", "090703.806000", "090703.808000", "090703.811000", "090703.813000", "090703.815000", "090703.818000", "090703.820000", "090703.822000", "090703.828000", "090703.830000", "090703.833000", "090703.835000", "090703.837000", "090703.840000", "090703.842000", "090703.844000", "090703.846000", "090703.849000", "090743.801000", "090743.804000", "090743.806000", "090743.808000", "090743.811000", "090743.813000", "090743.815000", "090743.818000", "090743.820000", "090743.822000", "090743.825000", "090743.827000", "090743.829000", "090743.832000", "090743.834000", "090743.836000", "090743.839000", "090743.841000", "090743.843000", "090743.846000", "090823.801000", "090823.804000", "090823.806000", "090823.809000", "090823.811000", "090823.813000", "090823.816000", "090823.818000", "090823.820000", "090823.823000", "090823.825000", "090823.827000", "090823.830000", "090823.832000", "090823.834000", "090823.837000", "090823.839000", "090823.841000", "090823.844000", "090823.846000", "090903.801000", "090903.804000", "090903.806000", "090903.808000", "090903.811000", "090903.813000", "090903.815000", "090903.818000", "090903.820000", "090903.822000", "090903.825000", "090903.827000", "090903.829000", "090903.832000", "090903.834000", "090903.836000", "090903.839000", "090903.841000", "090903.843000", "090903.846000", "090943.801000", "090943.804000", "090943.806000", "090943.808000", "090943.811000", "090943.813000", "090943.815000", "090943.818000", "090943.820000", "090943.822000", "090943.825000", "090943.827000", "090943.830000", "090943.832000", "090943.834000", "090943.837000", "090943.839000", "090943.841000", "090943.844000", "090943.846000", "091023.801000", "091023.804000", "091023.806000", "091023.808000", "091023.811000", "091023.813000", "091023.815000", "091023.818000", "091023.820000", "091023.822000", "091023.825000", "091023.827000", "091023.829000", "091023.832000", "091023.834000", "091023.836000", "091023.839000", "091023.841000", "091023.843000", "091023.846000", "091103.801000", "091103.804000", "091103.806000", "091103.808000", "091103.811000", "091103.813000", "091103.815000", "091103.818000", "091103.820000", "091103.822000", "091103.825000", "091103.827000", "091103.829000", "091103.832000", "091103.834000", "091103.836000", "091103.839000", "091103.841000", "091103.843000", "091103.845000", "091143.801000", "091143.804000", "091143.806000", "091143.808000", "091143.811000", "091143.813000", "091143.815000", "091143.818000", "091143.820000", "091143.822000", "091143.825000", "091143.827000", "091143.829000", "091143.831000", "091143.834000", "091143.836000", "091143.838000", "091143.841000", "091143.843000", "091143.846000", "091220.779000", "091220.781000", "091220.784000", "091220.786000", "091220.788000", "091220.791000", "091220.793000", "091220.795000", "091220.798000", "091220.800000", "091220.802000", "091220.805000", "091220.807000", "091220.809000", "091220.812000", "091220.814000", "091220.817000", "091220.819000", "091220.821000"],
      "InstanceCreationTime": ["090623.844000", "090623.847000", "090623.849000", "090623.862000", "090623.865000", "090623.867000", "090623.869000", "090623.871000", "090623.874000", "090623.876000", "090623.879000", "090623.881000", "090623.883000", "090623.885000", "090623.895000", "090623.897000", "090623.899000", "090623.902000", "090623.904000", "090623.906000", "090623.909000", "090703.801000", "090703.804000", "090703.806000", "090703.808000", "090703.811000", "090703.813000", "090703.815000", "090703.818000", "090703.820000", "090703.822000", "090703.828000", "090703.830000", "090703.833000", "090703.835000", "090703.837000", "090703.840000", "090703.842000", "090703.844000", "090703.846000", "090703.849000", "090743.801000", "090743.804000", "090743.806000", "090743.808000", "090743.811000", "090743.813000", "090743.815000", "090743.818000", "090743.820000", "090743.822000", "090743.825000", "090743.827000", "090743.829000", "090743.832000", "090743.834000", "090743.836000", "090743.839000", "090743.841000", "090743.843000", "090743.846000", "090823.801000", "090823.804000", "090823.806000", "090823.809000", "090823.811000", "090823.813000", "090823.816000", "090823.818000", "090823.820000", "090823.823000", "090823.825000", "090823.827000", "090823.830000", "090823.832000", "090823.834000", "090823.837000", "090823.839000", "090823.841000", "090823.844000", "090823.846000", "090903.801000", "090903.804000", "090903.806000", "090903.808000", "090903.811000", "090903.813000", "090903.815000", "090903.818000", "090903.820000", "090903.822000", "090903.825000", "090903.827000", "090903.829000", "090903.832000", "090903.834000", "090903.836000", "090903.839000", "090903.841000", "090903.843000", "090903.846000", "090943.801000", "090943.804000", "090943.806000", "090943.808000", "090943.811000", "090943.813000", "090943.815000", "090943.818000", "090943.820000", "090943.822000", "090943.825000", "090943.827000", "090943.830000", "090943.832000", "090943.834000", "090943.837000", "090943.839000", "090943.841000", "090943.844000", "090943.846000", "091023.801000", "091023.804000", "091023.806000", "091023.808000", "091023.811000", "091023.813000", "091023.815000", "091023.818000", "091023.820000", "091023.822000", "091023.825000", "091023.827000", "091023.829000", "091023.832000", "091023.834000", "091023.836000", "091023.839000", "091023.841000", "091023.843000", "091023.846000", "091103.801000", "091103.804000", "091103.806000", "091103.808000", "091103.811000", "091103.813000", "091103.815000", "091103.818000", "091103.820000", "091103.822000", "091103.825000", "091103.827000", "091103.829000", "091103.832000", "091103.834000", "091103.836000", "091103.839000", "091103.841000", "091103.843000", "091103.845000", "091143.801000", "091143.804000", "091143.806000", "091143.808000", "091143.811000", "091143.813000", "091143.815000", "091143.818000", "091143.820000", "091143.822000", "091143.825000", "091143.827000", "091143.829000", "091143.831000", "091143.834000", "091143.836000", "091143.838000", "091143.841000", "091143.843000", "091143.846000", "091220.779000", "091220.781000", "091220.784000", "091220.786000", "091220.788000", "091220.791000", "091220.793000", "091220.795000", "091220.798000", "091220.800000", "091220.802000", "091220.805000", "091220.807000", "091220.809000", "091220.812000", "091220.814000", "091220.817000", "091220.819000", "091220.821000"],
      "InstanceNumber": [1, 2, 3, 4, 5, 6, 7, 8, 9, 10, 11, 12, 13, 14, 15, 16, 17, 18, 19, 20, 21, 22, 23, 24, 25, 26, 27, 28, 29, 30, 31, 32, 33, 34, 35, 36, 37, 38, 39, 40, 41, 42, 43, 44, 45, 46, 47, 48, 49, 50, 51, 52, 53, 54, 55, 56, 57, 58, 59, 60, 61, 62, 63, 64, 65, 66, 67, 68, 69, 70, 71, 72, 73, 74, 75, 76, 77, 78, 79, 80, 81, 82, 83, 84, 85, 86, 87, 88, 89, 90, 91, 92, 93, 94, 95, 96, 97, 98, 99, 100, 101, 102, 103, 104, 105, 106, 107, 108, 109, 110, 111, 112, 113, 114, 115, 116, 117, 118, 119, 120, 121, 122, 123, 124, 125, 126, 127, 128, 129, 130, 131, 132, 133, 134, 135, 136, 137, 138, 139, 140, 141, 142, 143, 144, 145, 146, 147, 148, 149, 150, 151, 152, 153, 154, 155, 156, 157, 158, 159, 160, 161, 162, 163, 164, 165, 166, 167, 168, 169, 170, 171, 172, 173, 174, 175, 176, 177, 178, 179, 180, 181, 182, 183, 184, 185, 186, 187, 188, 189, 190, 191, 192, 193, 194, 195, 196, 197, 198, 199, 200],
      "LargestImagePixelValue": [3555, 3559, 3558, 3559, 3558, 3560, 3559, 3560, 3557, 3563, 3558, 3562, 3562, 3564, 3564, 3566, 3565, 3563, 3563, 3565, 3562, 3558, 3567, 3569, 3568, 3569, 3567, 3566, 3567, 3567, 3564, 3567, 3566, 3564, 3564, 3562, 3558, 3559, 3562, 3560, 3562, 3562, 3559, 3561, 3559, 3560, 3558, 3558, 3554, 3561, 3560, 3557, 3561, 3557, 3559, 3565, 3558, 3561, 3561, 3561, 3560, 3564, 3559, 3563, 3560, 3561, 3559, 3563, 3560, 3562, 3563, 3564, 3560, 3556, 3564, 3554, 3560, 3557, 3558, 3555, 3557, 3557, 3551, 3553, 3555, 3557, 3555, 3558, 3559, 3559, 3557, 3557, 3557, 3556, 3557, 3557, 3555, 3556, 3557, 3559, 3561, 3559, 3559, 3556, 3557, 3560, 3551, 3557, 3556, 3555, 3561, 3566, 3565, 3563, 3558, 3560, 3559, 3554, 3555, 3556, 3554, 3551, 3555, 3552, 3557, 3550, 3551, 3558, 3561, 3565, 3560, 3556, 3557, 3551, 3550, 3554, 3554, 3553, 3553, 3554, 3557, 3568, 3573, 3570, 3568, 3559, 3559, 3561, 3551, 3545, 3545, 3543, 3547, 3554, 3553, 3558, 3562, 3572, 3572, 3572, 3571, 3566, 3561, 3558, 3553, 3549, 3551, 3547, 3544, 3549, 3548, 3554, 3561, 3564, 3565, 3565, 3567, 3570, 3560, 3550, 3547, 3546, 3550, 3551, 3554, 3562, 3561, 3559, 3563, 3560, 3557, 3553, 3551, 3552, 3553, 3554, 3552, 3548, 3547, 3542],
      "WindowCenter": [1321.0, 1321.0, 1320.0, 1321.0, 1321.0, 1321.0, 1321.0, 1320.0, 1320.0, 1320.0, 1321.0, 1321.0, 1321.0, 1320.0, 1321.0, 1320.0, 1320.0, 1320.0, 1320.0, 1320.0, 1320.0, 1320.0, 1320.0, 1320.0, 1320.0, 1320.0, 1320.0, 1321.0, 1321.0, 1321.0, 1320.0, 1320.0, 1320.0, 1320.0, 1320.0, 1320.0, 1319.0, 1320.0, 1320.0, 1320.0, 1320.0, 1320.0, 1319.0, 1319.0, 1320.0, 1320.0, 1319.0, 1320.0, 1320.0, 1319.0, 1320.0, 1320.0, 1320.0, 1319.0, 1319.0, 1319.0, 1320.0, 1320.0, 1319.0, 1320.0, 1320.0, 1320.0, 1319.0, 1320.0, 1319.0, 1320.0, 1320.0, 1319.0, 1320.0, 1320.0, 1319.0, 1320.0, 1320.0, 1319.0, 1319.0, 1319.0, 1319.0, 1319.0, 1319.0, 1319.0, 1320.0, 1319.0, 1319.0, 1319.0, 1319.0, 1319.0, 1319.0, 1319.0, 1319.0, 1319.0, 1319.0, 1320.0, 1319.0, 1318.0, 1318.0, 1319.0, 1318.0, 1318.0, 1318.0, 1318.0, 1318.0, 1318.0, 1318.0, 1318.0, 1318.0, 1318.0, 1318.0, 1318.0, 1318.0, 1318.0, 1318.0, 1318.0, 1318.0, 1318.0, 1318.0, 1318.0, 1318.0, 1318.0, 1318.0, 1318.0, 1318.0, 1318.0, 1318.0, 1318.0, 1318.0, 1318.0, 1318.0, 1317.0, 1318.0, 1318.0, 1318.0, 1318.0, 1318.0, 1318.0, 1318.0, 1318.0, 1318.0, 1318.0, 1317.0, 1317.0, 1317.0, 1317.0, 1317.0, 1318.0, 1318.0, 1318.0, 1318.0, 1317.0, 1318.0, 1317.0, 1317.0, 1318.0, 1317.0, 1317.0, 1318.0, 1318.0, 1318.0, 1318.0, 1317.0, 1317.0, 1318.0, 1318.0, 1318.0, 1318.0, 1318.0, 1318.0, 1317.0, 1317.0, 1317.0, 1317.0, 1317.0, 1317.0, 1317.0, 1317.0, 1317.0, 1317.0, 1317.0, 1316.0, 1317.0, 1317.0, 1317.0, 1316.0, 1317.0, 1317.0, 1317.0, 1317.0, 1317.0, 1316.0, 1316.0, 1316.0, 1317.0, 1316.0, 1316.0, 1316.0, 1317.0, 1317.0, 1317.0, 1317.0, 1317.0, 1317.0],
      "WindowWidth": [3184.0, 3184.0, 3184.0, 3184.0, 3184.0, 3184.0, 3184.0, 3184.0, 3184.0, 3184.0, 3184.0, 3184.0, 3184.0, 3183.0, 3184.0, 3184.0, 3184.0, 3184.0, 3184.0, 3184.0, 3184.0, 3184.0, 3184.0, 3184.0, 3184.0, 3184.0, 3184.0, 3183.0, 3183.0, 3183.0, 3183.0, 3183.0, 3183.0, 3183.0, 3183.0, 3183.0, 3183.0, 3183.0, 3183.0, 3183.0, 3183.0, 3183.0, 3183.0, 3183.0, 3183.0, 3183.0, 3183.0, 3183.0, 3183.0, 3183.0, 3183.0, 3183.0, 3183.0, 3183.0, 3183.0, 3183.0, 3183.0, 3183.0, 3183.0, 3183.0, 3183.0, 3183.0, 3183.0, 3183.0, 3183.0, 3183.0, 3183.0, 3183.0, 3183.0, 3183.0, 3183.0, 3183.0, 3183.0, 3183.0, 3183.0, 3182.0, 3183.0, 3183.0, 3183.0, 3183.0, 3183.0, 3183.0, 3183.0, 3183.0, 3183.0, 3183.0, 3183.0, 3183.0, 3183.0, 3183.0, 3183.0, 3183.0, 3183.0, 3183.0, 3183.0, 3182.0, 3183.0, 3183.0, 3183.0, 3183.0, 3183.0, 3183.0, 3183.0, 3183.0, 3183.0, 3183.0, 3183.0, 3183.0, 3183.0, 3183.0, 3183.0, 3183.0, 3183.0, 3183.0, 3183.0, 3183.0, 3183.0, 3183.0, 3183.0, 3183.0, 3182.0, 3183.0, 3183.0, 3182.0, 3183.0, 3182.0, 3182.0, 3183.0, 3182.0, 3182.0, 3182.0, 3182.0, 3182.0, 3182.0, 3182.0, 3183.0, 3182.0, 3182.0, 3182.0, 3183.0, 3182.0, 3183.0, 3182.0, 3182.0, 3182.0, 3182.0, 3182.0, 3182.0, 3182.0, 3182.0, 3182.0, 3182.0, 3182.0, 3182.0, 3182.0, 3182.0, 3182.0, 3182.0, 3182.0, 3182.0, 3182.0, 3182.0, 3182.0, 3182.0, 3182.0, 3182.0, 3182.0, 3182.0, 3182.0, 3182.0, 3182.0, 3182.0, 3182.0, 3182.0, 3182.0, 3182.0, 3182.0, 3182.0, 3182.0, 3182.0, 3182.0, 3182.0, 3182.0, 3182.0, 3182.0, 3182.0, 3182.0, 3182.0, 3182.0, 3182.0, 3182.0, 3182.0, 3182.0, 3182.0, 3182.0, 3182.0, 3182.0, 3182.0, 3182.0, 3182.0]
    },
    "slices": {}
  }
}