{
  "AcquisitionMatrixPE": 122,
  "AcquisitionNumber": 1,
  "AcquisitionTime": "11:01:36.462500",
  "BandwidthPerPixelPhaseEncode": 27.785,
  "BaseResolution": 122,
  "BodyPartExamined": "BRAIN",
  "CoilCombinationMethod": "Adaptive Combine",
  "ConsistencyInfo": "N4_VE11C_LATEST_20160120",
  "ConversionSoftware": "dcm2niix",
  "ConversionSoftwareVersion": "v1.0.20220720",
  "DerivedVendorReportedEchoSpacing": 0.000590011,
  "DeviceSerialNumber": "66112",
  "DiffusionScheme": "Monopolar",
  "DwellTime": 2e-06,
  "EchoTime": 0.068,
  "EchoTrainLength": 61,
  "EffectiveEchoSpacing": 0.000295005,
  "FlipAngle": 90,
  "HeudiconvVersion": "0.13.1",
  "ImageOrientationPatientDICOM": [0.998778, 0.0105139, -0.0482925, 0.00331214, 0.960676, 0.277653],
  "ImageOrientationText": "Tra>Cor(16.1)>Sag(-2.8)",
  "ImageType": [
    "ORIGINAL",
    "PRIMARY",
    "DIFFUSION",
    "NONE",
    "ND",
    "NORM"
],
  "ImagingFrequency": 123.253,
  "InPlanePhaseEncodingDirectionDICOM": "COL",
  "InstitutionAddress": "Maynard 3,Hanover,NH,US,03755",
  "InstitutionName": "Dartmouth College - PBS",
  "InstitutionalDepartmentName": "Department",
  "MRAcquisitionType": "2D",
  "MagneticFieldStrength": 3,
  "Manufacturer": "Siemens",
  "ManufacturersModelName": "Prisma",
  "Modality": "MR",
  "MultibandAccelerationFactor": 4,
  "NonlinearGradientCorrection": false,
  "ParallelReductionFactorInPlane": 2,
  "PartialFourier": 1,
  "PatientPosition": "HFS",
  "PercentPhaseFOV": 100,
  "PercentSampling": 100,
  "PhaseEncodingDirection": "j-",
  "PhaseEncodingSteps": 122,
  "PhaseResolution": 1,
  "PixelBandwidth": 2050,
  "ProcedureStepDescription": "dbic^QA",
  "ProtocolName": "DTI_30_p2_s4",
  "PulseSequenceDetails": "%SiemensSeq%\\ep2d_diff",
  "ReceiveCoilActiveElements": "HEA;HEP",
  "ReceiveCoilName": "Head_32",
  "ReconMatrixPE": 122,
  "RefLinesPE": 38,
  "RepetitionTime": 3.6,
  "SAR": 0.141306,
  "ScanOptions": "FS",
  "ScanningSequence": "EP",
  "SequenceName": "*ep_b0",
  "SequenceVariant": "SK\\SP",
  "SeriesDescription": "DTI_30_p2_s4",
  "SeriesNumber": 9,
  "ShimSetting": [4146, -7669, -7513, 290, -21, -247, -45, 94],
  "SliceThickness": 2,
  "SliceTiming": [2.58594, 0, 1.78906, 0.20312, 1.99219, 0.39844, 2.1875, 0.59375, 2.39062, 0.99219, 2.78125, 1.19531, 2.98438, 1.39062, 3.17969, 1.59375, 3.38281, 0.79688, 2.58594, 0, 1.78906, 0.20312, 1.99219, 0.39844, 2.1875, 0.59375, 2.39062, 0.99219, 2.78125, 1.19531, 2.98438, 1.39062, 3.17969, 1.59375, 3.38281, 0.79688, 2.58594, 0, 1.78906, 0.20312, 1.99219, 0.39844, 2.1875, 0.59375, 2.39062, 0.99219, 2.78125, 1.19531, 2.98438, 1.39062, 3.17969, 1.59375, 3.38281, 0.79688, 2.58594, 0, 1.78906, 0.20312, 1.99219, 0.39844, 2.1875, 0.59375, 2.39062, 0.99219, 2.78125, 1.19531, 2.98438, 1.39062, 3.17969, 1.59375, 3.38281, 0.79688],
  "SoftwareVersions": "syngo MR E11",
  "SpacingBetweenSlices": 2,
  "SpoilingState": true,
  "StationName": "AWP66112",
  "TotalReadoutTime": 0.0356956,
  "TxRefAmp": 235.985,
  "dcmmeta_affine": [
    [-1.9648090600967407, 0.006515683140605688, -0.09862542152404785, 124.08158111572266],
    [-0.020683111622929573, 1.889853835105896, 0.5549468994140625, -119.71710205078125],
    [-0.09500155597925186, -0.5462029576301575, 1.9189338684082031, -55.32283020019531],
    [0.0, 0.0, 0.0, 1.0]
],
  "dcmmeta_reorient_transform": [
    [0.0, -1.0, 0.0, 121.0],
    [1.0, 0.0, 0.0, 0.0],
    [0.0, 0.0, -1.0, 71.0],
    [0.0, 0.0, 0.0, 1.0]
],
  "dcmmeta_shape": [122, 122, 72, 31],
  "dcmmeta_slice_dim": 2,
  "dcmmeta_version": 0.6,
  "global": {
    "const": {
      "AccessionNumber": "qa",
      "AcquisitionMatrix": [122, 0, 0, 122],
      "AngioFlag": "N",
      "BitsAllocated": 16,
      "BitsStored": 12,
      "BodyPartExamined": "BRAIN",
      "Columns": 122,
      "EchoNumbers": 1,
      "EchoTime": 68.0,
      "EchoTrainLength": 61,
      "FlipAngle": 90.0,
      "HighBit": 11,
      "ImageOrientationPatient": [0.99877790127742, 0.01051391516341, -0.0482924580841, 0.00331213885168, 0.96067567471061, 0.277653160896],
      "ImageType": [
        "ORIGINAL",
        "PRIMARY",
        "DIFFUSION",
        "NONE",
        "ND",
        "NORM"
],
      "ImagedNucleus": "1H",
      "ImagingFrequency": 123.252573,
      "InPlanePhaseEncodingDirection": "COL",
      "MRAcquisitionType": "2D",
      "MagneticFieldStrength": 3.0,
      "Manufacturer": "SIEMENS",
      "ManufacturerModelName": "Prisma",
      "Modality": "MR",
      "NumberOfAverages": 1.0,
      "NumberOfPhaseEncodingSteps": 122,
      "PercentPhaseFieldOfView": 100.0,
      "PercentSampling": 100.0,
      "PerformedProcedureStepStartTime": "103456.260000",
      "PhotometricInterpretation": "MONOCHROME2",
      "PixelBandwidth": 2050.0,
      "PixelRepresentation": 0,
      "PixelSpacing": [1.9672131538391, 1.9672131538391],
      "ProtocolName": "DTI_30_p2_s4",
      "RepetitionTime": 3600.0,
      "Rows": 122,
      "SAR": 0.1413062122025,
      "SamplesPerPixel": 1,
      "ScanOptions": "FS",
      "ScanningSequence": "EP",
      "SequenceVariant": [
        "SK",
        "SP"
],
      "SeriesDescription": "DTI_30_p2_s4",
      "SeriesNumber": 9,
      "SeriesTime": "110145.787000",
      "SliceThickness": 2.0,
      "SmallestImagePixelValue": 0,
      "SoftwareVersions": "syngo MR E11",
      "SpacingBetweenSlices": 2.0,
      "SpecificCharacterSet": "ISO_IR 100",
      "StudyID": "11",
      "StudyTime": "103456.156000",
      "TransmitCoilName": "Body",
      "VariableFlipAngleFlag": "N",
      "WindowCenterWidthExplanation": "Algo1",
      "dBdt": 0.0},
    "slices": {
      "AcquisitionTime": ["110136.462500", "110133.875000", "110135.665000", "110134.075000", "110135.865000", "110134.275000", "110136.065000", "110134.472500", "110136.262500", "110134.870000", "110136.660000", "110135.070000", "110136.860000", "110135.267500", "110137.057500", "110135.467500", "110137.257500", "110134.672500", "110136.462500", "110133.875000", "110135.665000", "110134.075000", "110135.865000", "110134.275000", "110136.065000", "110134.472500", "110136.262500", "110134.870000", "110136.660000", "110135.070000", "110136.860000", "110135.267500", "110137.057500", "110135.467500", "110137.257500", "110134.672500", "110136.462500", "110133.875000", "110135.665000", "110134.075000", "110135.865000", "110134.275000", "110136.065000", "110134.472500", "110136.262500", "110134.870000", "110136.660000", "110135.070000", "110136.860000", "110135.267500", "110137.057500", "110135.467500", "110137.257500", "110134.672500", "110136.462500", "110133.875000", "110135.665000", "110134.075000", "110135.865000", "110134.275000", "110136.065000", "110134.472500", "110136.262500", "110134.870000", "110136.660000", "110135.070000", "110136.860000", "110135.267500", "110137.057500", "110135.467500", "110137.257500", "110134.672500", "110140.062500", "110137.475000", "110139.265000", "110137.675000", "110139.465000", "110137.875000", "110139.665000", "110138.072500", "110139.862500", "110138.470000", "110140.260000", "110138.670000", "110140.460000", "110138.867500", "110140.657500", "110139.067500", "110140.857500", "110138.272500", "110140.062500", "110137.475000", "110139.265000", "110137.675000", "110139.465000", "110137.875000", "110139.665000", "110138.072500", "110139.862500", "110138.470000", "110140.260000", "110138.670000", "110140.460000", "110138.867500", "110140.657500", "110139.067500", "110140.857500", "110138.272500", "110140.062500", "110137.475000", "110139.265000", "110137.675000", "110139.465000", "110137.875000", "110139.665000", "110138.072500", "110139.862500", "110138.470000", "110140.260000", "110138.670000", "110140.460000", "110138.867500", "110140.657500", "110139.067500", "110140.857500", "110138.272500", "110140.062500", "110137.475000", "110139.265000", "110137.675000", "110139.465000", "110137.875000", "110139.665000", "110138.072500", "110139.862500", "110138.470000", "110140.260000", "110138.670000", "110140.460000", "110138.867500", "110140.657500", "110139.067500", "110140.857500", "110138.272500", "110143.662500", "110141.075000", "110142.865000", "110141.275000", "110143.065000", "110141.475000", "110143.265000", "110141.672500", "110143.462500", "110142.070000", "110143.860000", "110142.270000", "110144.060000", "110142.467500", "110144.257500", "110142.667500", "110144.457500", "110141.872500", "110143.662500", "110141.075000", "110142.865000", "110141.275000", "110143.065000", "110141.475000", "110143.265000", "110141.672500", "110143.462500", "110142.070000", "110143.860000", "110142.270000", "110144.060000", "110142.467500", "110144.257500", "110142.667500", "110144.457500", "110141.872500", "110143.662500", "110141.075000", "110142.865000", "110141.275000", "110143.065000", "110141.475000", "110143.265000", "110141.672500", "110143.462500", "110142.070000", "110143.860000", "110142.270000", "110144.060000", "110142.467500", "110144.257500", "110142.667500", "110144.457500", "110141.872500", "110143.662500", "110141.075000", "110142.865000", "110141.275000", "110143.065000", "110141.475000", "110143.265000", "110141.672500", "110143.462500", "110142.070000", "110143.860000", "110142.270000", "110144.060000", "110142.467500", "110144.257500", "110142.667500", "110144.457500", "110141.872500", "110147.262500", "110144.675000", "110146.465000", "110144.875000", "110146.665000", "110145.075000", "110146.865000", "110145.272500", "110147.062500", "110145.670000", "110147.460000", "110145.870000", "110147.660000", "110146.067500", "110147.857500", "110146.267500", "110148.057500", "110145.472500", "110147.262500", "110144.675000", "110146.465000", "110144.875000", "110146.665000", "110145.075000", "110146.865000", "110145.272500", "110147.062500", "110145.670000", "110147.460000", "110145.870000", "110147.660000", "110146.067500", "110147.857500", "110146.267500", "110148.057500", "110145.472500", "110147.262500", "110144.675000", "110146.465000", "110144.875000", "110146.665000", "110145.075000", "110146.865000", "110145.272500", "110147.062500", "110145.670000", "110147.460000", "110145.870000", "110147.660000", "110146.067500", "110147.857500", "110146.267500", "110148.057500", "110145.472500", "110147.262500", "110144.675000", "110146.465000", "110144.875000", "110146.665000", "110145.075000", "110146.865000", "110145.272500", "110147.062500", "110145.670000", "110147.460000", "110145.870000", "110147.660000", "110146.067500", "110147.857500", "110146.267500", "110148.057500", "110145.472500", "110150.862500", "110148.275000", "110150.065000", "110148.475000", "110150.265000", "110148.675000", "110150.465000", "110148.872500", "110150.662500", "110149.270000", "110151.060000", "110149.470000", "110151.260000", "110149.667500", "110151.457500", "110149.867500", "110151.657500", "110149.072500", "110150.862500", "110148.275000", "110150.065000", "110148.475000", "110150.265000", "110148.675000", "110150.465000", "110148.872500", "110150.662500", "110149.270000", "110151.060000", "110149.470000", "110151.260000", "110149.667500", "110151.457500", "110149.867500", "110151.657500", "110149.072500", "110150.862500", "110148.275000", "110150.065000", "110148.475000", "110150.265000", "110148.675000", "110150.465000", "110148.872500", "110150.662500", "110149.270000", "110151.060000", "110149.470000", "110151.260000", "110149.667500", "110151.457500", "110149.867500", "110151.657500", "110149.072500", "110150.862500", "110148.275000", "110150.065000", "110148.475000", "110150.265000", "110148.675000", "110150.465000", "110148.872500", "110150.662500", "110149.270000", "110151.060000", "110149.470000", "110151.260000", "110149.667500", "110151.457500", "110149.867500", "110151.657500", "110149.072500", "110154.462500", "110151.875000", "110153.665000", "110152.075000", "110153.865000", "110152.275000", "110154.065000", "110152.472500", "110154.262500", "110152.870000", "110154.660000", "110153.070000", "110154.860000", "110153.267500", "110155.057500", "110153.467500", "110155.257500", "110152.672500", "110154.462500", "110151.875000", "110153.665000", "110152.075000", "110153.865000", "110152.275000", "110154.065000", "110152.472500", "110154.262500", "110152.870000", "110154.660000", "110153.070000", "110154.860000", "110153.267500", "110155.057500", "110153.467500", "110155.257500", "110152.672500", "110154.462500", "110151.875000", "110153.665000", "110152.075000", "110153.865000", "110152.275000", "110154.065000", "110152.472500", "110154.262500", "110152.870000", "110154.660000", "110153.070000", "110154.860000", "110153.267500", "110155.057500", "110153.467500", "110155.257500", "110152.672500", "110154.462500", "110151.875000", "110153.665000", "110152.075000", "110153.865000", "110152.275000", "110154.065000", "110152.472500", "110154.262500", "110152.870000", "110154.660000", "110153.070000", "110154.860000", "110153.267500", "110155.057500", "110153.467500", "110155.257500", "110152.672500", "110158.062500", "110155.475000", "110157.265000", "110155.675000", "110157.465000", "110155.875000", "110157.665000", "110156.072500", "110157.862500", "110156.470000", "110158.260000", "110156.670000", "110158.460000", "110156.867500", "110158.657500", "110157.067500", "110158.857500", "110156.272500", "110158.062500", "110155.475000", "110157.265000", "110155.675000", "110157.465000", "110155.875000", "110157.665000", "110156.072500", "110157.862500", "110156.470000", "110158.260000", "110156.670000", "110158.460000", "110156.867500", "110158.657500", "110157.067500", "110158.857500", "110156.272500", "110158.062500", "110155.475000", "110157.265000", "110155.675000", "110157.465000", "110155.875000", "110157.665000", "110156.072500", "110157.862500", "110156.470000", "110158.260000", "110156.670000", "110158.460000", "110156.867500", "110158.657500", "110157.067500", "110158.857500", "110156.272500", "110158.062500", "110155.475000", "110157.265000", "110155.675000", "110157.465000", "110155.875000", "110157.665000", "110156.072500", "110157.862500", "110156.470000", "110158.260000", "110156.670000", "110158.460000", "110156.867500", "110158.657500", "110157.067500", "110158.857500", "110156.272500", "110201.662500", "110159.075000", "110200.865000", "110159.275000", "110201.065000", "110159.475000", "110201.265000", "110159.672500", "110201.462500", "110200.070000", "110201.860000", "110200.270000", "110202.060000", "110200.467500", "110202.257500", "110200.667500", "110202.457500", "110159.872500", "110201.662500", "110159.075000", "110200.865000", "110159.275000", "110201.065000", "110159.475000", "110201.265000", "110159.672500", "110201.462500", "110200.070000", "110201.860000", "110200.270000", "110202.060000", "110200.467500", "110202.257500", "110200.667500", "110202.457500", "110159.872500", "110201.662500", "110159.075000", "110200.865000", "110159.275000", "110201.065000", "110159.475000", "110201.265000", "110159.672500", "110201.462500", "110200.070000", "110201.860000", "110200.270000", "110202.060000", "110200.467500", "110202.257500", "110200.667500", "110202.457500", "110159.872500", "110201.662500", "110159.075000", "110200.865000", "110159.275000", "110201.065000", "110159.475000", "110201.265000", "110159.672500", "110201.462500", "110200.070000", "110201.860000", "110200.270000", "110202.060000", "110200.467500", "110202.257500", "110200.667500", "110202.457500", "110159.872500", "110205.262500", "110202.675000", "110204.465000", "110202.875000", "110204.665000", "110203.075000", "110204.865000", "110203.272500", "110205.062500", "110203.670000", "110205.460000", "110203.870000", "110205.660000", "110204.067500", "110205.857500", "110204.267500", "110206.057500", "110203.472500", "110205.262500", "110202.675000", "110204.465000", "110202.875000", "110204.665000", "110203.075000", "110204.865000", "110203.272500", "110205.062500", "110203.670000", "110205.460000", "110203.870000", "110205.660000", "110204.067500", "110205.857500", "110204.267500", "110206.057500", "110203.472500", "110205.262500", "110202.675000", "110204.465000", "110202.875000", "110204.665000", "110203.075000", "110204.865000", "110203.272500", "110205.062500", "110203.670000", "110205.460000", "110203.870000", "110205.660000", "110204.067500", "110205.857500", "110204.267500", "110206.057500", "110203.472500", "110205.262500", "110202.675000", "110204.465000", "110202.875000", "110204.665000", "110203.075000", "110204.865000", "110203.272500", "110205.062500", "110203.670000", "110205.460000", "110203.870000", "110205.660000", "110204.067500", "110205.857500", "110204.267500", "110206.057500", "110203.472500", "110208.862500", "110206.275000", "110208.065000", "110206.475000", "110208.265000", "110206.675000", "110208.465000", "110206.872500", "110208.662500", "110207.270000", "110209.060000", "110207.470000", "110209.260000", "110207.667500", "110209.457500", "110207.867500", "110209.657500", "110207.072500", "110208.862500", "110206.275000", "110208.065000", "110206.475000", "110208.265000", "110206.675000", "110208.465000", "110206.872500", "110208.662500", "110207.270000", "110209.060000", "110207.470000", "110209.260000", "110207.667500", "110209.457500", "110207.867500", "110209.657500", "110207.072500", "110208.862500", "110206.275000", "110208.065000", "110206.475000", "110208.265000", "110206.675000", "110208.465000", "110206.872500", "110208.662500", "110207.270000", "110209.060000", "110207.470000", "110209.260000", "110207.667500", "110209.457500", "110207.867500", "110209.657500", "110207.072500", "110208.862500", "110206.275000", "110208.065000", "110206.475000", "110208.265000", "110206.675000", "110208.465000", "110206.872500", "110208.662500", "110207.270000", "110209.060000", "110207.470000", "110209.260000", "110207.667500", "110209.457500", "110207.867500", "110209.657500", "110207.072500", "110212.462500", "110209.875000", "110211.665000", "110210.075000", "110211.865000", "110210.275000", "110212.065000", "110210.472500", "110212.262500", "110210.870000", "110212.660000", "110211.070000", "110212.860000", "110211.267500", "110213.057500", "110211.467500", "110213.257500", "110210.672500", "110212.462500", "110209.875000", "110211.665000", "110210.075000", "110211.865000", "110210.275000", "110212.065000", "110210.472500", "110212.262500", "110210.870000", "110212.660000", "110211.070000", "110212.860000", "110211.267500", "110213.057500", "110211.467500", "110213.257500", "110210.672500", "110212.462500", "110209.875000", "110211.665000", "110210.075000", "110211.865000", "110210.275000", "110212.065000", "110210.472500", "110212.262500", "110210.870000", "110212.660000", "110211.070000", "110212.860000", "110211.267500", "110213.057500", "110211.467500", "110213.257500", "110210.672500", "110212.462500", "110209.875000", "110211.665000", "110210.075000", "110211.865000", "110210.275000", "110212.065000", "110210.472500", "110212.262500", "110210.870000", "110212.660000", "110211.070000", "110212.860000", "110211.267500", "110213.057500", "110211.467500", "110213.257500", "110210.672500", "110216.062500", "110213.475000", "110215.265000", "110213.675000", "110215.465000", "110213.875000", "110215.665000", "110214.072500", "110215.862500", "110214.470000", "110216.260000", "110214.670000", "110216.460000", "110214.867500", "110216.657500", "110215.067500", "110216.857500", "110214.272500", "110216.062500", "110213.475000", "110215.265000", "110213.675000", "110215.465000", "110213.875000", "110215.665000", "110214.072500", "110215.862500", "110214.470000", "110216.260000", "110214.670000", "110216.460000", "110214.867500", "110216.657500", "110215.067500", "110216.857500", "110214.272500", "110216.062500", "110213.475000", "110215.265000", "110213.675000", "110215.465000", "110213.875000", "110215.665000", "110214.072500", "110215.862500", "110214.470000", "110216.260000", "110214.670000", "110216.460000", "110214.867500", "110216.657500", "110215.067500", "110216.857500", "110214.272500", "110216.062500", "110213.475000", "110215.265000", "110213.675000", "110215.465000", "110213.875000", "110215.665000", "110214.072500", "110215.862500", "110214.470000", "110216.260000", "110214.670000", "110216.460000", "110214.867500", "110216.657500", "110215.067500", "110216.857500", "110214.272500", "110219.662500", "110217.075000", "110218.865000", "110217.275000", "110219.065000", "110217.475000", "110219.265000", "110217.672500", "110219.462500", "110218.070000", "110219.860000", "110218.270000", "110220.060000", "110218.467500", "110220.257500", "110218.667500", "110220.457500", "110217.872500", "110219.662500", "110217.075000", "110218.865000", "110217.275000", "110219.065000", "110217.475000", "110219.265000", "110217.672500", "110219.462500", "110218.070000", "110219.860000", "110218.270000", "110220.060000", "110218.467500", "110220.257500", "110218.667500", "110220.457500", "110217.872500", "110219.662500", "110217.075000", "110218.865000", "110217.275000", "110219.065000", "110217.475000", "110219.265000", "110217.672500", "110219.462500", "110218.070000", "110219.860000", "110218.270000", "110220.060000", "110218.467500", "110220.257500", "110218.667500", "110220.457500", "110217.872500", "110219.662500", "110217.075000", "110218.865000", "110217.275000", "110219.065000", "110217.475000", "110219.265000", "110217.672500", "110219.462500", "110218.070000", "110219.860000", "110218.270000", "110220.060000", "110218.467500", "110220.257500", "110218.667500", "110220.457500", "110217.872500", "110223.262500", "110220.675000", "110222.465000", "110220.875000", "110222.665000", "110221.075000", "110222.865000", "110221.272500", "110223.062500", "110221.670000", "110223.460000", "110221.870000", "110223.660000", "110222.067500", "110223.857500", "110222.267500", "110224.057500", "110221.472500", "110223.262500", "110220.675000", "110222.465000", "110220.875000", "110222.665000", "110221.075000", "110222.865000", "110221.272500", "110223.062500", "110221.670000", "110223.460000", "110221.870000", "110223.660000", "110222.067500", "110223.857500", "110222.267500", "110224.057500", "110221.472500", "110223.262500", "110220.675000", "110222.465000", "110220.875000", "110222.665000", "110221.075000", "110222.865000", "110221.272500", "110223.062500", "110221.670000", "110223.460000", "110221.870000", "110223.660000", "110222.067500", "110223.857500", "110222.267500", "110224.057500", "110221.472500", "110223.262500", "110220.675000", "110222.465000", "110220.875000", "110222.665000", "110221.075000", "110222.865000", "110221.272500", "110223.062500", "110221.670000", "110223.460000", "110221.870000", "110223.660000", "110222.067500", "110223.857500", "110222.267500", "110224.057500", "110221.472500", "110226.862500", "110224.275000", "110226.065000", "110224.475000", "110226.265000", "110224.675000", "110226.465000", "110224.872500", "110226.662500", "110225.270000", "110227.060000", "110225.470000", "110227.260000", "110225.667500", "110227.457500", "110225.867500", "110227.657500", "110225.072500", "110226.862500", "110224.275000", "110226.065000", "110224.475000", "110226.265000", "110224.675000", "110226.465000", "110224.872500", "110226.662500", "110225.270000", "110227.060000", "110225.470000", "110227.260000", "110225.667500", "110227.457500", "110225.867500", "110227.657500", "110225.072500", "110226.862500", "110224.275000", "110226.065000", "110224.475000", "110226.265000", "110224.675000", "110226.465000", "110224.872500", "110226.662500", "110225.270000", "110227.060000", "110225.470000", "110227.260000", "110225.667500", "110227.457500", "110225.867500", "110227.657500", "110225.072500", "110226.862500", "110224.275000", "110226.065000", "110224.475000", "110226.265000", "110224.675000", "110226.465000", "110224.872500", "110226.662500", "110225.270000", "110227.060000", "110225.470000", "110227.260000", "110225.667500", "110227.457500", "110225.867500", "110227.657500", "110225.072500", "110230.462500", "110227.875000", "110229.665000", "110228.075000", "110229.865000", "110228.275000", "110230.065000", "110228.472500", "110230.262500", "110228.870000", "110230.660000", "110229.070000", "110230.860000", "110229.267500", "110231.057500", "110229.467500", "110231.257500", "110228.672500", "110230.462500", "110227.875000", "110229.665000", "110228.075000", "110229.865000", "110228.275000", "110230.065000", "110228.472500", "110230.262500", "110228.870000", "110230.660000", "110229.070000", "110230.860000", "110229.267500", "110231.057500", "110229.467500", "110231.257500", "110228.672500", "110230.462500", "110227.875000", "110229.665000", "110228.075000", "110229.865000", "110228.275000", "110230.065000", "110228.472500", "110230.262500", "110228.870000", "110230.660000", "110229.070000", "110230.860000", "110229.267500", "110231.057500", "110229.467500", "110231.257500", "110228.672500", "110230.462500", "110227.875000", "110229.665000", "110228.075000", "110229.865000", "110228.275000", "110230.065000", "110228.472500", "110230.262500", "110228.870000", "110230.660000", "110229.070000", "110230.860000", "110229.267500", "110231.057500", "110229.467500", "110231.257500", "110228.672500", "110234.062500", "110231.475000", "110233.265000", "110231.675000", "110233.465000", "110231.875000", "110233.665000", "110232.072500", "110233.862500", "110232.470000", "110234.260000", "110232.670000", "110234.460000", "110232.867500", "110234.657500", "110233.067500", "110234.857500", "110232.272500", "110234.062500", "110231.475000", "110233.265000", "110231.675000", "110233.465000", "110231.875000", "110233.665000", "110232.072500", "110233.862500", "110232.470000", "110234.260000", "110232.670000", "110234.460000", "110232.867500", "110234.657500", "110233.067500", "110234.857500", "110232.272500", "110234.062500", "110231.475000", "110233.265000", "110231.675000", "110233.465000", "110231.875000", "110233.665000", "110232.072500", "110233.862500", "110232.470000", "110234.260000", "110232.670000", "110234.460000", "110232.867500", "110234.657500", "110233.067500", "110234.857500", "110232.272500", "110234.062500", "110231.475000", "110233.265000", "110231.675000", "110233.465000", "110231.875000", "110233.665000", "110232.072500", "110233.862500", "110232.470000", "110234.260000", "110232.670000", "110234.460000", "110232.867500", "110234.657500", "110233.067500", "110234.857500", "110232.272500", "110237.662500", "110235.075000", "110236.865000", "110235.275000", "110237.065000", "110235.475000", "110237.265000", "110235.672500", "110237.462500", "110236.070000", "110237.860000", "110236.270000", "110238.060000", "110236.467500", "110238.257500", "110236.667500", "110238.457500", "110235.872500", "110237.662500", "110235.075000", "110236.865000", "110235.275000", "110237.065000", "110235.475000", "110237.265000", "110235.672500", "110237.462500", "110236.070000", "110237.860000", "110236.270000", "110238.060000", "110236.467500", "110238.257500", "110236.667500", "110238.457500", "110235.872500", "110237.662500", "110235.075000", "110236.865000", "110235.275000", "110237.065000", "110235.475000", "110237.265000", "110235.672500", "110237.462500", "110236.070000", "110237.860000", "110236.270000", "110238.060000", "110236.467500", "110238.257500", "110236.667500", "110238.457500", "110235.872500", "110237.662500", "110235.075000", "110236.865000", "110235.275000", "110237.065000", "110235.475000", "110237.265000", "110235.672500", "110237.462500", "110236.070000", "110237.860000", "110236.270000", "110238.060000", "110236.467500", "110238.257500", "110236.667500", "110238.457500", "110235.872500", "110241.262500", "110238.675000", "110240.465000", "110238.875000", "110240.665000", "110239.075000", "110240.865000", "110239.272500", "110241.062500", "110239.670000", "110241.460000", "110239.870000", "110241.660000", "110240.067500", "110241.857500", "110240.267500", "110242.057500", "110239.472500", "110241.262500", "110238.675000", "110240.465000", "110238.875000", "110240.665000", "110239.075000", "110240.865000", "110239.272500", "110241.062500", "110239.670000", "110241.460000", "110239.870000", "110241.660000", "110240.067500", "110241.857500", "110240.267500", "110242.057500", "110239.472500", "110241.262500", "110238.675000", "110240.465000", "110238.875000", "110240.665000", "110239.075000", "110240.865000", "110239.272500", "110241.062500", "110239.670000", "110241.460000", "110239.870000", "110241.660000", "110240.067500", "110241.857500", "110240.267500", "110242.057500", "110239.472500", "110241.262500", "110238.675000", "110240.465000", "110238.875000", "110240.665000", "110239.075000", "110240.865000", "110239.272500", "110241.062500", "110239.670000", "110241.460000", "110239.870000", "110241.660000", "110240.067500", "110241.857500", "110240.267500", "110242.057500", "110239.472500", "110244.862500", "110242.275000", "110244.065000", "110242.475000", "110244.265000", "110242.675000", "110244.465000", "110242.872500", "110244.662500", "110243.270000", "110245.060000", "110243.470000", "110245.260000", "110243.667500", "110245.457500", "110243.867500", "110245.657500", "110243.072500", "110244.862500", "110242.275000", "110244.065000", "110242.475000", "110244.265000", "110242.675000", "110244.465000", "110242.872500", "110244.662500", "110243.270000", "110245.060000", "110243.470000", "110245.260000", "110243.667500", "110245.457500", "110243.867500", "110245.657500", "110243.072500", "110244.862500", "110242.275000", "110244.065000", "110242.475000", "110244.265000", "110242.675000", "110244.465000", "110242.872500", "110244.662500", "110243.270000", "110245.060000", "110243.470000", "110245.260000", "110243.667500", "110245.457500", "110243.867500", "110245.657500", "110243.072500", "110244.862500", "110242.275000", "110244.065000", "110242.475000", "110244.265000", "110242.675000", "110244.465000", "110242.872500", "110244.662500", "110243.270000", "110245.060000", "110243.470000", "110245.260000