{
  "AcquisitionMatrixPE": 80,
  "AcquisitionNumber": 1,
  "AcquisitionTime": "11:52:22.515000",
  "BandwidthPerPixelPhaseEncode": 25,
  "BaseResolution": 80,
  "BodyPartExamined": "BRAIN",
  "CoilCombinationMethod": "Sum of Squares",
  "ConsistencyInfo": "N4_VE11C_LATEST_20160120",
  "ConversionSoftware": "dcm2niix",
  "ConversionSoftwareVersion": "v1.0.20220720",
  "DerivedVendorReportedEchoSpacing": 0.0005,
  "DeviceSerialNumber": "66112",
  "DwellTime": 2.7e-06,
  "EchoTime": 0.03,
  "EchoTrainLength": 80,
  "EffectiveEchoSpacing": 0.0005,
  "FlipAngle": 10,
  "HeudiconvVersion": "0.13.1",
  "ImageOrientationPatientDICOM": [0.986485, 0.16358, 0.00938415, -0.158186, 0.9359, 0.314751],
  "ImageOrientationText": "Tra>Cor(18.2)>Sag(-2.4)",
  "ImageType": [
    "ORIGINAL",
    "PRIMARY",
    "M",
    "ND",
    "NORM",
    "MOSAIC"
],
  "ImagingFrequency": 123.252,
  "InPlanePhaseEncodingDirectionDICOM": "COL",
  "InstitutionAddress": "Maynard 3,Hanover,NH,US,03755",
  "InstitutionName": "Dartmouth College - PBS",
  "InstitutionalDepartmentName": "Department",
  "MRAcquisitionType": "2D",
  "MagneticFieldStrength": 3,
  "Manufacturer": "Siemens",
  "ManufacturersModelName": "Prisma",
  "MatrixCoilMode": "SENSE",
  "Modality": "MR",
  "NonlinearGradientCorrection": false,
  "PartialFourier": 1,
  "PatientPosition": "HFS",
  "PercentPhaseFOV": 100,
  "PercentSampling": 100,
  "PhaseEncodingDirection": "j-",
  "PhaseEncodingSteps": 80,
  "PhaseResolution": 1,
  "PixelBandwidth": 2315,
  "ProcedureStepDescription": "dbic^QA",
  "ProtocolName": "func-bold_fa-10",
  "PulseSequenceDetails": "%SiemensSeq%\\ep2d_bold",
  "ReceiveCoilActiveElements": "HEA;HEP",
  "ReceiveCoilName": "Head_32",
  "ReconMatrixPE": 80,
  "RepetitionTime": 2,
  "SAR": 0.0100028,
  "ScanOptions": "FS",
  "ScanningSequence": "EP",
  "SequenceName": "*epfid2d1_80",
  "SequenceVariant": "SK",
  "SeriesDescription": "func-bold_fa-10",
  "SeriesNumber": 10,
  "ShimSetting": [4141, -7689, -7529, 247, -82, -57, -7, 83],
  "SliceThickness": 3.5,
  "SliceTiming": [0.99, 0, 1.055, 0.065, 1.12, 0.13, 1.1875, 0.1975, 1.2525, 0.2625, 1.32, 0.33, 1.385, 0.395, 1.45, 0.46, 1.5175, 0.5275, 1.5825, 0.5925, 1.65, 0.66, 1.715, 0.725, 1.78, 0.79, 1.8475, 0.8575, 1.9125, 0.9225],
  "SoftwareVersions": "syngo MR E11",
  "SpacingBetweenSlices": 3.99,
  "StationName": "AWP66112",
  "TotalReadoutTime": 0.0395,
  "TxRefAmp": 220.807,
  "dcmmeta_affine": [
    [-2.959456443786621, -0.474558025598526, -0.1703900843858719, 142.4119110107422],
    [-0.4907399117946625, 2.8077006340026855, 1.2448058128356934, -104.61165618896484],
    [0.02815243974328041, -0.9442520141601562, 3.787020683288574, -9.582857131958008],
    [0.0, 0.0, 0.0, 1.0]
],
  "dcmmeta_reorient_transform": [
    [0.0, -1.0, 0.0, 79.0],
    [1.0, 0.0, 0.0, 0.0],
    [0.0, 0.0, 1.0, 0.0],
    [0.0, 0.0, 0.0, 1.0]
],
  "dcmmeta_shape": [80, 80, 30, 200],
  "dcmmeta_slice_dim": 2,
  "dcmmeta_version": 0.6,
  "global": {
    "const": {
      "AccessionNumber": "qa",
      "AcquisitionMatrix": [80, 0, 0, 80],
      "AngioFlag": "N",
      "BitsAllocated": 16,
      "BitsStored": 12,
      "BodyPartExamined": "BRAIN",
      "Columns": 480,
      "EchoNumbers": 1,
      "EchoTime": 30.0,
      "EchoTrainLength": 80,
      "FlipAngle": 10.0,
      "HighBit": 11,
      "ImageOrientationPatient": [0.98648544335478, 0.16357997385902, 0.00938414627963, -0.1581860114523, 0.93590020593115, 0.31475067961621],
      "ImagePositionPatient": [-601.90148227384, -776.88479984535, -278.65966360374],
      "ImageType": [
        "ORIGINAL",
        "PRIMARY",
        "M",
        "ND",
        "NORM",
        "MOSAIC"
],
      "ImagedNucleus": "1H",
      "ImagingFrequency": 123.252363,
      "InPlanePhaseEncodingDirection": "COL",
      "MRAcquisitionType": "2D",
      "MagneticFieldStrength": 3.0,
      "Manufacturer": "SIEMENS",
      "ManufacturerModelName": "Prisma",
      "Modality": "MR",
      "NumberOfAverages": 1.0,
      "NumberOfPhaseEncodingSteps": 80,
      "PercentPhaseFieldOfView": 100.0,
      "PercentSampling": 100.0,
      "PerformedProcedureStepStartTime": "113021.970000",
      "PhotometricInterpretation": "MONOCHROME2",
      "PixelBandwidth": 2315.0,
      "PixelRepresentation": 0,
      "PixelSpacing": [3.0, 3.0],
      "ProtocolName": "func-bold_fa-10",
      "RepetitionTime": 2000.0,
      "Rows": 480,
      "SAR": 0.01000277812321,
      "SamplesPerPixel": 1,
      "ScanOptions": "FS",
      "ScanningSequence": "EP",
      "SequenceName": "*epfid2d1_80",
      "SequenceVariant": "SK",
      "SeriesDescription": "func-bold_fa-10",
      "SeriesNumber": 10,
      "SeriesTime": "115304.128000",
      "SliceLocation": -47.813847934144,
      "SliceThickness": 3.5,
      "SmallestImagePixelValue": 0,
      "SoftwareVersions": "syngo MR E11",
      "SpacingBetweenSlices": 3.9899998931377,
      "SpecificCharacterSet": "ISO_IR 100",
      "StudyID": "30",
      "StudyTime": "113021.914000",
      "TransmitCoilName": "Body",
      "VariableFlipAngleFlag": "N",
      "WindowCenterWidthExplanation": "Algo1",
      "dBdt": 0.0},
    "slices": {}
  },
  "time": {
    "samples": {
      "AcquisitionNumber": [1, 2, 3, 4, 5, 6, 7, 8, 9, 10, 11, 12, 13, 14, 15, 16, 17, 18, 19, 20, 21, 22, 23, 24, 25, 26, 27, 28, 29, 30, 31, 32, 33, 34, 35, 36, 37, 38, 39, 40, 41, 42, 43, 44, 45, 46, 47, 48, 49, 50, 51, 52, 53, 54, 55, 56, 57, 58, 59, 60, 61, 62, 63, 64, 65, 66, 67, 68, 69, 70, 71, 72, 73, 74, 75, 76, 77, 78, 79, 80, 81, 82, 83, 84, 85, 86, 87, 88, 89, 90, 91, 92, 93, 94, 95, 96, 97, 98, 99, 100, 101, 102, 103, 104, 105, 106, 107, 108, 109, 110, 111, 112, 113, 114, 115, 116, 117, 118, 119, 120, 121, 122, 123, 124, 125, 126, 127, 128, 129, 130, 131, 132, 133, 134, 135, 136, 137, 138, 139, 140, 141, 142, 143, 144, 145, 146, 147, 148, 149, 150, 151, 152, 153, 154, 155, 156, 157, 158, 159, 160, 161, 162, 163, 164, 165, 166, 167, 168, 169, 170, 171, 172, 173, 174, 175, 176, 177, 178, 179, 180, 181, 182, 183, 184, 185, 186, 187, 188, 189, 190, 191, 192, 193, 194, 195, 196, 197, 198, 199, 200],
      "AcquisitionTime": ["115222.515000", "115224.515000", "115226.515000", "115228.515000", "115230.515000", "115232.515000", "115234.515000", "115236.515000", "115238.515000", "115240.515000", "115242.515000", "115244.515000", "115246.515000", "115248.515000", "115250.515000", "115252.515000", "115254.515000", "115256.515000", "115258.515000", "115300.515000", "115302.515000", "115304.515000", "115306.515000", "115308.515000", "115310.515000", "115312.515000", "115314.515000", "115316.515000", "115318.515000", "115320.515000", "115322.515000", "115324.515000", "115326.515000", "115328.515000", "115330.515000", "115332.515000", "115334.515000", "115336.515000", "115338.515000", "115340.515000", "115342.515000", "115344.515000", "115346.515000", "115348.515000", "115350.515000", "115352.515000", "115354.515000", "115356.515000", "115358.515000", "115400.515000", "115402.515000", "115404.515000", "115406.515000", "115408.515000", "115410.515000", "115412.515000", "115414.515000", "115416.515000", "115418.515000", "115420.515000", "115422.515000", "115424.515000", "115426.515000", "115428.515000", "115430.515000", "115432.515000", "115434.515000", "115436.515000", "115438.515000", "115440.515000", "115442.515000", "115444.515000", "115446.515000", "115448.515000", "115450.515000", "115452.515000", "115454.515000", "115456.515000", "115458.515000", "115500.515000", "115502.515000", "115504.515000", "115506.515000", "115508.515000", "115510.515000", "115512.515000", "115514.515000", "115516.515000", "115518.515000", "115520.515000", "115522.515000", "115524.515000", "115526.515000", "115528.515000", "115530.515000", "115532.515000", "115534.515000", "115536.515000", "115538.515000", "115540.515000", "115542.515000", "115544.515000", "115546.515000", "115548.515000", "115550.515000", "115552.515000", "115554.515000", "115556.515000", "115558.515000", "115600.515000", "115602.515000", "115604.515000", "115606.515000", "115608.515000", "115610.515000", "115612.515000", "115614.515000", "115616.515000", "115618.515000", "115620.515000", "115622.515000", "115624.515000", "115626.515000", "115628.515000", "115630.515000", "115632.515000", "115634.515000", "115636.515000", "115638.515000", "115640.515000", "115642.515000", "115644.515000", "115646.515000", "115648.515000", "115650.515000", "115652.515000", "115654.515000", "115656.515000", "115658.515000", "115700.515000", "115702.515000", "115704.515000", "115706.515000", "115708.515000", "115710.515000", "115712.515000", "115714.515000", "115716.515000", "115718.515000", "115720.515000", "115722.515000", "115724.515000", "115726.515000", "115728.515000", "115730.515000", "115732.515000", "115734.515000", "115736.515000", "115738.515000", "115740.515000", "115742.515000", "115744.515000", "115746.515000", "115748.515000", "115750.515000", "115752.515000", "115754.515000", "115756.515000", "115758.515000", "115800.515000", "115802.515000", "115804.515000", "115806.515000", "115808.515000", "115810.515000", "115812.515000", "115814.515000", "115816.515000", "115818.515000", "115820.515000", "115822.515000", "115824.515000", "115826.515000", "115828.515000", "115830.515000", "115832.515000", "115834.515000", "115836.515000", "115838.515000", "115840.515000", "115842.515000", "115844.515000", "115846.515000", "115848.515000", "115850.515000", "115852.515000", "115854.515000", "115856.515000", "115858.515000", "115900.515000"],
      "ContentTime": ["115304.131000", "115304.135000", "115304.138000", "115304.140000", "115304.143000", "115304.152000", "115304.154000", "115304.156000", "115304.159000", "115304.161000", "115304.164000", "115304.166000", "115304.169000", "115304.171000", "115304.174000", "115304.176000", "115304.178000", "115304.181000", "115304.183000", "115304.186000", "115344.126000", "115344.129000", "115344.132000", "115344.135000", "115344.157000", "115344.159000", "115344.162000", "115344.170000", "115344.172000", "115344.175000", "115344.177000", "115344.180000", "115344.182000", "115344.185000", "115344.187000", "115344.190000", "115344.192000", "115344.195000", "115344.197000", "115344.200000", "115424.127000", "115424.130000", "115424.133000", "115424.137000", "115424.139000", "115424.161000", "115424.164000", "115424.166000", "115424.169000", "115424.171000", "115424.174000", "115424.176000", "115424.179000", "115424.181000", "115424.184000", "115424.186000", "115424.189000", "115424.191000", "115424.193000", "115424.196000", "115504.126000", "115504.129000", "115504.132000", "115504.135000", "115504.138000", "115504.140000", "115504.143000", "115504.145000", "115504.148000", "115504.150000", "115504.153000", "115504.156000", "115504.160000", "115504.162000", "115504.165000", "115504.167000", "115504.169000", "115504.172000", "115504.174000", "115504.177000", "115544.126000", "115544.129000", "115544.132000", "115544.136000", "115544.138000", "115544.140000", "115544.143000", "115544.145000", "115544.148000", "115544.150000", "115544.153000", "115544.155000", "115544.158000", "115544.160000", "115544.163000", "115544.165000", "115544.168000", "115544.170000", "115544.173000", "115544.175000", "115624.128000", "115624.131000", "115624.134000", "115624.137000", "115624.141000", "115624.143000", "115624.146000", "115624.149000", "115624.151000", "115624.154000", "115624.156000", "115624.159000", "115624.161000", "115624.164000", "115624.166000", "115624.169000", "115624.171000", "115624.174000", "115624.176000", "115624.178000", "115704.127000", "115704.131000", "115704.133000", "115704.136000", "115704.139000", "115704.141000", "115704.143000", "115704.146000", "115704.148000", "115704.151000", "115704.153000", "115704.156000", "115704.206000", "115704.208000", "115704.211000", "115704.213000", "115704.216000", "115704.218000", "115704.221000", "115704.223000", "115744.126000", "115744.130000", "115744.133000", "115744.135000", "115744.138000", "115744.140000", "115744.143000", "115744.145000", "115744.148000", "115744.150000", "115744.153000", "115744.155000", "115744.158000", "115744.160000", "115744.163000", "115744.165000", "115744.168000", "115744.170000", "115744.173000", "115744.175000", "115824.126000", "115824.131000", "115824.133000", "115824.136000", "115824.138000", "115824.140000", "115824.143000", "115824.145000", "115824.148000", "115824.150000", "115824.153000", "115824.155000", "115824.179000", "115824.182000", "115824.184000", "115824.187000", "115824.189000", "115824.192000", "115824.194000", "115824.197000", "115902.182000", "115902.184000", "115902.187000", "115902.189000", "115902.192000", "115902.194000", "115902.197000", "115902.199000", "115902.202000", "115902.204000", "115902.207000", "115902.209000", "115902.212000", "115902.217000", "115902.225000", "115902.229000", "115902.235000", "115902.238000", "115902.242000", "115902.245000"],
      "InstanceCreationTime": ["115304.131000", "115304.135000", "115304.138000", "115304.140000", "115304.143000", "115304.152000", "115304.154000", "115304.156000", "115304.159000", "115304.161000", "115304.164000", "115304.166000", "115304.169000", "115304.171000", "115304.174000", "115304.176000", "115304.178000", "115304.181000", "115304.183000", "115304.186000", "115344.126000", "115344.129000", "115344.132000", "115344.135000", "115344.157000", "115344.159000", "115344.162000", "115344.170000", "115344.172000", "115344.175000", "115344.177000", "115344.180000", "115344.182000", "115344.185000", "115344.187000", "115344.190000", "115344.192000", "115344.195000", "115344.197000", "115344.200000", "115424.127000", "115424.130000", "115424.133000", "115424.137000", "115424.139000", "115424.161000", "115424.164000", "115424.166000", "115424.169000", "115424.171000", "115424.174000", "115424.176000", "115424.179000", "115424.181000", "115424.184000", "115424.186000", "115424.189000", "115424.191000", "115424.193000", "115424.196000", "115504.126000", "115504.129000", "115504.132000", "115504.135000", "115504.138000", "115504.140000", "115504.143000", "115504.145000", "115504.148000", "115504.150000", "115504.153000", "115504.156000", "115504.160000", "115504.162000", "115504.165000", "115504.167000", "115504.169000", "115504.172000", "115504.174000", "115504.177000", "115544.126000", "115544.129000", "115544.132000", "115544.136000", "115544.138000", "115544.140000", "115544.143000", "115544.145000", "115544.148000", "115544.150000", "115544.153000", "115544.155000", "115544.158000", "115544.160000", "115544.163000", "115544.165000", "115544.168000", "115544.170000", "115544.173000", "115544.175000", "115624.128000", "115624.131000", "115624.134000", "115624.137000", "115624.141000", "115624.143000", "115624.146000", "115624.149000", "115624.151000", "115624.154000", "115624.156000", "115624.159000", "115624.161000", "115624.164000", "115624.166000", "115624.169000", "115624.171000", "115624.174000", "115624.176000", "115624.178000", "115704.127000", "115704.131000", "115704.133000", "115704.136000", "115704.139000", "115704.141000", "115704.143000", "115704.146000", "115704.148000", "115704.151000", "115704.153000", "115704.156000", "115704.206000", "115704.208000", "115704.211000", "115704.213000", "115704.216000", "115704.218000", "115704.221000", "115704.223000", "115744.126000", "115744.130000", "115744.133000", "115744.135000", "115744.138000", "115744.140000", "115744.143000", "115744.145000", "115744.148000", "115744.150000", "115744.153000", "115744.155000", "115744.158000", "115744.160000", "115744.163000", "115744.165000", "115744.168000", "115744.170000", "115744.173000", "115744.175000", "115824.126000", "115824.131000", "115824.133000", "115824.136000", "115824.138000", "115824.140000", "115824.143000", "115824.145000", "115824.148000", "115824.150000", "115824.153000", "115824.155000", "115824.179000", "115824.182000", "115824.184000", "115824.187000", "115824.189000", "115824.192000", "115824.194000", "115824.197000", "115902.182000", "115902.184000", "115902.187000", "115902.189000", "115902.192000", "115902.194000", "115902.197000", "115902.199000", "115902.202000", "115902.204000", "115902.207000", "115902.209000", "115902.212000", "115902.217000", "115902.225000", "115902.229000", "115902.235000", "115902.238000", "115902.242000", "115902.245000"],
      "InstanceNumber": [1, 2, 3, 4, 5, 6, 7, 8, 9, 10, 11, 12, 13, 14, 15, 16, 17, 18, 19, 20, 21, 22, 23, 24, 25, 26, 27, 28, 29, 30, 31, 32, 33, 34, 35, 36, 37, 38, 39, 40, 41, 42, 43, 44, 45, 46, 47, 48, 49, 50, 51, 52, 53, 54, 55, 56, 57, 58, 59, 60, 61, 62, 63, 64, 65, 66, 67, 68, 69, 70, 71, 72, 73, 74, 75, 76, 77, 78, 79, 80, 81, 82, 83, 84, 85, 86, 87, 88, 89, 90, 91, 92, 93, 94, 95, 96, 97, 98, 99, 100, 101, 102, 103, 104, 105, 106, 107, 108, 109, 110, 111, 112, 113, 114, 115, 116, 117, 118, 119, 120, 121, 122, 123, 124, 125, 126, 127, 128, 129, 130, 131, 132, 133, 134, 135, 136, 137, 138, 139, 140, 141, 142, 143, 144, 145, 146, 147, 148, 149, 150, 151, 152, 153, 154, 155, 156, 157, 158, 159, 160, 161, 162, 163, 164, 165, 166, 167, 168, 169, 170, 171, 172, 173, 174, 175, 176, 177, 178, 179, 180, 181, 182, 183, 184, 185, 186, 187, 188, 189, 190, 191, 192, 193, 194, 195, 196, 197, 198, 199, 200],
      "LargestImagePixelValue": [385, 385, 385, 381, 383, 384, 382, 379, 380, 382, 384, 382, 382, 385, 383, 384, 383, 383, 387, 383, 383, 380, 391, 382, 382, 387, 382, 388, 382, 383, 383, 386, 383, 385, 383, 383, 385, 383, 382, 384, 382, 383, 382, 384, 382, 383, 384, 383, 385, 383, 383, 384, 385, 382, 387, 382, 388, 383, 383, 382, 384, 389, 384, 382, 384, 387, 385, 382, 383, 381, 383, 383, 383, 383, 385, 384, 382, 385, 382, 382, 384, 384, 386, 383, 383, 383, 383, 385, 384, 383, 384, 382, 385, 382, 384, 383, 387, 384, 385, 383, 383, 382, 382, 383, 387, 384, 382, 385, 381, 382, 383, 384, 385, 382, 383, 382, 383, 384, 382, 384, 384, 383, 382, 385, 385, 382, 383, 383, 383, 384, 382, 383, 383, 383, 383, 380, 385, 383, 385, 384, 381, 382, 382, 384, 382, 382, 384, 381, 385, 382, 383, 383, 383, 381, 384, 384, 386, 384, 382, 382, 383, 382, 382, 382, 381, 382, 387, 381, 382, 386, 381, 384, 383, 384, 383, 381, 383, 381, 382, 382, 383, 385, 382, 381, 382, 383, 384, 382, 381, 385, 386, 381, 384, 382, 383, 386, 384, 385, 380, 382],
      "WindowCenter": [311.0, 311.0, 310.0, 309.0, 309.0, 309.0, 309.0, 309.0, 309.0, 309.0, 309.0, 309.0, 310.0, 311.0, 311.0, 311.0, 311.0, 311.0, 311.0, 311.0, 311.0, 311.0, 311.0, 311.0, 311.0, 311.0, 311.0, 311.0, 311.0, 311.0, 311.0, 311.0, 311.0, 311.0, 311.0, 311.0, 310.0, 311.0, 311.0, 311.0, 311.0, 311.0, 311.0, 311.0, 311.0, 311.0, 311.0, 311.0, 311.0, 311.0, 311.0, 311.0, 311.0, 311.0, 311.0, 311.0, 311.0, 311.0, 311.0, 311.0, 311.0, 311.0, 311.0, 311.0, 311.0, 311.0, 311.0, 311.0, 311.0, 311.0, 311.0, 311.0, 311.0, 311.0, 311.0, 311.0, 311.0, 311.0, 311.0, 311.0, 311.0, 311.0, 311.0, 311.0, 311.0, 310.0, 311.0, 311.0, 311.0, 311.0, 311.0, 311.0, 311.0, 311.0, 311.0, 311.0, 310.0, 311.0, 311.0, 311.0, 310.0, 310.0, 311.0, 310.0, 310.0, 311.0, 311.0, 311.0, 310.0, 311.0, 311.0, 311.0, 311.0, 311.0, 311.0, 311.0, 310.0, 311.0, 310.0, 311.0, 311.0, 311.0, 310.0, 310.0, 311.0, 311.0, 311.0, 311.0, 311.0, 311.0, 310.0, 311.0, 310.0, 311.0, 311.0, 311.0, 311.0, 311.0, 311.0, 311.0, 310.0, 311.0, 310.0, 310.0, 311.0, 311.0, 311.0, 310.0, 311.0, 311.0, 310.0, 311.0, 311.0, 310.0, 311.0, 311.0, 311.0, 311.0, 311.0, 310.0, 311.0, 311.0, 311.0, 311.0, 310.0, 311.0, 310.0, 311.0, 311.0, 311.0, 311.0, 311.0, 310.0, 311.0, 310.0, 311.0, 311.0, 311.0, 311.0, 310.0, 311.0, 310.0, 310.0, 310.0, 311.0, 311.0, 311.0, 311.0, 311.0, 311.0, 310.0, 310.0, 310.0, 310.0, 310.0, 310.0, 310.0, 310.0, 310.0, 310.0],
      "WindowWidth": [671.0, 671.0, 669.0, 668.0, 668.0, 668.0, 668.0, 667.0, 668.0, 668.0, 668.0, 667.0, 670.0, 671.0, 671.0, 671.0, 671.0, 671.0, 671.0, 671.0, 671.0, 671.0, 672.0, 671.0, 671.0, 671.0, 671.0, 671.0, 671.0, 671.0, 671.0, 671.0, 671.0, 671.0, 671.0, 671.0, 670.0, 671.0, 671.0, 671.0, 671.0, 671.0, 671.0, 671.0, 671.0, 671.0, 671.0, 671.0, 671.0, 671.0, 671.0, 671.0, 671.0, 671.0, 671.0, 671.0, 671.0, 671.0, 671.0, 671.0, 671.0, 671.0, 671.0, 671.0, 671.0, 671.0, 671.0, 671.0, 671.0, 671.0, 671.0, 671.0, 671.0, 671.0, 671.0, 671.0, 671.0, 671.0, 671.0, 671.0, 671.0, 671.0, 671.0, 671.0, 671.0, 670.0, 671.0, 671.0, 671.0, 671.0, 671.0, 671.0, 671.0, 671.0, 671.0, 671.0, 671.0, 671.0, 671.0, 671.0, 670.0, 670.0, 671.0, 671.0, 670.0, 671.0, 671.0, 671.0, 670.0, 671.0, 671.0, 671.0, 671.0, 671.0, 671.0, 671.0, 670.0, 671.0, 670.0, 671.0, 671.0, 671.0, 670.0, 670.0, 671.0, 671.0, 671.0, 671.0, 671.0, 671.0, 670.0, 671.0, 670.0, 671.0, 671.0, 671.0, 671.0, 671.0, 671.0, 670.0, 670.0, 671.0, 670.0, 670.0, 671.0, 671.0, 671.0, 670.0, 671.0, 670.0, 670.0, 671.0, 671.0, 670.0, 671.0, 670.0, 671.0, 670.0, 670.0, 670.0, 671.0, 671.0, 671.0, 671.0, 670.0, 671.0, 670.0, 670.0, 671.0, 671.0, 671.0, 671.0, 670.0, 671.0, 670.0, 671.0, 671.0, 670.0, 671.0, 670.0, 671.0, 670.0, 670.0, 670.0, 671.0, 671.0, 671.0, 671.0, 671.0, 671.0, 670.0, 670.0, 670.0, 670.0, 670.0, 670.0, 670.0, 670.0, 669.0, 670.0]
    },
    "slices": {}
  }
}