{
  "AcquisitionMatrixPE": 80,
  "AcquisitionNumber": 1,
  "AcquisitionTime": "11:38:46.312500",
  "BandwidthPerPixelPhaseEncode": 44.643,
  "BaseResolution": 80,
  "BodyPartExamined": "BRAIN",
  "CoilCombinationMethod": "Sum of Squares",
  "ConsistencyInfo": "N4_VE11C_LATEST_20160120",
  "ConversionSoftware": "dcm2niix",
  "ConversionSoftwareVersion": "v1.0.20220720",
  "DerivedVendorReportedEchoSpacing": 0.000559998,
  "DeviceSerialNumber": "66112",
  "DwellTime": 2.7e-06,
  "EchoTime": 0.035,
  "EchoTrainLength": 39,
  "EffectiveEchoSpacing": 0.000279999,
  "FlipAngle": 90,
  "HeudiconvVersion": "0.13.1",
  "ImageOrientationPatientDICOM": [0.986485, 0.16358, 0.00938415, -0.158186, 0.9359, 0.314751],
  "ImageOrientationText": "Tra>Cor(18.2)>Sag(-2.4)",
  "ImageType": [
    "ORIGINAL",
    "PRIMARY",
    "M",
    "ND",
    "NORM",
    "MOSAIC"
],
  "ImagingFrequency": 123.252,
  "InPlanePhaseEncodingDirectionDICOM": "COL",
  "InstitutionAddress": "Maynard 3,Hanover,NH,US,03755",
  "InstitutionName": "Dartmouth College - PBS",
  "InstitutionalDepartmentName": "Department",
  "MRAcquisitionType": "2D",
  "MagneticFieldStrength": 3,
  "Manufacturer": "Siemens",
  "ManufacturersModelName": "Prisma",
  "Modality": "MR",
  "MultibandAccelerationFactor": 4,
  "NonlinearGradientCorrection": false,
  "ParallelReductionFactorInPlane": 2,
  "PartialFourier": 1,
  "PatientPosition": "HFS",
  "PercentPhaseFOV": 100,
  "PercentSampling": 100,
  "PhaseEncodingDirection": "j-",
  "PhaseEncodingSteps": 79,
  "PhaseResolution": 1,
  "PixelBandwidth": 2315,
  "ProcedureStepDescription": "dbic^QA",
  "ProtocolName": "func-bold_task-rest_acq-p2-s4-3.5mm",
  "PulseSequenceDetails": "%SiemensSeq%\\ep2d_bold",
  "ReceiveCoilActiveElements": "HEA;HEP",
  "ReceiveCoilName": "Head_32",
  "ReconMatrixPE": 80,
  "RefLinesPE": 24,
  "RepetitionTime": 2,
  "SAR": 0.0178429,
  "ScanOptions": "FS",
  "ScanningSequence": "EP",
  "SequenceName": "*epfid2d1_80",
  "SequenceVariant": "SK",
  "SeriesDescription": "func-bold_task-rest_acq-p2-s4-3.5mm",
  "SeriesNumber": 7,
  "ShimSetting": [4141, -7690, -7528, 249, -83, -59, -6, 82],
  "SliceThickness": 3.5,
  "SliceTiming": [1.485, 0, 0.99, 0.2475, 1.2375, 0.7425, 1.7325, 0.495, 1.485, 0, 0.99, 0.2475, 1.2375, 0.7425, 1.7325, 0.495, 1.485, 0, 0.99, 0.2475, 1.2375, 0.7425, 1.7325, 0.495, 1.485, 0, 0.99, 0.2475, 1.2375, 0.7425, 1.7325, 0.495],
  "SoftwareVersions": "syngo MR E11",
  "SpacingBetweenSlices": 3.99,
  "StationName": "AWP66112",
  "TaskName": "rest",
  "TotalReadoutTime": 0.0221199,
  "TxRefAmp": 220.807,
  "dcmmeta_affine": [
    [-2.959456443786621, -0.474558025598526, -0.1703900843858719, 142.60968017578125],
    [-0.4907399117946625, 2.8077006340026855, 1.2448058128356934, -106.05632781982422],
    [0.02815243974328041, -0.9442520141601562, 3.787020683288574, -13.975282669067383],
    [0.0, 0.0, 0.0, 1.0]
],
  "dcmmeta_reorient_transform": [
    [0.0, -1.0, 0.0, 79.0],
    [1.0, 0.0, 0.0, 0.0],
    [0.0, 0.0, 1.0, 0.0],
    [0.0, 0.0, 0.0, 1.0]
],
  "dcmmeta_shape": [80, 80, 32, 200],
  "dcmmeta_slice_dim": 2,
  "dcmmeta_version": 0.6,
  "global": {
    "const": {
      "AccessionNumber": "qa",
      "AcquisitionMatrix": [80, 0, 0, 80],
      "AngioFlag": "N",
      "BitsAllocated": 16,
      "BitsStored": 12,
      "BodyPartExamined": "BRAIN",
      "Columns": 480,
      "EchoNumbers": 1,
      "EchoTime": 35.0,
      "EchoTrainLength": 39,
      "FlipAngle": 90.0,
      "HighBit": 11,
      "ImageOrientationPatient": [0.98648544335478, 0.16357997385902, 0.00938414627963, -0.1581860114523, 0.93590020593115, 0.31475067961621],
      "ImagePositionPatient": [-602.09925477674, -775.44013107551, -283.05208914085],
      "ImageType": [
        "ORIGINAL",
        "PRIMARY",
        "M",
        "ND",
        "NORM",
        "MOSAIC"
],
      "ImagedNucleus": "1H",
      "ImagingFrequency": 123.252364,
      "InPlanePhaseEncodingDirection": "COL",
      "MRAcquisitionType": "2D",
      "MagneticFieldStrength": 3.0,
      "Manufacturer": "SIEMENS",
      "ManufacturerModelName": "Prisma",
      "Modality": "MR",
      "NumberOfAverages": 1.0,
      "NumberOfPhaseEncodingSteps": 79,
      "PercentPhaseFieldOfView": 100.0,
      "PercentSampling": 100.0,
      "PerformedProcedureStepStartTime": "113021.970000",
      "PhotometricInterpretation": "MONOCHROME2",
      "PixelBandwidth": 2315.0,
      "PixelRepresentation": 0,
      "PixelSpacing": [3.0, 3.0],
      "ProtocolName": "func-bold_task-rest_acq-p2-s4-3.5mm",
      "RepetitionTime": 2000.0,
      "Rows": 480,
      "SAR": 0.01784285161325,
      "SamplesPerPixel": 1,
      "ScanOptions": "FS",
      "ScanningSequence": "EP",
      "SequenceName": "*epfid2d1_80",
      "SequenceVariant": "SK",
      "SeriesDescription": "func-bold_task-rest_acq-p2-s4-3.5mm",
      "SeriesNumber": 7,
      "SeriesTime": "113944.198000",
      "SliceLocation": -52.441977494208,
      "SliceThickness": 3.5,
      "SmallestImagePixelValue": 0,
      "SoftwareVersions": "syngo MR E11",
      "SpacingBetweenSlices": 3.9899999579695,
      "SpecificCharacterSet": "ISO_IR 100",
      "StudyID": "30",
      "StudyTime": "113021.914000",
      "TransmitCoilName": "Body",
      "VariableFlipAngleFlag": "N",
      "WindowCenterWidthExplanation": "Algo1",
      "dBdt": 0.0},
    "slices": {}
  },
  "time": {
    "samples": {
      "AcquisitionNumber": [1, 2, 3, 4, 5, 6, 7, 8, 9, 10, 11, 12, 13, 14, 15, 16, 17, 18, 19, 20, 21, 22, 23, 24, 25, 26, 27, 28, 29, 30, 31, 32, 33, 34, 35, 36, 37, 38, 39, 40, 41, 42, 43, 44, 45, 46, 47, 48, 49, 50, 51, 52, 53, 54, 55, 56, 57, 58, 59, 60, 61, 62, 63, 64, 65, 66, 67, 68, 69, 70, 71, 72, 73, 74, 75, 76, 77, 78, 79, 80, 81, 82, 83, 84, 85, 86, 87, 88, 89, 90, 91, 92, 93, 94, 95, 96, 97, 98, 99, 100, 101, 102, 103, 104, 105, 106, 107, 108, 109, 110, 111, 112, 113, 114, 115, 116, 117, 118, 119, 120, 121, 122, 123, 124, 125, 126, 127, 128, 129, 130, 131, 132, 133, 134, 135, 136, 137, 138, 139, 140, 141, 142, 143, 144, 145, 146, 147, 148, 149, 150, 151, 152, 153, 154, 155, 156, 157, 158, 159, 160, 161, 162, 163, 164, 165, 166, 167, 168, 169, 170, 171, 172, 173, 174, 175, 176, 177, 178, 179, 180, 181, 182, 183, 184, 185, 186, 187, 188, 189, 190, 191, 192, 193, 194, 195, 196, 197, 198, 199, 200],
      "AcquisitionTime": ["113846.312500", "113848.312500", "113850.312500", "113852.312500", "113854.312500", "113856.312500", "113858.312500", "113900.312500", "113902.312500", "113904.312500", "113906.312500", "113908.312500", "113910.312500", "113912.312500", "113914.312500", "113916.312500", "113918.312500", "113920.312500", "113922.312500", "113924.312500", "113926.312500", "113928.312500", "113930.312500", "113932.312500", "113934.312500", "113936.312500", "113938.312500", "113940.312500", "113942.312500", "113944.312500", "113946.312500", "113948.312500", "113950.312500", "113952.312500", "113954.312500", "113956.312500", "113958.312500", "114000.312500", "114002.312500", "114004.312500", "114006.312500", "114008.312500", "114010.312500", "114012.312500", "114014.312500", "114016.312500", "114018.312500", "114020.312500", "114022.312500", "114024.312500", "114026.312500", "114028.312500", "114030.312500", "114032.312500", "114034.312500", "114036.312500", "114038.312500", "114040.312500", "114042.312500", "114044.312500", "114046.312500", "114048.312500", "114050.312500", "114052.312500", "114054.312500", "114056.312500", "114058.312500", "114100.312500", "114102.312500", "114104.312500", "114106.312500", "114108.312500", "114110.312500", "114112.312500", "114114.312500", "114116.312500", "114118.312500", "114120.312500", "114122.312500", "114124.312500", "114126.312500", "114128.312500", "114130.312500", "114132.312500", "114134.312500", "114136.312500", "114138.312500", "114140.312500", "114142.312500", "114144.312500", "114146.312500", "114148.312500", "114150.312500", "114152.312500", "114154.312500", "114156.312500", "114158.312500", "114200.312500", "114202.312500", "114204.312500", "114206.312500", "114208.312500", "114210.312500", "114212.312500", "114214.312500", "114216.312500", "114218.312500", "114220.312500", "114222.312500", "114224.312500", "114226.312500", "114228.312500", "114230.312500", "114232.312500", "114234.312500", "114236.312500", "114238.312500", "114240.312500", "114242.312500", "114244.312500", "114246.312500", "114248.312500", "114250.312500", "114252.312500", "114254.312500", "114256.312500", "114258.312500", "114300.312500", "114302.312500", "114304.312500", "114306.312500", "114308.312500", "114310.312500", "114312.312500", "114314.312500", "114316.312500", "114318.312500", "114320.312500", "114322.312500", "114324.312500", "114326.312500", "114328.312500", "114330.312500", "114332.312500", "114334.312500", "114336.312500", "114338.312500", "114340.312500", "114342.312500", "114344.312500", "114346.312500", "114348.312500", "114350.312500", "114352.312500", "114354.312500", "114356.312500", "114358.312500", "114400.312500", "114402.312500", "114404.312500", "114406.312500", "114408.312500", "114410.312500", "114412.312500", "114414.312500", "114416.312500", "114418.312500", "114420.312500", "114422.312500", "114424.312500", "114426.312500", "114428.312500", "114430.312500", "114432.312500", "114434.312500", "114436.312500", "114438.312500", "114440.312500", "114442.312500", "114444.312500", "114446.312500", "114448.312500", "114450.312500", "114452.312500", "114454.312500", "114456.312500", "114458.312500", "114500.312500", "114502.312500", "114504.312500", "114506.312500", "114508.312500", "114510.312500", "114512.312500", "114514.312500", "114516.312500", "114518.312500", "114520.312500", "114522.312500", "114524.312500"],
      "ContentTime": ["113944.212000", "113944.215000", "113944.227000", "113944.229000", "113944.232000", "113944.234000", "113944.237000", "113944.239000", "113944.242000", "113944.244000", "113944.247000", "113944.249000", "113944.252000", "113944.254000", "113944.257000", "113944.259000", "113944.262000", "113944.264000", "113944.267000", "113944.269000", "113944.272000", "113944.274000", "113944.277000", "113944.279000", "113944.282000", "113944.284000", "113944.287000", "113944.289000", "113944.292000", "114024.197000", "114024.200000", "114024.203000", "114024.205000", "114024.208000", "114024.219000", "114024.221000", "114024.224000", "114024.226000", "114024.229000", "114024.231000", "114024.234000", "114024.236000", "114024.239000", "114024.241000", "114024.244000", "114024.246000", "114024.249000", "114024.251000", "114024.254000", "114104.196000", "114104.199000", "114104.202000", "114104.204000", "114104.207000", "114104.209000", "114104.212000", "114104.214000", "114104.217000", "114104.219000", "114104.222000", "114104.224000", "114104.227000", "114104.229000", "114104.232000", "114104.234000", "114104.237000", "114104.239000", "114104.242000", "114104.244000", "114144.197000", "114144.199000", "114144.202000", "114144.204000", "114144.207000", "114144.209000", "114144.212000", "114144.214000", "114144.217000", "114144.219000", "114144.222000", "114144.224000", "114144.227000", "114144.229000", "114144.232000", "114144.234000", "114144.237000", "114144.239000", "114144.242000", "114144.244000", "114224.196000", "114224.199000", "114224.202000", "114224.204000", "114224.207000", "114224.209000", "114224.212000", "114224.214000", "114224.217000", "114224.219000", "114224.222000", "114224.224000", "114224.226000", "114224.229000", "114224.231000", "114224.234000", "114224.236000", "114224.239000", "114224.241000", "114224.244000", "114304.197000", "114304.200000", "114304.203000", "114304.205000", "114304.208000", "114304.210000", "114304.213000", "114304.215000", "114304.218000", "114304.220000", "114304.223000", "114304.225000", "114304.228000", "114304.230000", "114304.233000", "114304.235000", "114304.238000", "114304.240000", "114304.243000", "114304.245000", "114344.196000", "114344.199000", "114344.202000", "114344.204000", "114344.207000", "114344.209000", "114344.212000", "114344.214000", "114344.217000", "114344.219000", "114344.222000", "114344.224000", "114344.227000", "114344.229000", "114344.232000", "114344.234000", "114344.237000", "114344.239000", "114344.242000", "114344.244000", "114424.196000", "114424.199000", "114424.202000", "114424.204000", "114424.207000", "114424.209000", "114424.212000", "114424.214000", "114424.217000", "114424.219000", "114424.222000", "114424.224000", "114424.227000", "114424.229000", "114424.232000", "114424.234000", "114424.237000", "114424.239000", "114424.242000", "114424.244000", "114504.197000", "114504.200000", "114504.203000", "114504.205000", "114504.208000", "114504.210000", "114504.213000", "114504.215000", "114504.218000", "114504.220000", "114504.223000", "114504.225000", "114504.228000", "114504.230000", "114504.233000", "114504.236000", "114504.238000", "114504.241000", "114504.243000", "114504.245000", "114525.720000", "114525.722000", "114525.725000", "114525.728000", "114525.730000", "114525.733000", "114525.735000", "114525.738000", "114525.741000", "114525.743000", "114525.746000"],
      "InstanceCreationTime": ["113944.212000", "113944.215000", "113944.227000", "113944.229000", "113944.232000", "113944.234000", "113944.237000", "113944.239000", "113944.242000", "113944.244000", "113944.247000", "113944.249000", "113944.252000", "113944.254000", "113944.257000", "113944.259000", "113944.262000", "113944.264000", "113944.267000", "113944.269000", "113944.272000", "113944.274000", "113944.277000", "113944.279000", "113944.282000", "113944.284000", "113944.287000", "113944.289000", "113944.292000", "114024.197000", "114024.200000", "114024.203000", "114024.205000", "114024.208000", "114024.219000", "114024.221000", "114024.224000", "114024.226000", "114024.229000", "114024.231000", "114024.234000", "114024.236000", "114024.239000", "114024.241000", "114024.244000", "114024.246000", "114024.249000", "114024.251000", "114024.254000", "114104.196000", "114104.199000", "114104.202000", "114104.204000", "114104.207000", "114104.209000", "114104.212000", "114104.214000", "114104.217000", "114104.219000", "114104.222000", "114104.224000", "114104.227000", "114104.229000", "114104.232000", "114104.234000", "114104.237000", "114104.239000", "114104.242000", "114104.244000", "114144.197000", "114144.199000", "114144.202000", "114144.204000", "114144.207000", "114144.209000", "114144.212000", "114144.214000", "114144.217000", "114144.219000", "114144.222000", "114144.224000", "114144.227000", "114144.229000", "114144.232000", "114144.234000", "114144.237000", "114144.239000", "114144.242000", "114144.244000", "114224.196000", "114224.199000", "114224.202000", "114224.204000", "114224.207000", "114224.209000", "114224.212000", "114224.214000", "114224.217000", "114224.219000", "114224.222000", "114224.224000", "114224.226000", "114224.229000", "114224.231000", "114224.234000", "114224.236000", "114224.239000", "114224.241000", "114224.244000", "114304.197000", "114304.200000", "114304.203000", "114304.205000", "114304.208000", "114304.210000", "114304.213000", "114304.215000", "114304.218000", "114304.220000", "114304.223000", "114304.225000", "114304.228000", "114304.230000", "114304.233000", "114304.235000", "114304.238000", "114304.240000", "114304.243000", "114304.245000", "114344.196000", "114344.199000", "114344.202000", "114344.204000", "114344.207000", "114344.209000", "114344.212000", "114344.214000", "114344.217000", "114344.219000", "114344.222000", "114344.224000", "114344.227000", "114344.229000", "114344.232000", "114344.234000", "114344.237000", "114344.239000", "114344.242000", "114344.244000", "114424.196000", "114424.199000", "114424.202000", "114424.204000", "114424.207000", "114424.209000", "114424.212000", "114424.214000", "114424.217000", "114424.219000", "114424.222000", "114424.224000", "114424.227000", "114424.229000", "114424.232000", "114424.234000", "114424.237000", "114424.239000", "114424.242000", "114424.244000", "114504.197000", "114504.200000", "114504.203000", "114504.205000", "114504.208000", "114504.210000", "114504.213000", "114504.215000", "114504.218000", "114504.220000", "114504.223000", "114504.225000", "114504.228000", "114504.230000", "114504.233000", "114504.236000", "114504.238000", "114504.241000", "114504.243000", "114504.245000", "114525.720000", "114525.722000", "114525.725000", "114525.728000", "114525.730000", "114525.733000", "114525.735000", "114525.738000", "114525.741000", "114525.743000", "114525.746000"],
      "InstanceNumber": [1, 2, 3, 4, 5, 6, 7, 8, 9, 10, 11, 12, 13, 14, 15, 16, 17, 18, 19, 20, 21, 22, 23, 24, 25, 26, 27, 28, 29, 30, 31, 32, 33, 34, 35, 36, 37, 38, 39, 40, 41, 42, 43, 44, 45, 46, 47, 48, 49, 50, 51, 52, 53, 54, 55, 56, 57, 58, 59, 60, 61, 62, 63, 64, 65, 66, 67, 68, 69, 70, 71, 72, 73, 74, 75, 76, 77, 78, 79, 80, 81, 82, 83, 84, 85, 86, 87, 88, 89, 90, 91, 92, 93, 94, 95, 96, 97, 98, 99, 100, 101, 102, 103, 104, 105, 106, 107, 108, 109, 110, 111, 112, 113, 114, 115, 116, 117, 118, 119, 120, 121, 122, 123, 124, 125, 126, 127, 128, 129, 130, 131, 132, 133, 134, 135, 136, 137, 138, 139, 140, 141, 142, 143, 144, 145, 146, 147, 148, 149, 150, 151, 152, 153, 154, 155, 156, 157, 158, 159, 160, 161, 162, 163, 164, 165, 166, 167, 168, 169, 170, 171, 172, 173, 174, 175, 176, 177, 178, 179, 180, 181, 182, 183, 184, 185, 186, 187, 188, 189, 190, 191, 192, 193, 194, 195, 196, 197, 198, 199, 200],
      "LargestImagePixelValue": [2317, 2319, 2320, 2313, 2319, 2318, 2320, 2315, 2319, 2318, 2315, 2319, 2317, 2324, 2318, 2318, 2319, 2321, 2323, 2322, 2322, 2325, 2320, 2322, 2318, 2319, 2319, 2311, 2318, 2321, 2316, 2320, 2317, 2313, 2322, 2315, 2320, 2317, 2323, 2318, 2322, 2324, 2322, 2319, 2324, 2322, 2324, 2319, 2322, 2318, 2319, 2321, 2319, 2321, 2319, 2320, 2320, 2324, 2320, 2321, 2322, 2325, 2318, 2320, 2319, 2324, 2316, 2323, 2319, 2319, 2317, 2320, 2321, 2318, 2320, 2320, 2320, 2326, 2321, 2319, 2320, 2321, 2319, 2324, 2318, 2317, 2316, 2321, 2322, 2318, 2320, 2322, 2318, 2324, 2325, 2325, 2324, 2327, 2321, 2323, 2324, 2321, 2324, 2319, 2321, 2321, 2323, 2322, 2319, 2322, 2323, 2319, 2322, 2316, 2328, 2320, 2314, 2320, 2316, 2327, 2320, 2322, 2324, 2316, 2325, 2316, 2315, 2321, 2322, 2320, 2321, 2320, 2326, 2320, 2318, 2322, 2324, 2321, 2325, 2325, 2320, 2322, 2322, 2322, 2321, 2318, 2323, 2321, 2326, 2323, 2319, 2321, 2322, 2322, 2323, 2323, 2323, 2321, 2323, 2320, 2321, 2324, 2323, 2325, 2324, 2322, 2322, 2323, 2315, 2327, 2321, 2321, 2318, 2317, 2323, 2322, 2318, 2316, 2319, 2324, 2321, 2325, 2320, 2319, 2319, 2319, 2322, 2318, 2324, 2318, 2319, 2316, 2320, 2323, 2319, 2316, 2321, 2322, 2322, 2325],
      "WindowCenter": [971.0, 971.0, 971.0, 971.0, 971.0, 971.0, 971.0, 972.0, 972.0, 972.0, 972.0, 972.0, 972.0, 972.0, 972.0, 972.0, 972.0, 972.0, 972.0, 972.0, 972.0, 972.0, 972.0, 972.0, 972.0, 972.0, 972.0, 972.0, 972.0, 972.0, 972.0, 972.0, 972.0, 972.0, 972.0, 972.0, 972.0, 972.0, 972.0, 972.0, 972.0, 972.0, 972.0, 972.0, 972.0, 972.0, 972.0, 972.0, 972.0, 972.0, 972.0, 972.0, 972.0, 972.0, 972.0, 972.0, 972.0, 972.0, 972.0, 972.0, 972.0, 972.0, 972.0, 972.0, 972.0, 972.0, 972.0, 972.0, 972.0, 972.0, 972.0, 972.0, 972.0, 972.0, 972.0, 972.0, 972.0, 972.0, 972.0, 972.0, 972.0, 972.0, 972.0, 972.0, 972.0, 972.0, 972.0, 972.0, 972.0, 972.0, 972.0, 972.0, 971.0, 972.0, 972.0, 972.0, 972.0, 972.0, 972.0, 972.0, 972.0, 972.0, 971.0, 971.0, 971.0, 971.0, 971.0, 971.0, 972.0, 971.0, 971.0, 971.0, 972.0, 972.0, 972.0, 972.0, 972.0, 972.0, 971.0, 972.0, 972.0, 972.0, 972.0, 972.0, 972.0, 971.0, 971.0, 972.0, 971.0, 972.0, 972.0, 971.0, 971.0, 971.0, 972.0, 972.0, 971.0, 971.0, 971.0, 971.0, 971.0, 971.0, 972.0, 972.0, 971.0, 971.0, 972.0, 971.0, 972.0, 972.0, 971.0, 971.0, 972.0, 971.0, 972.0, 971.0, 971.0, 972.0, 971.0, 971.0, 971.0, 971.0, 972.0, 971.0, 971.0, 971.0, 972.0, 971.0, 971.0, 971.0, 972.0, 971.0, 972.0, 972.0, 971.0, 971.0, 972.0, 971.0, 971.0, 971.0, 971.0, 972.0, 971.0, 971.0, 971.0, 971.0, 971.0, 971.0, 971.0, 971.0, 971.0, 972.0, 972.0, 972.0, 971.0, 971.0, 972.0, 971.0, 971.0, 971.0],
      "WindowWidth": [2299.0, 2299.0, 2299.0, 2299.0, 2299.0, 2300.0, 2301.0, 2302.0, 2302.0, 2301.0, 2302.0, 2302.0, 2302.0, 2302.0, 2302.0, 2301.0, 2301.0, 2302.0, 2301.0, 2301.0, 2301.0, 2301.0, 2301.0, 2301.0, 2301.0, 2301.0, 2301.0, 2301.0, 2301.0, 2301.0, 2301.0, 2301.0, 2301.0, 2301.0, 2301.0, 2301.0, 2301.0, 2301.0, 2301.0, 2301.0, 2301.0, 2301.0, 2301.0, 2301.0, 2301.0, 2301.0, 2301.0, 2301.0, 2301.0, 2301.0, 2301.0, 2301.0, 2301.0, 2301.0, 2302.0, 2301.0, 2302.0, 2301.0, 2301.0, 2301.0, 2301.0, 2301.0, 2301.0, 2301.0, 2301.0, 2301.0, 2301.0, 2301.0, 2301.0, 2301.0, 2301.0, 2301.0, 2301.0, 2301.0, 2301.0, 2301.0, 2301.0, 2301.0, 2301.0, 2301.0, 2301.0, 2301.0, 2301.0, 2301.0, 2301.0, 2301.0, 2301.0, 2301.0, 2301.0, 2301.0, 2301.0, 2301.0, 2301.0, 2301.0, 2301.0, 2301.0, 2302.0, 2301.0, 2301.0, 2302.0, 2301.0, 2301.0, 2301.0, 2301.0, 2301.0, 2301.0, 2301.0, 2301.0, 2300.0, 2301.0, 2301.0, 2301.0, 2301.0, 2301.0, 2301.0, 2300.0, 2301.0, 2301.0, 2301.0, 2301.0, 2301.0, 2301.0, 2301.0, 2301.0, 2301.0, 2301.0, 2299.0, 2299.0, 2301.0, 2301.0, 2301.0, 2301.0, 2301.0, 2301.0, 2300.0, 2300.0, 2301.0, 2301.0, 2301.0, 2301.0, 2301.0, 2301.0, 2301.0, 2300.0, 2301.0, 2301.0, 2301.0, 2301.0, 2300.0, 2300.0, 2301.0, 2301.0, 2300.0, 2301.0, 2300.0, 2301.0, 2300.0, 2300.0, 2301.0, 2299.0, 2298.0, 2299.0, 2300.0, 2301.0, 2301.0, 2301.0, 2300.0, 2300.0, 2300.0, 2301.0, 2300.0, 2301.0, 2300.0, 2300.0, 2300.0, 2300.0, 2300.0, 2300.0, 2300.0, 2300.0, 2300.0, 2300.0, 2300.0, 2300.0, 2298.0, 2299.0, 2299.0, 2298.0, 2299.0, 2299.0, 2300.0, 2300.0, 2300.0, 2300.0, 2300.0, 2300.0, 2300.0, 2300.0, 2300.0, 2300.0]
    },
    "slices": {}
  }
}