{
  "AcquisitionMatrixPE": 80,
  "AcquisitionNumber": 1,
  "AcquisitionTime": "11:31:51.565000",
  "BandwidthPerPixelPhaseEncode": 48.077,
  "BaseResolution": 80,
  "BodyPartExamined": "BRAIN",
  "CoilCombinationMethod": "Sum of Squares",
  "ConsistencyInfo": "N4_VE11C_LATEST_20160120",
  "ConversionSoftware": "dcm2niix",
  "ConversionSoftwareVersion": "v1.0.20220720",
  "DerivedVendorReportedEchoSpacing": 0.000519999,
  "DeviceSerialNumber": "66112",
  "DwellTime": 2.7e-06,
  "EchoTime": 0.035,
  "EchoTrainLength": 39,
  "EffectiveEchoSpacing": 0.00026,
  "FlipAngle": 90,
  "HeudiconvVersion": "0.13.1",
  "ImageOrientationPatientDICOM": [0.986485, 0.16358, 0.00938415, -0.158186, 0.9359, 0.314751],
  "ImageOrientationText": "Tra>Cor(18.2)>Sag(-2.4)",
  "ImageType": [
    "ORIGINAL",
    "PRIMARY",
    "M",
    "ND",
    "NORM",
    "MOSAIC"
],
  "ImagingFrequency": 123.252,
  "InPlanePhaseEncodingDirectionDICOM": "COL",
  "InstitutionAddress": "Maynard 3,Hanover,NH,US,03755",
  "InstitutionName": "Dartmouth College - PBS",
  "InstitutionalDepartmentName": "Department",
  "MRAcquisitionType": "2D",
  "MagneticFieldStrength": 3,
  "Manufacturer": "Siemens",
  "ManufacturersModelName": "Prisma",
  "MatrixCoilMode": "GRAPPA",
  "Modality": "MR",
  "NonlinearGradientCorrection": false,
  "ParallelReductionFactorInPlane": 2,
  "PartialFourier": 1,
  "PatientPosition": "HFS",
  "PercentPhaseFOV": 100,
  "PercentSampling": 100,
  "PhaseEncodingDirection": "j-",
  "PhaseEncodingSteps": 79,
  "PhaseResolution": 1,
  "PixelBandwidth": 2315,
  "ProcedureStepDescription": "dbic^QA",
  "ProtocolName": "func-bold_task-rest_acq-p2",
  "PulseSequenceDetails": "%SiemensSeq%\\ep2d_bold",
  "ReceiveCoilActiveElements": "HEA;HEP",
  "ReceiveCoilName": "Head_32",
  "ReconMatrixPE": 80,
  "RefLinesPE": 24,
  "RepetitionTime": 2,
  "SAR": 0.0474507,
  "ScanOptions": "FS",
  "ScanningSequence": "EP",
  "SequenceName": "*epfid2d1_80",
  "SequenceVariant": "SK",
  "SeriesDescription": "func-bold_task-rest_acq-p2",
  "SeriesNumber": 5,
  "ShimSetting": [4141, -7690, -7529, 248, -81, -57, -7, 83],
  "SliceThickness": 3.5,
  "SliceTiming": [0.99, 0, 1.0575, 0.0675, 1.1225, 0.1325, 1.19, 0.2, 1.255, 0.265, 1.32, 0.33, 1.3875, 0.3975, 1.4525, 0.4625, 1.52, 0.53, 1.585, 0.595, 1.65, 0.66, 1.7175, 0.7275, 1.7825, 0.7925, 1.85, 0.86, 1.915, 0.925],
  "SoftwareVersions": "syngo MR E11",
  "SpacingBetweenSlices": 3.99,
  "StationName": "AWP66112",
  "TaskName": "rest",
  "TotalReadoutTime": 0.02054,
  "TxRefAmp": 220.807,
  "dcmmeta_affine": [
    [-2.959456443786621, -0.474558025598526, -0.17039009928703308, 142.4392852783203],
    [-0.4907399117946625, 2.8077006340026855, 1.2448058128356934, -104.81151580810547],
    [0.02815243974328041, -0.9442520141601562, 3.787020683288574, -10.188261032104492],
    [0.0, 0.0, 0.0, 1.0]
],
  "dcmmeta_reorient_transform": [
    [0.0, -1.0, 0.0, 79.0],
    [1.0, 0.0, 0.0, 0.0],
    [0.0, 0.0, 1.0, 0.0],
    [0.0, 0.0, 0.0, 1.0]
],
  "dcmmeta_shape": [80, 80, 30, 200],
  "dcmmeta_slice_dim": 2,
  "dcmmeta_version": 0.6,
  "global": {
    "const": {
      "AccessionNumber": "qa",
      "AcquisitionMatrix": [80, 0, 0, 80],
      "AngioFlag": "N",
      "BitsAllocated": 16,
      "BitsStored": 12,
      "BodyPartExamined": "BRAIN",
      "Columns": 480,
      "EchoNumbers": 1,
      "EchoTime": 35.0,
      "EchoTrainLength": 39,
      "FlipAngle": 90.0,
      "HighBit": 11,
      "ImageOrientationPatient": [0.98648544335478, 0.16357997385902, 0.00938414627963, -0.1581860114523, 0.93590020593115, 0.31475067961621],
      "ImagePositionPatient": [-601.92886464765, -776.68493736518, -279.26506750389],
      "ImageType": [
        "ORIGINAL",
        "PRIMARY",
        "M",
        "ND",
        "NORM",
        "MOSAIC"
],
      "ImagedNucleus": "1H",
      "ImagingFrequency": 123.252364,
      "InPlanePhaseEncodingDirection": "COL",
      "MRAcquisitionType": "2D",
      "MagneticFieldStrength": 3.0,
      "Manufacturer": "SIEMENS",
      "ManufacturerModelName": "Prisma",
      "Modality": "MR",
      "NumberOfAverages": 1.0,
      "NumberOfPhaseEncodingSteps": 79,
      "PercentPhaseFieldOfView": 100.0,
      "PercentSampling": 100.0,
      "PerformedProcedureStepStartTime": "113021.970000",
      "PhotometricInterpretation": "MONOCHROME2",
      "PixelBandwidth": 2315.0,
      "PixelRepresentation": 0,
      "PixelSpacing": [3.0, 3.0],
      "ProtocolName": "func-bold_task-rest_acq-p2",
      "RepetitionTime": 2000.0,
      "Rows": 480,
      "SAR": 0.04745071621225,
      "SamplesPerPixel": 1,
      "ScanOptions": "FS",
      "ScanningSequence": "EP",
      "SequenceName": "*epfid2d1_80",
      "SequenceVariant": "SK",
      "SeriesDescription": "func-bold_task-rest_acq-p2",
      "SeriesNumber": 5,
      "SeriesTime": "113244.128000",
      "SliceLocation": -48.451976444869,
      "SliceThickness": 3.5,
      "SmallestImagePixelValue": 0,
      "SoftwareVersions": "syngo MR E11",
      "SpacingBetweenSlices": 3.9900000281591,
      "SpecificCharacterSet": "ISO_IR 100",
      "StudyID": "30",
      "StudyTime": "113021.914000",
      "TransmitCoilName": "Body",
      "VariableFlipAngleFlag": "N",
      "WindowCenterWidthExplanation": "Algo1",
      "dBdt": 0.0},
    "slices": {}
  },
  "time": {
    "samples": {
      "AcquisitionNumber": [1, 2, 3, 4, 5, 6, 7, 8, 9, 10, 11, 12, 13, 14, 15, 16, 17, 18, 19, 20, 21, 22, 23, 24, 25, 26, 27, 28, 29, 30, 31, 32, 33, 34, 35, 36, 37, 38, 39, 40, 41, 42, 43, 44, 45, 46, 47, 48, 49, 50, 51, 52, 53, 54, 55, 56, 57, 58, 59, 60, 61, 62, 63, 64, 65, 66, 67, 68, 69, 70, 71, 72, 73, 74, 75, 76, 77, 78, 79, 80, 81, 82, 83, 84, 85, 86, 87, 88, 89, 90, 91, 92, 93, 94, 95, 96, 97, 98, 99, 100, 101, 102, 103, 104, 105, 106, 107, 108, 109, 110, 111, 112, 113, 114, 115, 116, 117, 118, 119, 120, 121, 122, 123, 124, 125, 126, 127, 128, 129, 130, 131, 132, 133, 134, 135, 136, 137, 138, 139, 140, 141, 142, 143, 144, 145, 146, 147, 148, 149, 150, 151, 152, 153, 154, 155, 156, 157, 158, 159, 160, 161, 162, 163, 164, 165, 166, 167, 168, 169, 170, 171, 172, 173, 174, 175, 176, 177, 178, 179, 180, 181, 182, 183, 184, 185, 186, 187, 188, 189, 190, 191, 192, 193, 194, 195, 196, 197, 198, 199, 200],
      "AcquisitionTime": ["113151.565000", "113153.565000", "113155.565000", "113157.565000", "113159.565000", "113201.565000", "113203.565000", "113205.565000", "113207.565000", "113209.565000", "113211.565000", "113213.565000", "113215.565000", "113217.565000", "113219.565000", "113221.565000", "113223.565000", "113225.565000", "113227.565000", "113229.565000", "113231.565000", "113233.565000", "113235.565000", "113237.565000", "113239.565000", "113241.565000", "113243.565000", "113245.565000", "113247.565000", "113249.565000", "113251.565000", "113253.565000", "113255.565000", "113257.565000", "113259.565000", "113301.565000", "113303.565000", "113305.565000", "113307.565000", "113309.565000", "113311.565000", "113313.565000", "113315.565000", "113317.565000", "113319.565000", "113321.565000", "113323.565000", "113325.565000", "113327.565000", "113329.565000", "113331.565000", "113333.565000", "113335.565000", "113337.565000", "113339.565000", "113341.565000", "113343.565000", "113345.565000", "113347.565000", "113349.565000", "113351.565000", "113353.565000", "113355.565000", "113357.565000", "113359.565000", "113401.565000", "113403.565000", "113405.565000", "113407.565000", "113409.565000", "113411.565000", "113413.565000", "113415.565000", "113417.565000", "113419.565000", "113421.565000", "113423.565000", "113425.565000", "113427.565000", "113429.565000", "113431.565000", "113433.565000", "113435.565000", "113437.565000", "113439.565000", "113441.565000", "113443.565000", "113445.565000", "113447.565000", "113449.565000", "113451.565000", "113453.565000", "113455.565000", "113457.565000", "113459.565000", "113501.565000", "113503.565000", "113505.565000", "113507.565000", "113509.565000", "113511.565000", "113513.565000", "113515.565000", "113517.565000", "113519.565000", "113521.565000", "113523.565000", "113525.565000", "113527.565000", "113529.565000", "113531.565000", "113533.565000", "113535.565000", "113537.565000", "113539.565000", "113541.565000", "113543.565000", "113545.565000", "113547.565000", "113549.565000", "113551.565000", "113553.565000", "113555.565000", "113557.565000", "113559.565000", "113601.565000", "113603.565000", "113605.565000", "113607.565000", "113609.565000", "113611.565000", "113613.565000", "113615.565000", "113617.565000", "113619.565000", "113621.565000", "113623.565000", "113625.565000", "113627.565000", "113629.565000", "113631.565000", "113633.565000", "113635.565000", "113637.565000", "113639.565000", "113641.565000", "113643.565000", "113645.565000", "113647.565000", "113649.565000", "113651.565000", "113653.565000", "113655.565000", "113657.565000", "113659.565000", "113701.565000", "113703.565000", "113705.565000", "113707.565000", "113709.565000", "113711.565000", "113713.565000", "113715.565000", "113717.565000", "113719.565000", "113721.565000", "113723.565000", "113725.565000", "113727.565000", "113729.565000", "113731.565000", "113733.565000", "113735.565000", "113737.565000", "113739.565000", "113741.565000", "113743.565000", "113745.565000", "113747.565000", "113749.565000", "113751.565000", "113753.565000", "113755.565000", "113757.565000", "113759.565000", "113801.565000", "113803.565000", "113805.565000", "113807.565000", "113809.565000", "113811.565000", "113813.565000", "113815.565000", "113817.565000", "113819.565000", "113821.565000", "113823.565000", "113825.565000", "113827.565000", "113829.565000"],
      "ContentTime": ["113244.131000", "113244.134000", "113244.137000", "113244.139000", "113244.142000", "113244.145000", "113244.147000", "113244.150000", "113244.152000", "113244.155000", "113244.157000", "113244.160000", "113244.162000", "113244.165000", "113244.167000", "113244.170000", "113244.172000", "113244.175000", "113244.177000", "113244.180000", "113244.182000", "113244.185000", "113244.187000", "113244.190000", "113244.192000", "113244.195000", "113324.127000", "113324.130000", "113324.133000", "113324.135000", "113324.138000", "113324.140000", "113324.143000", "113324.145000", "113324.148000", "113324.150000", "113324.153000", "113324.155000", "113324.158000", "113324.160000", "113324.163000", "113324.165000", "113324.168000", "113324.171000", "113324.173000", "113324.176000", "113404.126000", "113404.129000", "113404.132000", "113404.134000", "113404.137000", "113404.139000", "113404.142000", "113404.144000", "113404.147000", "113404.150000", "113404.152000", "113404.155000", "113404.157000", "113404.160000", "113404.162000", "113404.165000", "113404.167000", "113404.170000", "113404.172000", "113404.175000", "113444.126000", "113444.129000", "113444.132000", "113444.134000", "113444.137000", "113444.139000", "113444.142000", "113444.144000", "113444.148000", "113444.150000", "113444.153000", "113444.155000", "113444.158000", "113444.160000", "113444.163000", "113444.165000", "113444.168000", "113444.170000", "113444.173000", "113444.175000", "113524.126000", "113524.129000", "113524.132000", "113524.134000", "113524.137000", "113524.139000", "113524.142000", "113524.144000", "113524.147000", "113524.149000", "113524.152000", "113524.154000", "113524.157000", "113524.159000", "113524.162000", "113524.164000", "113524.167000", "113524.169000", "113524.172000", "113524.190000", "113604.127000", "113604.130000", "113604.133000", "113604.135000", "113604.138000", "113604.140000", "113604.143000", "113604.145000", "113604.148000", "113604.150000", "113604.153000", "113604.155000", "113604.158000", "113604.160000", "113604.163000", "113604.165000", "113604.168000", "113604.170000", "113604.173000", "113604.175000", "113644.127000", "113644.129000", "113644.132000", "113644.134000", "113644.137000", "113644.139000", "113644.142000", "113644.145000", "113644.147000", "113644.150000", "113644.152000", "113644.155000", "113644.157000", "113644.160000", "113644.162000", "113644.165000", "113644.167000", "113644.170000", "113644.172000", "113644.175000", "113724.126000", "113724.129000", "113724.132000", "113724.134000", "113724.137000", "113724.139000", "113724.142000", "113724.145000", "113724.147000", "113724.150000", "113724.152000", "113724.155000", "113724.157000", "113724.160000", "113724.162000", "113724.165000", "113724.167000", "113724.170000", "113724.172000", "113724.175000", "113804.127000", "113804.130000", "113804.133000", "113804.135000", "113804.138000", "113804.140000", "113804.144000", "113804.146000", "113804.149000", "113804.151000", "113804.154000", "113804.156000", "113804.159000", "113804.161000", "113804.164000", "113804.166000", "113804.169000", "113804.171000", "113804.174000", "113804.176000", "113831.569000", "113831.572000", "113831.574000", "113831.577000", "113831.580000", "113831.582000", "113831.585000", "113831.587000", "113831.590000", "113831.593000", "113831.595000", "113831.598000", "113831.607000", "113831.610000"],
      "InstanceCreationTime": ["113244.131000", "113244.134000", "113244.137000", "113244.139000", "113244.142000", "113244.145000", "113244.147000", "113244.150000", "113244.152000", "113244.155000", "113244.157000", "113244.160000", "113244.162000", "113244.165000", "113244.167000", "113244.170000", "113244.172000", "113244.175000", "113244.177000", "113244.180000", "113244.182000", "113244.185000", "113244.187000", "113244.190000", "113244.192000", "113244.195000", "113324.127000", "113324.130000", "113324.133000", "113324.135000", "113324.138000", "113324.140000", "113324.143000", "113324.145000", "113324.148000", "113324.150000", "113324.153000", "113324.155000", "113324.158000", "113324.160000", "113324.163000", "113324.165000", "113324.168000", "113324.171000", "113324.173000", "113324.176000", "113404.126000", "113404.129000", "113404.132000", "113404.134000", "113404.137000", "113404.139000", "113404.142000", "113404.144000", "113404.147000", "113404.150000", "113404.152000", "113404.155000", "113404.157000", "113404.160000", "113404.162000", "113404.165000", "113404.167000", "113404.170000", "113404.172000", "113404.175000", "113444.126000", "113444.129000", "113444.132000", "113444.134000", "113444.137000", "113444.139000", "113444.142000", "113444.144000", "113444.148000", "113444.150000", "113444.153000", "113444.155000", "113444.158000", "113444.160000", "113444.163000", "113444.165000", "113444.168000", "113444.170000", "113444.173000", "113444.175000", "113524.126000", "113524.129000", "113524.132000", "113524.134000", "113524.137000", "113524.139000", "113524.142000", "113524.144000", "113524.147000", "113524.149000", "113524.152000", "113524.154000", "113524.157000", "113524.159000", "113524.162000", "113524.164000", "113524.167000", "113524.169000", "113524.172000", "113524.190000", "113604.127000", "113604.130000", "113604.133000", "113604.135000", "113604.138000", "113604.140000", "113604.143000", "113604.145000", "113604.148000", "113604.150000", "113604.153000", "113604.155000", "113604.158000", "113604.160000", "113604.163000", "113604.165000", "113604.168000", "113604.170000", "113604.173000", "113604.175000", "113644.127000", "113644.129000", "113644.132000", "113644.134000", "113644.137000", "113644.139000", "113644.142000", "113644.145000", "113644.147000", "113644.150000", "113644.152000", "113644.155000", "113644.157000", "113644.160000", "113644.162000", "113644.165000", "113644.167000", "113644.170000", "113644.172000", "113644.175000", "113724.126000", "113724.129000", "113724.132000", "113724.134000", "113724.137000", "113724.139000", "113724.142000", "113724.145000", "113724.147000", "113724.150000", "113724.152000", "113724.155000", "113724.157000", "113724.160000", "113724.162000", "113724.165000", "113724.167000", "113724.170000", "113724.172000", "113724.175000", "113804.127000", "113804.130000", "113804.133000", "113804.135000", "113804.138000", "113804.140000", "113804.144000", "113804.146000", "113804.149000", "113804.151000", "113804.154000", "113804.156000", "113804.159000", "113804.161000", "113804.164000", "113804.166000", "113804.169000", "113804.171000", "113804.174000", "113804.176000", "113831.569000", "113831.572000", "113831.574000", "113831.577000", "113831.580000", "113831.582000", "113831.585000", "113831.587000", "113831.590000", "113831.593000", "113831.595000", "113831.598000", "113831.607000", "113831.610000"],
      "InstanceNumber": [1, 2, 3, 4, 5, 6, 7, 8, 9, 10, 11, 12, 13, 14, 15, 16, 17, 18, 19, 20, 21, 22, 23, 24, 25, 26, 27, 28, 29, 30, 31, 32, 33, 34, 35, 36, 37, 38, 39, 40, 41, 42, 43, 44, 45, 46, 47, 48, 49, 50, 51, 52, 53, 54, 55, 56, 57, 58, 59, 60, 61, 62, 63, 64, 65, 66, 67, 68, 69, 70, 71, 72, 73, 74, 75, 76, 77, 78, 79, 80, 81, 82, 83, 84, 85, 86, 87, 88, 89, 90, 91, 92, 93, 94, 95, 96, 97, 98, 99, 100, 101, 102, 103, 104, 105, 106, 107, 108, 109, 110, 111, 112, 113, 114, 115, 116, 117, 118, 119, 120, 121, 122, 123, 124, 125, 126, 127, 128, 129, 130, 131, 132, 133, 134, 135, 136, 137, 138, 139, 140, 141, 142, 143, 144, 145, 146, 147, 148, 149, 150, 151, 152, 153, 154, 155, 156, 157, 158, 159, 160, 161, 162, 163, 164, 165, 166, 167, 168, 169, 170, 171, 172, 173, 174, 175, 176, 177, 178, 179, 180, 181, 182, 183, 184, 185, 186, 187, 188, 189, 190, 191, 192, 193, 194, 195, 196, 197, 198, 199, 200],
      "LargestImagePixelValue": [2321, 2320, 2318, 2324, 2320, 2322, 2324, 2319, 2315, 2316, 2311, 2316, 2324, 2313, 2313, 2326, 2322, 2313, 2318, 2319, 2312, 2319, 2311, 2321, 2313, 2319, 2312, 2311, 2314, 2318, 2324, 2317, 2315, 2319, 2313, 2317, 2319, 2316, 2322, 2318, 2311, 2312, 2317, 2326, 2314, 2313, 2317, 2326, 2318, 2314, 2318, 2314, 2321, 2317, 2315, 2313, 2321, 2317, 2319, 2318, 2312, 2321, 2315, 2312, 2313, 2315, 2308, 2312, 2312, 2314, 2321, 2316, 2310, 2308, 2314, 2311, 2315, 2323, 2316, 2317, 2321, 2313, 2312, 2313, 2320, 2319, 2312, 2311, 2310, 2315, 2317, 2314, 2312, 2309, 2310, 2313, 2318, 2307, 2307, 2308, 2320, 2313, 2310, 2315, 2312, 2316, 2312, 2314, 2313, 2306, 2315, 2309, 2315, 2311, 2311, 2314, 2314, 2314, 2307, 2305, 2311, 2314, 2311, 2314, 2310, 2314, 2313, 2315, 2316, 2313, 2310, 2308, 2310, 2320, 2317, 2305, 2309, 2315, 2312, 2319, 2311, 2304, 2305, 2319, 2306, 2309, 2305, 2306, 2309, 2318, 2309, 2307, 2314, 2315, 2310, 2303, 2310, 2307, 2305, 2303, 2316, 2319, 2318, 2308, 2306, 2318, 2306, 2311, 2311, 2309, 2309, 2309, 2312, 2311, 2314, 2304, 2313, 2311, 2308, 2313, 2317, 2308, 2311, 2317, 2311, 2310, 2299, 2309, 2312, 2308, 2305, 2309, 2311, 2310, 2312, 2309, 2306, 2308, 2310, 2317],
      "WindowCenter": [1054.0, 1054.0, 1054.0, 1054.0, 1054.0, 1054.0, 1054.0, 1054.0, 1054.0, 1054.0, 1054.0, 1054.0, 1054.0, 1054.0, 1054.0, 1054.0, 1054.0, 1054.0, 1053.0, 1054.0, 1053.0, 1054.0, 1053.0, 1053.0, 1053.0, 1054.0, 1053.0, 1053.0, 1053.0, 1053.0, 1053.0, 1053.0, 1053.0, 1053.0, 1053.0, 1053.0, 1053.0, 1053.0, 1053.0, 1053.0, 1053.0, 1053.0, 1053.0, 1053.0, 1053.0, 1053.0, 1053.0, 1053.0, 1053.0, 1053.0, 1053.0, 1053.0, 1053.0, 1053.0, 1053.0, 1053.0, 1053.0, 1053.0, 1053.0, 1053.0, 1053.0, 1053.0, 1053.0, 1053.0, 1053.0, 1053.0, 1053.0, 1053.0, 1053.0, 1053.0, 1053.0, 1053.0, 1053.0, 1053.0, 1053.0, 1053.0, 1053.0, 1053.0, 1053.0, 1053.0, 1053.0, 1053.0, 1053.0, 1053.0, 1053.0, 1053.0, 1053.0, 1053.0, 1053.0, 1053.0, 1053.0, 1053.0, 1053.0, 1053.0, 1053.0, 1053.0, 1053.0, 1053.0, 1053.0, 1053.0, 1053.0, 1053.0, 1053.0, 1053.0, 1053.0, 1053.0, 1053.0, 1053.0, 1053.0, 1053.0, 1053.0, 1053.0, 1053.0, 1053.0, 1053.0, 1053.0, 1053.0, 1053.0, 1053.0, 1053.0, 1053.0, 1053.0, 1053.0, 1053.0, 1053.0, 1053.0, 1053.0, 1053.0, 1053.0, 1053.0, 1053.0, 1053.0, 1053.0, 1053.0, 1053.0, 1053.0, 1053.0, 1053.0, 1053.0, 1052.0, 1052.0, 1053.0, 1052.0, 1052.0, 1052.0, 1052.0, 1053.0, 1052.0, 1052.0, 1053.0, 1052.0, 1053.0, 1052.0, 1053.0, 1053.0, 1053.0, 1052.0, 1053.0, 1053.0, 1053.0, 1052.0, 1053.0, 1053.0, 1053.0, 1053.0, 1053.0, 1053.0, 1053.0, 1052.0, 1053.0, 1053.0, 1052.0, 1052.0, 1052.0, 1052.0, 1053.0, 1052.0, 1052.0, 1053.0, 1053.0, 1052.0, 1053.0, 1053.0, 1052.0, 1052.0, 1052.0, 1052.0, 1052.0, 1052.0, 1052.0, 1052.0, 1052.0, 1052.0, 1052.0, 1052.0, 1052.0, 1052.0, 1052.0, 1052.0, 1052.0],
      "WindowWidth": [2370.0, 2369.0, 2369.0, 2369.0, 2369.0, 2369.0, 2369.0, 2369.0, 2369.0, 2369.0, 2369.0, 2369.0, 2369.0, 2369.0, 2369.0, 2369.0, 2369.0, 2369.0, 2369.0, 2369.0, 2369.0, 2369.0, 2369.0, 2369.0, 2369.0, 2368.0, 2368.0, 2369.0, 2368.0, 2368.0, 2368.0, 2368.0, 2369.0, 2368.0, 2368.0, 2368.0, 2368.0, 2368.0, 2368.0, 2368.0, 2368.0, 2368.0, 2368.0, 2368.0, 2368.0, 2368.0, 2368.0, 2368.0, 2368.0, 2368.0, 2368.0, 2368.0, 2368.0, 2368.0, 2368.0, 2368.0, 2368.0, 2368.0, 2368.0, 2368.0, 2368.0, 2368.0, 2367.0, 2368.0, 2368.0, 2367.0, 2367.0, 2367.0, 2367.0, 2367.0, 2367.0, 2367.0, 2367.0, 2367.0, 2367.0, 2368.0, 2368.0, 2368.0, 2368.0, 2368.0, 2369.0, 2368.0, 2368.0, 2368.0, 2368.0, 2368.0, 2368.0, 2368.0, 2368.0, 2368.0, 2368.0, 2368.0, 2368.0, 2367.0, 2368.0, 2367.0, 2367.0, 2367.0, 2367.0, 2367.0, 2367.0, 2367.0, 2367.0, 2367.0, 2367.0, 2367.0, 2367.0, 2367.0, 2367.0, 2367.0, 2367.0, 2367.0, 2367.0, 2367.0, 2367.0, 2367.0, 2367.0, 2367.0, 2367.0, 2367.0, 2366.0, 2366.0, 2366.0, 2366.0, 2366.0, 2366.0, 2366.0, 2366.0, 2366.0, 2366.0, 2366.0, 2366.0, 2366.0, 2366.0, 2366.0, 2366.0, 2366.0, 2366.0, 2366.0, 2366.0, 2366.0, 2366.0, 2366.0, 2366.0, 2366.0, 2366.0, 2366.0, 2366.0, 2366.0, 2366.0, 2366.0, 2366.0, 2366.0, 2366.0, 2366.0, 2366.0, 2365.0, 2366.0, 2366.0, 2366.0, 2366.0, 2366.0, 2366.0, 2366.0, 2366.0, 2366.0, 2366.0, 2366.0, 2366.0, 2366.0, 2366.0, 2366.0, 2366.0, 2366.0, 2366.0, 2366.0, 2366.0, 2366.0, 2366.0, 2366.0, 2366.0, 2366.0, 2366.0, 2365.0, 2365.0, 2365.0, 2366.0, 2365.0, 2366.0, 2366.0, 2365.0, 2365.0, 2365.0, 2365.0, 2365.0, 2366.0, 2365.0, 2366.0, 2365.0, 2366.0]
    },
    "slices": {}
  }
}