{
  "AcquisitionMatrixPE": 122,
  "AcquisitionNumber": 1,
  "AcquisitionTime": "10:02:26.482500",
  "BandwidthPerPixelPhaseEncode": 27.785,
  "BaseResolution": 122,
  "BodyPartExamined": "BRAIN",
  "CoilCombinationMethod": "Adaptive Combine",
  "ConsistencyInfo": "N4_VE11C_LATEST_20160120",
  "ConversionSoftware": "dcm2niix",
  "ConversionSoftwareVersion": "v1.0.20220720",
  "DerivedVendorReportedEchoSpacing": 0.000590011,
  "DeviceSerialNumber": "66112",
  "DiffusionScheme": "Monopolar",
  "DwellTime": 2e-06,
  "EchoTime": 0.068,
  "EchoTrainLength": 61,
  "EffectiveEchoSpacing": 0.000295005,
  "FlipAngle": 90,
  "HeudiconvVersion": "0.13.1",
  "ImageOrientationPatientDICOM": [0.999851, -0.000532687, -0.0172792, 0.00715491, 0.922651, 0.385571],
  "ImageOrientationText": "Tra>Cor(22.7)>Sag(-0.9)",
  "ImageType": [
    "ORIGINAL",
    "PRIMARY",
    "DIFFUSION",
    "NONE",
    "ND",
    "NORM"
],
  "ImagingFrequency": 123.252,
  "InPlanePhaseEncodingDirectionDICOM": "COL",
  "InstitutionAddress": "Maynard 3,Hanover,NH,US,03755",
  "InstitutionName": "Dartmouth College - PBS",
  "InstitutionalDepartmentName": "Department",
  "MRAcquisitionType": "2D",
  "MagneticFieldStrength": 3,
  "Manufacturer": "Siemens",
  "ManufacturersModelName": "Prisma",
  "Modality": "MR",
  "MultibandAccelerationFactor": 4,
  "NonlinearGradientCorrection": false,
  "ParallelReductionFactorInPlane": 2,
  "PartialFourier": 1,
  "PatientPosition": "HFS",
  "PercentPhaseFOV": 100,
  "PercentSampling": 100,
  "PhaseEncodingDirection": "j-",
  "PhaseEncodingSteps": 122,
  "PhaseResolution": 1,
  "PixelBandwidth": 2050,
  "ProcedureStepDescription": "dbic^QA",
  "ProtocolName": "dwi_acq-DTI-30-p2-s4",
  "PulseSequenceDetails": "%SiemensSeq%\\ep2d_diff",
  "ReceiveCoilActiveElements": "HEA;HEP",
  "ReceiveCoilName": "Head_32",
  "ReconMatrixPE": 122,
  "RefLinesPE": 38,
  "RepetitionTime": 3.6,
  "SAR": 0.159324,
  "ScanOptions": "FS",
  "ScanningSequence": "EP",
  "SequenceName": "*ep_b0",
  "SequenceVariant": "SK\\SP",
  "SeriesDescription": "dwi_acq-DTI-30-p2-s4",
  "SeriesNumber": 13,
  "ShimSetting": [4139, -7703, -7520, 241, -93, -13, 29, 56],
  "SliceThickness": 2,
  "SliceTiming": [2.58594, 0, 1.78906, 0.19531, 1.98438, 0.39844, 2.1875, 0.59375, 2.38281, 0.99219, 2.78125, 1.19531, 2.98438, 1.39062, 3.17969, 1.58594, 3.38281, 0.79688, 2.58594, 0, 1.78906, 0.19531, 1.98438, 0.39844, 2.1875, 0.59375, 2.38281, 0.99219, 2.78125, 1.19531, 2.98438, 1.39062, 3.17969, 1.58594, 3.38281, 0.79688, 2.58594, 0, 1.78906, 0.19531, 1.98438, 0.39844, 2.1875, 0.59375, 2.38281, 0.99219, 2.78125, 1.19531, 2.98438, 1.39062, 3.17969, 1.58594, 3.38281, 0.79688, 2.58594, 0, 1.78906, 0.19531, 1.98438, 0.39844, 2.1875, 0.59375, 2.38281, 0.99219, 2.78125, 1.19531, 2.98438, 1.39062, 3.17969, 1.58594, 3.38281, 0.79688],
  "SoftwareVersions": "syngo MR E11",
  "SpacingBetweenSlices": 2,
  "SpoilingState": true,
  "StationName": "AWP66112",
  "TotalReadoutTime": 0.0356956,
  "TxRefAmp": 230.264,
  "dcmmeta_affine": [
    [-1.966919183731079, 0.014075232669711113, -0.031474560499191284, 120.86295318603516],
    [0.0010479087941348553, 1.8150503635406494, 0.7712745666503906, -123.4229736328125],
    [-0.033991895616054535, -0.7584995627403259, 1.84503173828125, -10.023926734924316],
    [0.0, 0.0, 0.0, 1.0]
],
  "dcmmeta_reorient_transform": [
    [0.0, -1.0, 0.0, 121.0],
    [1.0, 0.0, 0.0, 0.0],
    [0.0, 0.0, -1.0, 71.0],
    [0.0, 0.0, 0.0, 1.0]
],
  "dcmmeta_shape": [122, 122, 72, 31],
  "dcmmeta_slice_dim": 2,
  "dcmmeta_version": 0.6,
  "global": {
    "const": {
      "AccessionNumber": "qa",
      "AcquisitionMatrix": [122, 0, 0, 122],
      "AngioFlag": "N",
      "BitsAllocated": 16,
      "BitsStored": 12,
      "BodyPartExamined": "BRAIN",
      "Columns": 122,
      "EchoNumbers": 1,
      "EchoTime": 68.0,
      "EchoTrainLength": 61,
      "FlipAngle": 90.0,
      "HighBit": 11,
      "ImageOrientationPatient": [0.9998505613444, -0.0005326869892, -0.0172792136357, 0.00715491002348, 0.92265059293795, 0.38557060392851],
      "ImageType": [
        "ORIGINAL",
        "PRIMARY",
        "DIFFUSION",
        "NONE",
        "ND",
        "NORM"
],
      "ImagedNucleus": "1H",
      "ImagingFrequency": 123.252346,
      "InPlanePhaseEncodingDirection": "COL",
      "MRAcquisitionType": "2D",
      "MagneticFieldStrength": 3.0,
      "Manufacturer": "SIEMENS",
      "ManufacturerModelName": "Prisma",
      "Modality": "MR",
      "NumberOfAverages": 1.0,
      "NumberOfPhaseEncodingSteps": 122,
      "PercentPhaseFieldOfView": 100.0,
      "PercentSampling": 100.0,
      "PerformedProcedureStepStartTime": "092455.080000",
      "PhotometricInterpretation": "MONOCHROME2",
      "PixelBandwidth": 2050.0,
      "PixelRepresentation": 0,
      "PixelSpacing": [1.9672131538391, 1.9672131538391],
      "ProtocolName": "dwi_acq-DTI-30-p2-s4",
      "RepetitionTime": 3600.0,
      "Rows": 122,
      "SAR": 0.15932393784201,
      "SamplesPerPixel": 1,
      "ScanOptions": "FS",
      "ScanningSequence": "EP",
      "SequenceVariant": [
        "SK",
        "SP"
],
      "SeriesDescription": "dwi_acq-DTI-30-p2-s4",
      "SeriesNumber": 13,
      "SeriesTime": "100235.498000",
      "SliceThickness": 2.0,
      "SmallestImagePixelValue": 0,
      "SoftwareVersions": "syngo MR E11",
      "SpacingBetweenSlices": 2.0,
      "SpecificCharacterSet": "ISO_IR 100",
      "StudyID": "6",
      "StudyTime": "092455.032000",
      "TransmitCoilName": "Body",
      "VariableFlipAngleFlag": "N",
      "WindowCenterWidthExplanation": "Algo1",
      "dBdt": 0.0},
    "slices": {
      "AcquisitionTime": ["100226.482500", "100223.897500", "100225.687500", "100224.095000", "100225.885000", "100224.295000", "100226.085000", "100224.492500", "100226.282500", "100224.892500", "100226.680000", "100225.090000", "100226.880000", "100225.290000", "100227.080000", "100225.487500", "100227.277500", "100224.692500", "100226.482500", "100223.897500", "100225.687500", "100224.095000", "100225.885000", "100224.295000", "100226.085000", "100224.492500", "100226.282500", "100224.892500", "100226.680000", "100225.090000", "100226.880000", "100225.290000", "100227.080000", "100225.487500", "100227.277500", "100224.692500", "100226.482500", "100223.897500", "100225.687500", "100224.095000", "100225.885000", "100224.295000", "100226.085000", "100224.492500", "100226.282500", "100224.892500", "100226.680000", "100225.090000", "100226.880000", "100225.290000", "100227.080000", "100225.487500", "100227.277500", "100224.692500", "100226.482500", "100223.897500", "100225.687500", "100224.095000", "100225.885000", "100224.295000", "100226.085000", "100224.492500", "100226.282500", "100224.892500", "100226.680000", "100225.090000", "100226.880000", "100225.290000", "100227.080000", "100225.487500", "100227.277500", "100224.692500", "100230.082500", "100227.497500", "100229.287500", "100227.695000", "100229.485000", "100227.895000", "100229.685000", "100228.092500", "100229.882500", "100228.492500", "100230.280000", "100228.690000", "100230.480000", "100228.890000", "100230.680000", "100229.087500", "100230.877500", "100228.292500", "100230.082500", "100227.497500", "100229.287500", "100227.695000", "100229.485000", "100227.895000", "100229.685000", "100228.092500", "100229.882500", "100228.492500", "100230.280000", "100228.690000", "100230.480000", "100228.890000", "100230.680000", "100229.087500", "100230.877500", "100228.292500", "100230.082500", "100227.497500", "100229.287500", "100227.695000", "100229.485000", "100227.895000", "100229.685000", "100228.092500", "100229.882500", "100228.492500", "100230.280000", "100228.690000", "100230.480000", "100228.890000", "100230.680000", "100229.087500", "100230.877500", "100228.292500", "100230.082500", "100227.497500", "100229.287500", "100227.695000", "100229.485000", "100227.895000", "100229.685000", "100228.092500", "100229.882500", "100228.492500", "100230.280000", "100228.690000", "100230.480000", "100228.890000", "100230.680000", "100229.087500", "100230.877500", "100228.292500", "100233.682500", "100231.097500", "100232.887500", "100231.295000", "100233.085000", "100231.495000", "100233.285000", "100231.692500", "100233.482500", "100232.092500", "100233.880000", "100232.290000", "100234.080000", "100232.490000", "100234.280000", "100232.687500", "100234.477500", "100231.892500", "100233.682500", "100231.097500", "100232.887500", "100231.295000", "100233.085000", "100231.495000", "100233.285000", "100231.692500", "100233.482500", "100232.092500", "100233.880000", "100232.290000", "100234.080000", "100232.490000", "100234.280000", "100232.687500", "100234.477500", "100231.892500", "100233.682500", "100231.097500", "100232.887500", "100231.295000", "100233.085000", "100231.495000", "100233.285000", "100231.692500", "100233.482500", "100232.092500", "100233.880000", "100232.290000", "100234.080000", "100232.490000", "100234.280000", "100232.687500", "100234.477500", "100231.892500", "100233.682500", "100231.097500", "100232.887500", "100231.295000", "100233.085000", "100231.495000", "100233.285000", "100231.692500", "100233.482500", "100232.092500", "100233.880000", "100232.290000", "100234.080000", "100232.490000", "100234.280000", "100232.687500", "100234.477500", "100231.892500", "100237.282500", "100234.697500", "100236.487500", "100234.895000", "100236.685000", "100235.095000", "100236.885000", "100235.292500", "100237.082500", "100235.692500", "100237.480000", "100235.890000", "100237.680000", "100236.090000", "100237.880000", "100236.287500", "100238.077500", "100235.492500", "100237.282500", "100234.697500", "100236.487500", "100234.895000", "100236.685000", "100235.095000", "100236.885000", "100235.292500", "100237.082500", "100235.692500", "100237.480000", "100235.890000", "100237.680000", "100236.090000", "100237.880000", "100236.287500", "100238.077500", "100235.492500", "100237.282500", "100234.697500", "100236.487500", "100234.895000", "100236.685000", "100235.095000", "100236.885000", "100235.292500", "100237.082500", "100235.692500", "100237.480000", "100235.890000", "100237.680000", "100236.090000", "100237.880000", "100236.287500", "100238.077500", "100235.492500", "100237.282500", "100234.697500", "100236.487500", "100234.895000", "100236.685000", "100235.095000", "100236.885000", "100235.292500", "100237.082500", "100235.692500", "100237.480000", "100235.890000", "100237.680000", "100236.090000", "100237.880000", "100236.287500", "100238.077500", "100235.492500", "100240.882500", "100238.297500", "100240.087500", "100238.495000", "100240.285000", "100238.695000", "100240.485000", "100238.892500", "100240.682500", "100239.292500", "100241.080000", "100239.490000", "100241.280000", "100239.690000", "100241.480000", "100239.887500", "100241.677500", "100239.092500", "100240.882500", "100238.297500", "100240.087500", "100238.495000", "100240.285000", "100238.695000", "100240.485000", "100238.892500", "100240.682500", "100239.292500", "100241.080000", "100239.490000", "100241.280000", "100239.690000", "100241.480000", "100239.887500", "100241.677500", "100239.092500", "100240.882500", "100238.297500", "100240.087500", "100238.495000", "100240.285000", "100238.695000", "100240.485000", "100238.892500", "100240.682500", "100239.292500", "100241.080000", "100239.490000", "100241.280000", "100239.690000", "100241.480000", "100239.887500", "100241.677500", "100239.092500", "100240.882500", "100238.297500", "100240.087500", "100238.495000", "100240.285000", "100238.695000", "100240.485000", "100238.892500", "100240.682500", "100239.292500", "100241.080000", "100239.490000", "100241.280000", "100239.690000", "100241.480000", "100239.887500", "100241.677500", "100239.092500", "100244.482500", "100241.897500", "100243.687500", "100242.095000", "100243.885000", "100242.295000", "100244.085000", "100242.492500", "100244.282500", "100242.892500", "100244.680000", "100243.090000", "100244.880000", "100243.290000", "100245.080000", "100243.487500", "100245.277500", "100242.692500", "100244.482500", "100241.897500", "100243.687500", "100242.095000", "100243.885000", "100242.295000", "100244.085000", "100242.492500", "100244.282500", "100242.892500", "100244.680000", "100243.090000", "100244.880000", "100243.290000", "100245.080000", "100243.487500", "100245.277500", "100242.692500", "100244.482500", "100241.897500", "100243.687500", "100242.095000", "100243.885000", "100242.295000", "100244.085000", "100242.492500", "100244.282500", "100242.892500", "100244.680000", "100243.090000", "100244.880000", "100243.290000", "100245.080000", "100243.487500", "100245.277500", "100242.692500", "100244.482500", "100241.897500", "100243.687500", "100242.095000", "100243.885000", "100242.295000", "100244.085000", "100242.492500", "100244.282500", "100242.892500", "100244.680000", "100243.090000", "100244.880000", "100243.290000", "100245.080000", "100243.487500", "100245.277500", "100242.692500", "100248.082500", "100245.497500", "100247.287500", "100245.695000", "100247.485000", "100245.895000", "100247.685000", "100246.092500", "100247.882500", "100246.492500", "100248.280000", "100246.690000", "100248.480000", "100246.890000", "100248.680000", "100247.087500", "100248.877500", "100246.292500", "100248.082500", "100245.497500", "100247.287500", "100245.695000", "100247.485000", "100245.895000", "100247.685000", "100246.092500", "100247.882500", "100246.492500", "100248.280000", "100246.690000", "100248.480000", "100246.890000", "100248.680000", "100247.087500", "100248.877500", "100246.292500", "100248.082500", "100245.497500", "100247.287500", "100245.695000", "100247.485000", "100245.895000", "100247.685000", "100246.092500", "100247.882500", "100246.492500", "100248.280000", "100246.690000", "100248.480000", "100246.890000", "100248.680000", "100247.087500", "100248.877500", "100246.292500", "100248.082500", "100245.497500", "100247.287500", "100245.695000", "100247.485000", "100245.895000", "100247.685000", "100246.092500", "100247.882500", "100246.492500", "100248.280000", "100246.690000", "100248.480000", "100246.890000", "100248.680000", "100247.087500", "100248.877500", "100246.292500", "100251.682500", "100249.097500", "100250.887500", "100249.295000", "100251.085000", "100249.495000", "100251.285000", "100249.692500", "100251.482500", "100250.092500", "100251.880000", "100250.290000", "100252.080000", "100250.490000", "100252.280000", "100250.687500", "100252.477500", "100249.892500", "100251.682500", "100249.097500", "100250.887500", "100249.295000", "100251.085000", "100249.495000", "100251.285000", "100249.692500", "100251.482500", "100250.092500", "100251.880000", "100250.290000", "100252.080000", "100250.490000", "100252.280000", "100250.687500", "100252.477500", "100249.892500", "100251.682500", "100249.097500", "100250.887500", "100249.295000", "100251.085000", "100249.495000", "100251.285000", "100249.692500", "100251.482500", "100250.092500", "100251.880000", "100250.290000", "100252.080000", "100250.490000", "100252.280000", "100250.687500", "100252.477500", "100249.892500", "100251.682500", "100249.097500", "100250.887500", "100249.295000", "100251.085000", "100249.495000", "100251.285000", "100249.692500", "100251.482500", "100250.092500", "100251.880000", "100250.290000", "100252.080000", "100250.490000", "100252.280000", "100250.687500", "100252.477500", "100249.892500", "100255.282500", "100252.697500", "100254.487500", "100252.895000", "100254.685000", "100253.095000", "100254.885000", "100253.292500", "100255.082500", "100253.692500", "100255.480000", "100253.890000", "100255.680000", "100254.090000", "100255.880000", "100254.287500", "100256.077500", "100253.492500", "100255.282500", "100252.697500", "100254.487500", "100252.895000", "100254.685000", "100253.095000", "100254.885000", "100253.292500", "100255.082500", "100253.692500", "100255.480000", "100253.890000", "100255.680000", "100254.090000", "100255.880000", "100254.287500", "100256.077500", "100253.492500", "100255.282500", "100252.697500", "100254.487500", "100252.895000", "100254.685000", "100253.095000", "100254.885000", "100253.292500", "100255.082500", "100253.692500", "100255.480000", "100253.890000", "100255.680000", "100254.090000", "100255.880000", "100254.287500", "100256.077500", "100253.492500", "100255.282500", "100252.697500", "100254.487500", "100252.895000", "100254.685000", "100253.095000", "100254.885000", "100253.292500", "100255.082500", "100253.692500", "100255.480000", "100253.890000", "100255.680000", "100254.090000", "100255.880000", "100254.287500", "100256.077500", "100253.492500", "100258.882500", "100256.297500", "100258.087500", "100256.495000", "100258.285000", "100256.695000", "100258.485000", "100256.892500", "100258.682500", "100257.292500", "100259.080000", "100257.490000", "100259.280000", "100257.690000", "100259.480000", "100257.887500", "100259.677500", "100257.092500", "100258.882500", "100256.297500", "100258.087500", "100256.495000", "100258.285000", "100256.695000", "100258.485000", "100256.892500", "100258.682500", "100257.292500", "100259.080000", "100257.490000", "100259.280000", "100257.690000", "100259.480000", "100257.887500", "100259.677500", "100257.092500", "100258.882500", "100256.297500", "100258.087500", "100256.495000", "100258.285000", "100256.695000", "100258.485000", "100256.892500", "100258.682500", "100257.292500", "100259.080000", "100257.490000", "100259.280000", "100257.690000", "100259.480000", "100257.887500", "100259.677500", "100257.092500", "100258.882500", "100256.297500", "100258.087500", "100256.495000", "100258.285000", "100256.695000", "100258.485000", "100256.892500", "100258.682500", "100257.292500", "100259.080000", "100257.490000", "100259.280000", "100257.690000", "100259.480000", "100257.887500", "100259.677500", "100257.092500", "100302.482500", "100259.897500", "100301.687500", "100300.095000", "100301.885000", "100300.295000", "100302.085000", "100300.492500", "100302.282500", "100300.892500", "100302.680000", "100301.090000", "100302.880000", "100301.290000", "100303.080000", "100301.487500", "100303.277500", "100300.692500", "100302.482500", "100259.897500", "100301.687500", "100300.095000", "100301.885000", "100300.295000", "100302.085000", "100300.492500", "100302.282500", "100300.892500", "100302.680000", "100301.090000", "100302.880000", "100301.290000", "100303.080000", "100301.487500", "100303.277500", "100300.692500", "100302.482500", "100259.897500", "100301.687500", "100300.095000", "100301.885000", "100300.295000", "100302.085000", "100300.492500", "100302.282500", "100300.892500", "100302.680000", "100301.090000", "100302.880000", "100301.290000", "100303.080000", "100301.487500", "100303.277500", "100300.692500", "100302.482500", "100259.897500", "100301.687500", "100300.095000", "100301.885000", "100300.295000", "100302.085000", "100300.492500", "100302.282500", "100300.892500", "100302.680000", "100301.090000", "100302.880000", "100301.290000", "100303.080000", "100301.487500", "100303.277500", "100300.692500", "100306.082500", "100303.497500", "100305.287500", "100303.695000", "100305.485000", "100303.895000", "100305.685000", "100304.092500", "100305.882500", "100304.492500", "100306.280000", "100304.690000", "100306.480000", "100304.890000", "100306.680000", "100305.087500", "100306.877500", "100304.292500", "100306.082500", "100303.497500", "100305.287500", "100303.695000", "100305.485000", "100303.895000", "100305.685000", "100304.092500", "100305.882500", "100304.492500", "100306.280000", "100304.690000", "100306.480000", "100304.890000", "100306.680000", "100305.087500", "100306.877500", "100304.292500", "100306.082500", "100303.497500", "100305.287500", "100303.695000", "100305.485000", "100303.895000", "100305.685000", "100304.092500", "100305.882500", "100304.492500", "100306.280000", "100304.690000", "100306.480000", "100304.890000", "100306.680000", "100305.087500", "100306.877500", "100304.292500", "100306.082500", "100303.497500", "100305.287500", "100303.695000", "100305.485000", "100303.895000", "100305.685000", "100304.092500", "100305.882500", "100304.492500", "100306.280000", "100304.690000", "100306.480000", "100304.890000", "100306.680000", "100305.087500", "100306.877500", "100304.292500", "100309.682500", "100307.097500", "100308.887500", "100307.295000", "100309.085000", "100307.495000", "100309.285000", "100307.692500", "100309.482500", "100308.092500", "100309.880000", "100308.290000", "100310.080000", "100308.490000", "100310.280000", "100308.687500", "100310.477500", "100307.892500", "100309.682500", "100307.097500", "100308.887500", "100307.295000", "100309.085000", "100307.495000", "100309.285000", "100307.692500", "100309.482500", "100308.092500", "100309.880000", "100308.290000", "100310.080000", "100308.490000", "100310.280000", "100308.687500", "100310.477500", "100307.892500", "100309.682500", "100307.097500", "100308.887500", "100307.295000", "100309.085000", "100307.495000", "100309.285000", "100307.692500", "100309.482500", "100308.092500", "100309.880000", "100308.290000", "100310.080000", "100308.490000", "100310.280000", "100308.687500", "100310.477500", "100307.892500", "100309.682500", "100307.097500", "100308.887500", "100307.295000", "100309.085000", "100307.495000", "100309.285000", "100307.692500", "100309.482500", "100308.092500", "100309.880000", "100308.290000", "100310.080000", "100308.490000", "100310.280000", "100308.687500", "100310.477500", "100307.892500", "100313.282500", "100310.697500", "100312.487500", "100310.895000", "100312.685000", "100311.095000", "100312.885000", "100311.292500", "100313.082500", "100311.692500", "100313.480000", "100311.890000", "100313.680000", "100312.090000", "100313.880000", "100312.287500", "100314.077500", "100311.492500", "100313.282500", "100310.697500", "100312.487500", "100310.895000", "100312.685000", "100311.095000", "100312.885000", "100311.292500", "100313.082500", "100311.692500", "100313.480000", "100311.890000", "100313.680000", "100312.090000", "100313.880000", "100312.287500", "100314.077500", "100311.492500", "100313.282500", "100310.697500", "100312.487500", "100310.895000", "100312.685000", "100311.095000", "100312.885000", "100311.292500", "100313.082500", "100311.692500", "100313.480000", "100311.890000", "100313.680000", "100312.090000", "100313.880000", "100312.287500", "100314.077500", "100311.492500", "100313.282500", "100310.697500", "100312.487500", "100310.895000", "100312.685000", "100311.095000", "100312.885000", "100311.292500", "100313.082500", "100311.692500", "100313.480000", "100311.890000", "100313.680000", "100312.090000", "100313.880000", "100312.287500", "100314.077500", "100311.492500", "100316.882500", "100314.297500", "100316.087500", "100314.495000", "100316.285000", "100314.695000", "100316.485000", "100314.892500", "100316.682500", "100315.292500", "100317.080000", "100315.490000", "100317.280000", "100315.690000", "100317.480000", "100315.887500", "100317.677500", "100315.092500", "100316.882500", "100314.297500", "100316.087500", "100314.495000", "100316.285000", "100314.695000", "100316.485000", "100314.892500", "100316.682500", "100315.292500", "100317.080000", "100315.490000", "100317.280000", "100315.690000", "100317.480000", "100315.887500", "100317.677500", "100315.092500", "100316.882500", "100314.297500", "100316.087500", "100314.495000", "100316.285000", "100314.695000", "100316.485000", "100314.892500", "100316.682500", "100315.292500", "100317.080000", "100315.490000", "100317.280000", "100315.690000", "100317.480000", "100315.887500", "100317.677500", "100315.092500", "100316.882500", "100314.297500", "100316.087500", "100314.495000", "100316.285000", "100314.695000", "100316.485000", "100314.892500", "100316.682500", "100315.292500", "100317.080000", "100315.490000", "100317.280000", "100315.690000", "100317.480000", "100315.887500", "100317.677500", "100315.092500", "100320.482500", "100317.897500", "100319.687500", "100318.095000", "100319.885000", "100318.295000", "100320.085000", "100318.492500", "100320.282500", "100318.892500", "100320.680000", "100319.090000", "100320.880000", "100319.290000", "100321.080000", "100319.487500", "100321.277500", "100318.692500", "100320.482500", "100317.897500", "100319.687500", "100318.095000", "100319.885000", "100318.295000", "100320.085000", "100318.492500", "100320.282500", "100318.892500", "100320.680000", "100319.090000", "100320.880000", "100319.290000", "100321.080000", "100319.487500", "100321.277500", "100318.692500", "100320.482500", "100317.897500", "100319.687500", "100318.095000", "100319.885000", "100318.295000", "100320.085000", "100318.492500", "100320.282500", "100318.892500", "100320.680000", "100319.090000", "100320.880000", "100319.290000", "100321.080000", "100319.487500", "100321.277500", "100318.692500", "100320.482500", "100317.897500", "100319.687500", "100318.095000", "100319.885000", "100318.295000", "100320.085000", "100318.492500", "100320.282500", "100318.892500", "100320.680000", "100319.090000", "100320.880000", "100319.290000", "100321.080000", "100319.487500", "100321.277500", "100318.692500", "100324.082500", "100321.497500", "100323.287500", "100321.695000", "100323.485000", "100321.895000", "100323.685000", "100322.092500", "100323.882500", "100322.492500", "100324.280000", "100322.690000", "100324.480000", "100322.890000", "100324.680000", "100323.087500", "100324.877500", "100322.292500", "100324.082500", "100321.497500", "100323.287500", "100321.695000", "100323.485000", "100321.895000", "100323.685000", "100322.092500", "100323.882500", "100322.492500", "100324.280000", "100322.690000", "100324.480000", "100322.890000", "100324.680000", "100323.087500", "100324.877500", "100322.292500", "100324.082500", "100321.497500", "100323.287500", "100321.695000", "100323.485000", "100321.895000", "100323.685000", "100322.092500", "100323.882500", "100322.492500", "100324.280000", "100322.690000", "100324.480000", "100322.890000", "100324.680000", "100323.087500", "100324.877500", "100322.292500", "100324.082500", "100321.497500", "100323.287500", "100321.695000", "100323.485000", "100321.895000", "100323.685000", "100322.092500", "100323.882500", "100322.492500", "100324.280000", "100322.690000", "100324.480000", "100322.890000", "100324.680000", "100323.087500", "100324.877500", "100322.292500", "100327.682500", "100325.097500", "100326.887500", "100325.295000", "100327.085000", "100325.495000", "100327.285000", "100325.692500", "100327.482500", "100326.092500", "100327.880000", "100326.290000", "100328.080000", "100326.490000", "100328.280000", "100326.687500", "100328.477500", "100325.892500", "100327.682500", "100325.097500", "100326.887500", "100325.295000", "100327.085000", "100325.495000", "100327.285000", "100325.692500", "100327.482500", "100326.092500", "100327.880000", "100326.290000", "100328.080000", "100326.490000", "100328.280000", "100326.687500", "100328.477500", "100325.892500", "100327.682500", "100325.097500", "100326.887500", "100325.295000", "100327.085000", "100325.495000", "100327.285000", "100325.692500", "100327.482500", "100326.092500", "100327.880000", "100326.290000", "100328.080000", "100326.490000", "100328.280000", "100326.687500", "100328.477500", "100325.892500", "100327.682500", "100325.097500", "100326.887500", "100325.295000", "100327.085000", "100325.495000", "100327.285000", "100325.692500", "100327.482500", "100326.092500", "100327.880000", "100326.290000", "100328.080000", "100326.490000", "100328.280000", "100326.687500", "100328.477500", "100325.892500", "100331.282500", "100328.697500", "100330.487500", "100328.895000", "100330.685000", "100329.095000", "100330.885000", "100329.292500", "100331.082500", "100329.692500", "100331.480000", "100329.890000", "100331.680000", "100330.090000", "100331.880000", "100330.287500", "100332.077500", "100329.492500", "100331.282500", "100328.697500", "100330.487500", "100328.895000", "100330.685000", "100329.095000", "100330.885000", "100329.292500", "100331.082500", "100329.692500", "100331.480000", "100329.890000", "100331.680000", "100330.090000", "100331.880000", "100330.287500", "100332.077500", "100329.492500", "100331.282500", "100328.697500", "100330.487500", "100328.895000", "100330.685000", "100329.095000", "100330.885000", "100329.292500", "100331.082500", "100329.692500", "100331.480000", "100329.890000", "100331.680000", "100330.090000", "100331.880000", "100330.287500", "100332.077500", "100329.492500", "100331.282500", "100328.697500", "100330.487500", "100328.895000", "100330.685000", "100329.095000", "100330.885000", "100329.292500", "100331.082500", "100329.692500", "100331.480000", "100329.890000", "100331.680000", "100330.090000", "100331.880000", "100330.287500", "100332.077500", "100329.492500", "100334.882500", "100332.297500", "100334.087500", "100332.495000", "100334.285000", "100332.695000", "100334.485000", "100332.892500", "100334.682500", "100333.292500", "100335.080000", "100333.490000", "100335.280000", "100333.690000", "100335.480000", "100333.887500", "100335.677500", "100333.092500", "100334.882500", "100332.297500", "100334.087500", "100332.495000", "100334.285000", "100332.695000", "100334.485000", "100332.892500", "100334.682500", "100333.292500", "100335.080000", "100333.490000", "100335.280000", "100333.690000", "100335.480000", "100333.887500", "100335.677500", "100333.092500", "100334.882500", "100332.297500", "100334.087500", "100332.495000", "100334.285000", "100332.695000", "100334.485000", "100332.892500", "100334.682500", "100333.292500", "100335.080000", "100333.490000", "100335.280000", "100333.690000", "100335.480000", "100333.887500", "100335.677500", "100333.092500", "100334.882500", "100332.297500", "100334.087500", "100332.495000", "100334.285000", "100332.695000", "100334.485000", "100332.892500", "100334.682500", "100333.292500", "100335.0800