{
  "AcquisitionMatrixPE": 80,
  "AcquisitionNumber": 1,
  "AcquisitionTime": "08:51:39.425000",
  "BandwidthPerPixelPhaseEncode": 25,
  "BaseResolution": 80,
  "BodyPartExamined": "BRAIN",
  "CoilCombinationMethod": "Sum of Squares",
  "ConsistencyInfo": "N4_VE11E_LATEST_20181129",
  "ConversionSoftware": "dcm2niix",
  "ConversionSoftwareVersion": "v1.0.20220720",
  "DerivedVendorReportedEchoSpacing": 0.0005,
  "DeviceSerialNumber": "66112",
  "DwellTime": 2.7e-06,
  "EchoTime": 0.03,
  "EchoTrainLength": 80,
  "EffectiveEchoSpacing": 0.0005,
  "FlipAngle": 77,
  "HeudiconvVersion": "0.13.1",
  "ImageOrientationPatientDICOM": [0.990901, -0.134591, 0.000806835, 0.129047, 0.951757, 0.278399],
  "ImageOrientationText": "Tra>Cor(16.0)>Sag(2.2)",
  "ImageType": [
    "ORIGINAL",
    "PRIMARY",
    "M",
    "ND",
    "NORM",
    "MOSAIC"
],
  "ImagingFrequency": 123.259,
  "InPlanePhaseEncodingDirectionDICOM": "COL",
  "InstitutionAddress": "Maynard 3,Hanover,NH,US,03755",
  "InstitutionName": "Dartmouth College - PBS",
  "InstitutionalDepartmentName": "Department",
  "MRAcquisitionType": "2D",
  "MagneticFieldStrength": 3,
  "Manufacturer": "Siemens",
  "ManufacturersModelName": "Prisma",
  "MatrixCoilMode": "SENSE",
  "Modality": "MR",
  "NonlinearGradientCorrection": false,
  "PartialFourier": 1,
  "PatientPosition": "HFS",
  "PercentPhaseFOV": 100,
  "PercentSampling": 100,
  "PhaseEncodingDirection": "j-",
  "PhaseEncodingSteps": 80,
  "PhaseResolution": 1,
  "PixelBandwidth": 2315,
  "ProcedureStepDescription": "dbic^QA",
  "ProtocolName": "func-bold_fa-77",
  "PulseSequenceDetails": "%SiemensSeq%\\ep2d_bold",
  "ReceiveCoilActiveElements": "HC1-7;NC1,2",
  "ReceiveCoilName": "HeadNeck_64",
  "ReconMatrixPE": 80,
  "RepetitionTime": 2,
  "SAR": 0.032121,
  "ScanOptions": "FS",
  "ScanningSequence": "EP",
  "SequenceName": "*epfid2d1_80",
  "SequenceVariant": "SK",
  "SeriesDescription": "func-bold_fa-77",
  "SeriesNumber": 7,
  "ShimSetting": [4218, -7746, -7482, -127, -157, -194, -54, 86],
  "SliceThickness": 3.5,
  "SliceTiming": [0.99, 0, 1.055, 0.065, 1.12, 0.1325, 1.1875, 0.1975, 1.2525, 0.2625, 1.32, 0.33, 1.385, 0.395, 1.45, 0.4625, 1.5175, 0.5275, 1.5825, 0.5925, 1.65, 0.66, 1.715, 0.725, 1.78, 0.7925, 1.8475, 0.8575, 1.9125, 0.9225],
  "SoftwareVersions": "syngo MR E11",
  "SpacingBetweenSlices": 3.99,
  "StationName": "AWP66112",
  "TotalReadoutTime": 0.0395,
  "TxRefAmp": 214.024,
  "dcmmeta_affine": [
    [-2.972702741622925, 0.3871418833732605, 0.1525689959526062, 101.47378540039062],
    [0.4037724435329437, 2.8552701473236084, 1.1002888679504395, -140.2882080078125],
    [0.0024205052759498358, -0.8351966738700867, 3.8322560787200928, -23.38861656188965],
    [0.0, 0.0, 0.0, 1.0]
],
  "dcmmeta_reorient_transform": [
    [0.0, -1.0, 0.0, 79.0],
    [1.0, 0.0, 0.0, 0.0],
    [0.0, 0.0, 1.0, 0.0],
    [0.0, 0.0, 0.0, 1.0]
],
  "dcmmeta_shape": [80, 80, 30, 200],
  "dcmmeta_slice_dim": 2,
  "dcmmeta_version": 0.6,
  "global": {
    "const": {
      "AccessionNumber": "qa64",
      "AcquisitionMatrix": [80, 0, 0, 80],
      "AngioFlag": "N",
      "BitsAllocated": 16,
      "BitsStored": 12,
      "BodyPartExamined": "BRAIN",
      "Columns": 480,
      "EchoNumbers": 1,
      "EchoTime": 30.0,
      "EchoTrainLength": 80,
      "FlipAngle": 77.0,
      "HighBit": 11,
      "ImageOrientationPatient": [0.99090093454774, -0.1345908129462, 0.0008068351112, 0.12904729796539, 0.95175671621922, 0.2783989008948],
      "ImagePositionPatient": [-804.0269367753, -575.57768060409, -256.89259754517],
      "ImageType": [
        "ORIGINAL",
        "PRIMARY",
        "M",
        "ND",
        "NORM",
        "MOSAIC"
],
      "ImagedNucleus": "1H",
      "ImagingFrequency": 123.259262,
      "InPlanePhaseEncodingDirection": "COL",
      "MRAcquisitionType": "2D",
      "MagneticFieldStrength": 3.0,
      "Manufacturer": "SIEMENS",
      "ManufacturerModelName": "Prisma",
      "Modality": "MR",
      "NumberOfAverages": 1.0,
      "NumberOfPhaseEncodingSteps": 80,
      "PercentPhaseFieldOfView": 100.0,
      "PercentSampling": 100.0,
      "PerformedProcedureStepStartTime": "084136.835000",
      "PhotometricInterpretation": "MONOCHROME2",
      "PixelBandwidth": 2315.0,
      "PixelRepresentation": 0,
      "PixelSpacing": [3.0, 3.0],
      "ProtocolName": "func-bold_fa-77",
      "RepetitionTime": 2000.0,
      "Rows": 480,
      "SAR": 0.03212103684131,
      "SamplesPerPixel": 1,
      "ScanOptions": "FS",
      "ScanningSequence": "EP",
      "SequenceName": "*epfid2d1_80",
      "SequenceVariant": "SK",
      "SeriesDescription": "func-bold_fa-77",
      "SeriesNumber": 7,
      "SeriesTime": "085228.746000",
      "SliceLocation": -57.269914104656,
      "SliceThickness": 3.5,
      "SmallestImagePixelValue": 0,
      "SoftwareVersions": "syngo MR E11",
      "SpacingBetweenSlices": 3.9900000313999,
      "SpecificCharacterSet": "ISO_IR 100",
      "StudyID": "4",
      "StudyTime": "084136.758000",
      "TransmitCoilName": "Body",
      "VariableFlipAngleFlag": "N",
      "WindowCenterWidthExplanation": "Algo1"
    },
    "slices": {}
  },
  "time": {
    "samples": {
      "AcquisitionNumber": [1, 2, 3, 4, 5, 6, 7, 8, 9, 10, 11, 12, 13, 14, 15, 16, 17, 18, 19, 20, 21, 22, 23, 24, 25, 26, 27, 28, 29, 30, 31, 32, 33, 34, 35, 36, 37, 38, 39, 40, 41, 42, 43, 44, 45, 46, 47, 48, 49, 50, 51, 52, 53, 54, 55, 56, 57, 58, 59, 60, 61, 62, 63, 64, 65, 66, 67, 68, 69, 70, 71, 72, 73, 74, 75, 76, 77, 78, 79, 80, 81, 82, 83, 84, 85, 86, 87, 88, 89, 90, 91, 92, 93, 94, 95, 96, 97, 98, 99, 100, 101, 102, 103, 104, 105, 106, 107, 108, 109, 110, 111, 112, 113, 114, 115, 116, 117, 118, 119, 120, 121, 122, 123, 124, 125, 126, 127, 128, 129, 130, 131, 132, 133, 134, 135, 136, 137, 138, 139, 140, 141, 142, 143, 144, 145, 146, 147, 148, 149, 150, 151, 152, 153, 154, 155, 156, 157, 158, 159, 160, 161, 162, 163, 164, 165, 166, 167, 168, 169, 170, 171, 172, 173, 174, 175, 176, 177, 178, 179, 180, 181, 182, 183, 184, 185, 186, 187, 188, 189, 190, 191, 192, 193, 194, 195, 196, 197, 198, 199, 200],
      "AcquisitionTime": ["085139.425000", "085141.425000", "085143.425000", "085145.425000", "085147.425000", "085149.425000", "085151.425000", "085153.425000", "085155.425000", "085157.425000", "085159.425000", "085201.425000", "085203.425000", "085205.425000", "085207.425000", "085209.425000", "085211.425000", "085213.425000", "085215.425000", "085217.425000", "085219.425000", "085221.425000", "085223.425000", "085225.425000", "085227.425000", "085229.425000", "085231.425000", "085233.425000", "085235.425000", "085237.425000", "085239.425000", "085241.425000", "085243.425000", "085245.425000", "085247.425000", "085249.425000", "085251.425000", "085253.425000", "085255.425000", "085257.425000", "085259.425000", "085301.425000", "085303.425000", "085305.425000", "085307.425000", "085309.425000", "085311.425000", "085313.425000", "085315.425000", "085317.425000", "085319.425000", "085321.425000", "085323.425000", "085325.425000", "085327.425000", "085329.425000", "085331.425000", "085333.425000", "085335.425000", "085337.425000", "085339.425000", "085341.425000", "085343.425000", "085345.425000", "085347.425000", "085349.425000", "085351.425000", "085353.425000", "085355.425000", "085357.425000", "085359.425000", "085401.425000", "085403.425000", "085405.425000", "085407.425000", "085409.425000", "085411.425000", "085413.425000", "085415.425000", "085417.425000", "085419.425000", "085421.425000", "085423.425000", "085425.425000", "085427.425000", "085429.425000", "085431.425000", "085433.425000", "085435.425000", "085437.425000", "085439.425000", "085441.425000", "085443.425000", "085445.425000", "085447.425000", "085449.425000", "085451.425000", "085453.425000", "085455.425000", "085457.425000", "085459.425000", "085501.425000", "085503.425000", "085505.425000", "085507.425000", "085509.425000", "085511.425000", "085513.425000", "085515.425000", "085517.425000", "085519.425000", "085521.425000", "085523.425000", "085525.425000", "085527.425000", "085529.425000", "085531.425000", "085533.425000", "085535.425000", "085537.425000", "085539.425000", "085541.425000", "085543.425000", "085545.425000", "085547.425000", "085549.425000", "085551.425000", "085553.425000", "085555.425000", "085557.425000", "085559.425000", "085601.425000", "085603.425000", "085605.425000", "085607.425000", "085609.425000", "085611.425000", "085613.425000", "085615.425000", "085617.425000", "085619.425000", "085621.425000", "085623.425000", "085625.425000", "085627.425000", "085629.425000", "085631.425000", "085633.425000", "085635.425000", "085637.425000", "085639.425000", "085641.425000", "085643.425000", "085645.425000", "085647.425000", "085649.425000", "085651.425000", "085653.425000", "085655.425000", "085657.425000", "085659.425000", "085701.425000", "085703.425000", "085705.425000", "085707.425000", "085709.425000", "085711.425000", "085713.425000", "085715.425000", "085717.425000", "085719.425000", "085721.425000", "085723.425000", "085725.425000", "085727.425000", "085729.425000", "085731.425000", "085733.425000", "085735.425000", "085737.425000", "085739.425000", "085741.425000", "085743.425000", "085745.425000", "085747.425000", "085749.425000", "085751.425000", "085753.425000", "085755.425000", "085757.425000", "085759.425000", "085801.425000", "085803.425000", "085805.425000", "085807.425000", "085809.425000", "085811.425000", "085813.425000", "085815.425000", "085817.425000"],
      "ContentTime": ["085228.750000", "085228.753000", "085228.755000", "085228.758000", "085228.761000", "085228.766000", "085228.768000", "085228.770000", "085228.773000", "085228.775000", "085228.777000", "085228.780000", "085228.783000", "085228.785000", "085228.787000", "085228.789000", "085228.792000", "085228.794000", "085228.796000", "085228.799000", "085228.801000", "085228.804000", "085228.806000", "085228.808000", "085228.811000", "085308.730000", "085308.733000", "085308.735000", "085308.737000", "085308.740000", "085308.742000", "085308.745000", "085308.747000", "085308.750000", "085308.752000", "085308.765000", "085308.767000", "085308.769000", "085308.772000", "085308.774000", "085308.776000", "085308.779000", "085308.781000", "085308.783000", "085308.786000", "085348.729000", "085348.732000", "085348.734000", "085348.736000", "085348.739000", "085348.741000", "085348.744000", "085348.746000", "085348.749000", "085348.751000", "085348.753000", "085348.756000", "085348.762000", "085348.765000", "085348.767000", "085348.769000", "085348.772000", "085348.774000", "085348.777000", "085348.779000", "085428.729000", "085428.732000", "085428.734000", "085428.736000", "085428.739000", "085428.742000", "085428.744000", "085428.746000", "085428.749000", "085428.751000", "085428.754000", "085428.756000", "085428.758000", "085428.761000", "085428.763000", "085428.765000", "085428.768000", "085428.770000", "085428.773000", "085428.775000", "085508.730000", "085508.733000", "085508.735000", "085508.738000", "085508.740000", "085508.742000", "085508.745000", "085508.747000", "085508.750000", "085508.752000", "085508.754000", "085508.757000", "085508.759000", "085508.761000", "085508.764000", "085508.766000", "085508.768000", "085508.771000", "085508.773000", "085508.775000", "085548.729000", "085548.732000", "085548.734000", "085548.736000", "085548.740000", "085548.742000", "085548.744000", "085548.747000", "085548.749000", "085548.751000", "085548.754000", "085548.756000", "085548.759000", "085548.761000", "085548.763000", "085548.766000", "085548.768000", "085548.770000", "085548.773000", "085548.775000", "085628.729000", "085628.732000", "085628.734000", "085628.737000", "085628.740000", "085628.742000", "085628.745000", "085628.747000", "085628.749000", "085628.752000", "085628.754000", "085628.757000", "085628.759000", "085628.761000", "085628.764000", "085628.766000", "085628.769000", "085628.771000", "085628.773000", "085628.776000", "085708.729000", "085708.732000", "085708.734000", "085708.737000", "085708.739000", "085708.742000", "085708.744000", "085708.746000", "085708.749000", "085708.751000", "085708.754000", "085708.756000", "085708.758000", "085708.761000", "085708.763000", "085708.765000", "085708.768000", "085708.770000", "085708.772000", "085708.775000", "085748.730000", "085748.733000", "085748.735000", "085748.737000", "085748.740000", "085748.742000", "085748.745000", "085748.747000", "085748.750000", "085748.752000", "085748.755000", "085748.757000", "085748.759000", "085748.762000", "085748.764000", "085748.766000", "085748.769000", "085748.771000", "085748.774000", "085748.776000", "085818.533000", "085818.536000", "085818.538000", "085818.541000", "085818.543000", "085818.546000", "085818.548000", "085818.550000", "085818.553000", "085818.555000", "085818.558000", "085818.560000", "085818.562000", "085818.567000", "085818.570000"],
      "InstanceCreationTime": ["085228.750000", "085228.753000", "085228.755000", "085228.758000", "085228.761000", "085228.766000", "085228.768000", "085228.770000", "085228.773000", "085228.775000", "085228.777000", "085228.780000", "085228.783000", "085228.785000", "085228.787000", "085228.789000", "085228.792000", "085228.794000", "085228.796000", "085228.799000", "085228.801000", "085228.804000", "085228.806000", "085228.808000", "085228.811000", "085308.730000", "085308.733000", "085308.735000", "085308.737000", "085308.740000", "085308.742000", "085308.745000", "085308.747000", "085308.750000", "085308.752000", "085308.765000", "085308.767000", "085308.769000", "085308.772000", "085308.774000", "085308.776000", "085308.779000", "085308.781000", "085308.783000", "085308.786000", "085348.729000", "085348.732000", "085348.734000", "085348.736000", "085348.739000", "085348.741000", "085348.744000", "085348.746000", "085348.749000", "085348.751000", "085348.753000", "085348.756000", "085348.762000", "085348.765000", "085348.767000", "085348.769000", "085348.772000", "085348.774000", "085348.777000", "085348.779000", "085428.729000", "085428.732000", "085428.734000", "085428.736000", "085428.739000", "085428.742000", "085428.744000", "085428.746000", "085428.749000", "085428.751000", "085428.754000", "085428.756000", "085428.758000", "085428.761000", "085428.763000", "085428.765000", "085428.768000", "085428.770000", "085428.773000", "085428.775000", "085508.730000", "085508.733000", "085508.735000", "085508.738000", "085508.740000", "085508.742000", "085508.745000", "085508.747000", "085508.750000", "085508.752000", "085508.754000", "085508.757000", "085508.759000", "085508.761000", "085508.764000", "085508.766000", "085508.768000", "085508.771000", "085508.773000", "085508.775000", "085548.729000", "085548.732000", "085548.734000", "085548.736000", "085548.740000", "085548.742000", "085548.744000", "085548.747000", "085548.749000", "085548.751000", "085548.754000", "085548.756000", "085548.759000", "085548.761000", "085548.763000", "085548.766000", "085548.768000", "085548.770000", "085548.773000", "085548.775000", "085628.729000", "085628.732000", "085628.734000", "085628.737000", "085628.740000", "085628.742000", "085628.745000", "085628.747000", "085628.749000", "085628.752000", "085628.754000", "085628.757000", "085628.759000", "085628.761000", "085628.764000", "085628.766000", "085628.769000", "085628.771000", "085628.773000", "085628.776000", "085708.729000", "085708.732000", "085708.734000", "085708.737000", "085708.739000", "085708.742000", "085708.744000", "085708.746000", "085708.749000", "085708.751000", "085708.754000", "085708.756000", "085708.758000", "085708.761000", "085708.763000", "085708.765000", "085708.768000", "085708.770000", "085708.772000", "085708.775000", "085748.730000", "085748.733000", "085748.735000", "085748.737000", "085748.740000", "085748.742000", "085748.745000", "085748.747000", "085748.750000", "085748.752000", "085748.755000", "085748.757000", "085748.759000", "085748.762000", "085748.764000", "085748.766000", "085748.769000", "085748.771000", "085748.774000", "085748.776000", "085818.533000", "085818.536000", "085818.538000", "085818.541000", "085818.543000", "085818.546000", "085818.548000", "085818.550000", "085818.553000", "085818.555000", "085818.558000", "085818.560000", "085818.562000", "085818.567000", "085818.570000"],
      "InstanceNumber": [1, 2, 3, 4, 5, 6, 7, 8, 9, 10, 11, 12, 13, 14, 15, 16, 17, 18, 19, 20, 21, 22, 23, 24, 25, 26, 27, 28, 29, 30, 31, 32, 33, 34, 35, 36, 37, 38, 39, 40, 41, 42, 43, 44, 45, 46, 47, 48, 49, 50, 51, 52, 53, 54, 55, 56, 57, 58, 59, 60, 61, 62, 63, 64, 65, 66, 67, 68, 69, 70, 71, 72, 73, 74, 75, 76, 77, 78, 79, 80, 81, 82, 83, 84, 85, 86, 87, 88, 89, 90, 91, 92, 93, 94, 95, 96, 97, 98, 99, 100, 101, 102, 103, 104, 105, 106, 107, 108, 109, 110, 111, 112, 113, 114, 115, 116, 117, 118, 119, 120, 121, 122, 123, 124, 125, 126, 127, 128, 129, 130, 131, 132, 133, 134, 135, 136, 137, 138, 139, 140, 141, 142, 143, 144, 145, 146, 147, 148, 149, 150, 151, 152, 153, 154, 155, 156, 157, 158, 159, 160, 161, 162, 163, 164, 165, 166, 167, 168, 169, 170, 171, 172, 173, 174, 175, 176, 177, 178, 179, 180, 181, 182, 183, 184, 185, 186, 187, 188, 189, 190, 191, 192, 193, 194, 195, 196, 197, 198, 199, 200],
      "LargestImagePixelValue": [3874, 3872, 3874, 3874, 3877, 3870, 3870, 3867, 3867, 3870, 3870, 3871, 3871, 3868, 3870, 3866, 3869, 3869, 3869, 3865, 3865, 3864, 3869, 3869, 3866, 3868, 3864, 3868, 3863, 3865, 3866, 3864, 3867, 3865, 3865, 3865, 3864, 3868, 3865, 3866, 3865, 3866, 3866, 3864, 3866, 3861, 3864, 3867, 3866, 3864, 3865, 3865, 3866, 3859, 3864, 3865, 3864, 3860, 3861, 3863, 3861, 3861, 3864, 3866, 3866, 3862, 3864, 3865, 3861, 3866, 3865, 3866, 3866, 3863, 3867, 3863, 3865, 3866, 3865, 3862, 3865, 3863, 3867, 3866, 3863, 3863, 3863, 3865, 3863, 3866, 3866, 3866, 3866, 3861, 3870, 3867, 3869, 3867, 3865, 3863, 3865, 3862, 3866, 3871, 3868, 3866, 3865, 3865, 3864, 3867, 3871, 3868, 3865, 3865, 3870, 3868, 3865, 3867, 3869, 3867, 3863, 3866, 3868, 3870, 3866, 3866, 3867, 3868, 3872, 3869, 3864, 3865, 3866, 3866, 3870, 3870, 3868, 3868, 3869, 3871, 3868, 3869, 3869, 3868, 3869, 3869, 3867, 3872, 3866, 3867, 3870, 3873, 3870, 3869, 3869, 3866, 3869, 3871, 3868, 3866, 3870, 3868, 3872, 3870, 3868, 3875, 3866, 3872, 3871, 3874, 3870, 3871, 3872, 3870, 3869, 3873, 3875, 3868, 3872, 3872, 3869, 3869, 3865, 3872, 3870, 3872, 3868, 3874, 3872, 3873, 3871, 3871, 3873, 3869, 3876, 3874, 3873, 3871, 3874, 3870],
      "WindowCenter": [1428.0, 1429.0, 1428.0, 1429.0, 1429.0, 1429.0, 1429.0, 1429.0, 1429.0, 1428.0, 1429.0, 1428.0, 1428.0, 1429.0, 1428.0, 1429.0, 1429.0, 1427.0, 1428.0, 1428.0, 1428.0, 1428.0, 1428.0, 1428.0, 1428.0, 1428.0, 1428.0, 1427.0, 1428.0, 1428.0, 1428.0, 1428.0, 1428.0, 1427.0, 1428.0, 1427.0, 1428.0, 1428.0, 1427.0, 1427.0, 1428.0, 1428.0, 1428.0, 1427.0, 1427.0, 1427.0, 1427.0, 1428.0, 1428.0, 1427.0, 1427.0, 1427.0, 1427.0, 1428.0, 1428.0, 1427.0, 1427.0, 1427.0, 1427.0, 1426.0, 1426.0, 1427.0, 1427.0, 1426.0, 1427.0, 1427.0, 1427.0, 1427.0, 1427.0, 1427.0, 1426.0, 1426.0, 1426.0, 1426.0, 1426.0, 1426.0, 1426.0, 1426.0, 1426.0, 1426.0, 1425.0, 1425.0, 1425.0, 1425.0, 1425.0, 1425.0, 1425.0, 1426.0, 1426.0, 1426.0, 1426.0, 1426.0, 1425.0, 1425.0, 1425.0, 1424.0, 1425.0, 1424.0, 1425.0, 1425.0, 1425.0, 1425.0, 1425.0, 1425.0, 1425.0, 1425.0, 1425.0, 1425.0, 1424.0, 1424.0, 1424.0, 1424.0, 1424.0, 1424.0, 1424.0, 1424.0, 1425.0, 1425.0, 1424.0, 1425.0, 1425.0, 1424.0, 1424.0, 1424.0, 1424.0, 1424.0, 1424.0, 1424.0, 1424.0, 1424.0, 1424.0, 1424.0, 1424.0, 1424.0, 1424.0, 1423.0, 1424.0, 1424.0, 1424.0, 1423.0, 1423.0, 1424.0, 1423.0, 1423.0, 1424.0, 1424.0, 1423.0, 1423.0, 1423.0, 1423.0, 1423.0, 1423.0, 1423.0, 1423.0, 1423.0, 1423.0, 1423.0, 1423.0, 1423.0, 1423.0, 1423.0, 1422.0, 1422.0, 1422.0, 1422.0, 1422.0, 1422.0, 1422.0, 1422.0, 1422.0, 1423.0, 1423.0, 1423.0, 1422.0, 1423.0, 1423.0, 1422.0, 1423.0, 1422.0, 1422.0, 1422.0, 1422.0, 1423.0, 1422.0, 1422.0, 1421.0, 1422.0, 1422.0, 1422.0, 1422.0, 1422.0, 1422.0, 1422.0, 1421.0, 1421.0, 1421.0, 1422.0, 1421.0, 1421.0, 1421.0],
      "WindowWidth": [3362.0, 3361.0, 3362.0, 3361.0, 3361.0, 3361.0, 3361.0, 3361.0, 3361.0, 3361.0, 3361.0, 3361.0, 3361.0, 3361.0, 3361.0, 3361.0, 3361.0, 3361.0, 3361.0, 3361.0, 3361.0, 3361.0, 3361.0, 3361.0, 3360.0, 3360.0, 3360.0, 3360.0, 3360.0, 3360.0, 3360.0, 3360.0, 3360.0, 3360.0, 3360.0, 3360.0, 3360.0, 3360.0, 3360.0, 3360.0, 3360.0, 3360.0, 3360.0, 3360.0, 3360.0, 3360.0, 3360.0, 3360.0, 3360.0, 3360.0, 3360.0, 3360.0, 3360.0, 3359.0, 3359.0, 3359.0, 3359.0, 3359.0, 3359.0, 3359.0, 3359.0, 3359.0, 3359.0, 3359.0, 3359.0, 3359.0, 3359.0, 3359.0, 3359.0, 3359.0, 3359.0, 3359.0, 3359.0, 3359.0, 3359.0, 3359.0, 3359.0, 3359.0, 3358.0, 3358.0, 3358.0, 3358.0, 3358.0, 3358.0, 3358.0, 3358.0, 3358.0, 3358.0, 3358.0, 3358.0, 3358.0, 3358.0, 3358.0, 3358.0, 3358.0, 3358.0, 3358.0, 3358.0, 3358.0, 3358.0, 3358.0, 3358.0, 3358.0, 3358.0, 3358.0, 3358.0, 3358.0, 3358.0, 3357.0, 3357.0, 3358.0, 3358.0, 3358.0, 3357.0, 3357.0, 3357.0, 3357.0, 3357.0, 3357.0, 3357.0, 3357.0, 3357.0, 3357.0, 3357.0, 3357.0, 3357.0, 3357.0, 3357.0, 3357.0, 3357.0, 3357.0, 3357.0, 3357.0, 3357.0, 3357.0, 3357.0, 3357.0, 3356.0, 3356.0, 3357.0, 3356.0, 3356.0, 3356.0, 3356.0, 3356.0, 3356.0, 3356.0, 3356.0, 3356.0, 3356.0, 3356.0, 3356.0, 3356.0, 3356.0, 3356.0, 3356.0, 3356.0, 3356.0, 3356.0, 3356.0, 3356.0, 3356.0, 3356.0, 3356.0, 3356.0, 3356.0, 3356.0, 3356.0, 3356.0, 3356.0, 3355.0, 3355.0, 3355.0, 3356.0, 3355.0, 3355.0, 3355.0, 3355.0, 3355.0, 3355.0, 3355.0, 3355.0, 3354.0, 3355.0, 3355.0, 3355.0, 3355.0, 3355.0, 3355.0, 3355.0, 3355.0, 3355.0, 3354.0, 3355.0, 3355.0, 3355.0, 3354.0, 3355.0, 3355.0, 3355.0]
    },
    "slices": {}
  }
}