{
  "AcquisitionMatrixPE": 80,
  "AcquisitionNumber": 1,
  "AcquisitionTime": "08:58:25.507500",
  "BandwidthPerPixelPhaseEncode": 25,
  "BaseResolution": 80,
  "BodyPartExamined": "BRAIN",
  "CoilCombinationMethod": "Sum of Squares",
  "ConsistencyInfo": "N4_VE11E_LATEST_20181129",
  "ConversionSoftware": "dcm2niix",
  "ConversionSoftwareVersion": "v1.0.20220720",
  "DerivedVendorReportedEchoSpacing": 0.0005,
  "DeviceSerialNumber": "66112",
  "DwellTime": 2.7e-06,
  "EchoTime": 0.03,
  "EchoTrainLength": 80,
  "EffectiveEchoSpacing": 0.0005,
  "FlipAngle": 10,
  "HeudiconvVersion": "0.13.1",
  "ImageOrientationPatientDICOM": [0.990901, -0.134591, 0.000806835, 0.129047, 0.951757, 0.278399],
  "ImageOrientationText": "Tra>Cor(16.0)>Sag(2.2)",
  "ImageType": [
    "ORIGINAL",
    "PRIMARY",
    "M",
    "ND",
    "NORM",
    "MOSAIC"
],
  "ImagingFrequency": 123.259,
  "InPlanePhaseEncodingDirectionDICOM": "COL",
  "InstitutionAddress": "Maynard 3,Hanover,NH,US,03755",
  "InstitutionName": "Dartmouth College - PBS",
  "InstitutionalDepartmentName": "Department",
  "MRAcquisitionType": "2D",
  "MagneticFieldStrength": 3,
  "Manufacturer": "Siemens",
  "ManufacturersModelName": "Prisma",
  "MatrixCoilMode": "SENSE",
  "Modality": "MR",
  "NonlinearGradientCorrection": false,
  "PartialFourier": 1,
  "PatientPosition": "HFS",
  "PercentPhaseFOV": 100,
  "PercentSampling": 100,
  "PhaseEncodingDirection": "j-",
  "PhaseEncodingSteps": 80,
  "PhaseResolution": 1,
  "PixelBandwidth": 2315,
  "ProcedureStepDescription": "dbic^QA",
  "ProtocolName": "func-bold_fa-10",
  "PulseSequenceDetails": "%SiemensSeq%\\ep2d_bold",
  "ReceiveCoilActiveElements": "HC1-7;NC1,2",
  "ReceiveCoilName": "HeadNeck_64",
  "ReconMatrixPE": 80,
  "RepetitionTime": 2,
  "SAR": 0.00861644,
  "ScanOptions": "FS",
  "ScanningSequence": "EP",
  "SequenceName": "*epfid2d1_80",
  "SequenceVariant": "SK",
  "SeriesDescription": "func-bold_fa-10",
  "SeriesNumber": 9,
  "ShimSetting": [4218, -7746, -7482, -127, -157, -194, -54, 86],
  "SliceThickness": 3.5,
  "SliceTiming": [0.99, 0, 1.055, 0.065, 1.12, 0.13, 1.1875, 0.1975, 1.2525, 0.2625, 1.32, 0.33, 1.385, 0.395, 1.45, 0.46, 1.5175, 0.5275, 1.5825, 0.5925, 1.65, 0.66, 1.715, 0.725, 1.78, 0.79, 1.8475, 0.8575, 1.9125, 0.9225],
  "SoftwareVersions": "syngo MR E11",
  "SpacingBetweenSlices": 3.99,
  "StationName": "AWP66112",
  "TotalReadoutTime": 0.0395,
  "TxRefAmp": 214.024,
  "dcmmeta_affine": [
    [-2.972702741622925, 0.3871418833732605, 0.1525689959526062, 101.47378540039062],
    [0.4037724435329437, 2.8552701473236084, 1.1002888679504395, -140.2882080078125],
    [0.0024205052759498358, -0.8351966738700867, 3.8322560787200928, -23.38861656188965],
    [0.0, 0.0, 0.0, 1.0]
],
  "dcmmeta_reorient_transform": [
    [0.0, -1.0, 0.0, 79.0],
    [1.0, 0.0, 0.0, 0.0],
    [0.0, 0.0, 1.0, 0.0],
    [0.0, 0.0, 0.0, 1.0]
],
  "dcmmeta_shape": [80, 80, 30, 200],
  "dcmmeta_slice_dim": 2,
  "dcmmeta_version": 0.6,
  "global": {
    "const": {
      "AccessionNumber": "qa64",
      "AcquisitionMatrix": [80, 0, 0, 80],
      "AngioFlag": "N",
      "BitsAllocated": 16,
      "BitsStored": 12,
      "BodyPartExamined": "BRAIN",
      "Columns": 480,
      "EchoNumbers": 1,
      "EchoTime": 30.0,
      "EchoTrainLength": 80,
      "FlipAngle": 10.0,
      "HighBit": 11,
      "ImageOrientationPatient": [0.99090093454774, -0.1345908129462, 0.0008068351112, 0.12904729796539, 0.95175671621922, 0.2783989008948],
      "ImagePositionPatient": [-804.0269367753, -575.57768060409, -256.89259754517],
      "ImageType": [
        "ORIGINAL",
        "PRIMARY",
        "M",
        "ND",
        "NORM",
        "MOSAIC"
],
      "ImagedNucleus": "1H",
      "ImagingFrequency": 123.259263,
      "InPlanePhaseEncodingDirection": "COL",
      "MRAcquisitionType": "2D",
      "MagneticFieldStrength": 3.0,
      "Manufacturer": "SIEMENS",
      "ManufacturerModelName": "Prisma",
      "Modality": "MR",
      "NumberOfAverages": 1.0,
      "NumberOfPhaseEncodingSteps": 80,
      "PercentPhaseFieldOfView": 100.0,
      "PercentSampling": 100.0,
      "PerformedProcedureStepStartTime": "084136.835000",
      "PhotometricInterpretation": "MONOCHROME2",
      "PixelBandwidth": 2315.0,
      "PixelRepresentation": 0,
      "PixelSpacing": [3.0, 3.0],
      "ProtocolName": "func-bold_fa-10",
      "RepetitionTime": 2000.0,
      "Rows": 480,
      "SAR": 0.0086164398733,
      "SamplesPerPixel": 1,
      "ScanOptions": "FS",
      "ScanningSequence": "EP",
      "SequenceName": "*epfid2d1_80",
      "SequenceVariant": "SK",
      "SeriesDescription": "func-bold_fa-10",
      "SeriesNumber": 9,
      "SeriesTime": "085908.560000",
      "SliceLocation": -57.269914104656,
      "SliceThickness": 3.5,
      "SmallestImagePixelValue": 0,
      "SoftwareVersions": "syngo MR E11",
      "SpacingBetweenSlices": 3.9900000313999,
      "SpecificCharacterSet": "ISO_IR 100",
      "StudyID": "4",
      "StudyTime": "084136.758000",
      "TransmitCoilName": "Body",
      "VariableFlipAngleFlag": "N",
      "WindowCenterWidthExplanation": "Algo1"
    },
    "slices": {}
  },
  "time": {
    "samples": {
      "AcquisitionNumber": [1, 2, 3, 4, 5, 6, 7, 8, 9, 10, 11, 12, 13, 14, 15, 16, 17, 18, 19, 20, 21, 22, 23, 24, 25, 26, 27, 28, 29, 30, 31, 32, 33, 34, 35, 36, 37, 38, 39, 40, 41, 42, 43, 44, 45, 46, 47, 48, 49, 50, 51, 52, 53, 54, 55, 56, 57, 58, 59, 60, 61, 62, 63, 64, 65, 66, 67, 68, 69, 70, 71, 72, 73, 74, 75, 76, 77, 78, 79, 80, 81, 82, 83, 84, 85, 86, 87, 88, 89, 90, 91, 92, 93, 94, 95, 96, 97, 98, 99, 100, 101, 102, 103, 104, 105, 106, 107, 108, 109, 110, 111, 112, 113, 114, 115, 116, 117, 118, 119, 120, 121, 122, 123, 124, 125, 126, 127, 128, 129, 130, 131, 132, 133, 134, 135, 136, 137, 138, 139, 140, 141, 142, 143, 144, 145, 146, 147, 148, 149, 150, 151, 152, 153, 154, 155, 156, 157, 158, 159, 160, 161, 162, 163, 164, 165, 166, 167, 168, 169, 170, 171, 172, 173, 174, 175, 176, 177, 178, 179, 180, 181, 182, 183, 184, 185, 186, 187, 188, 189, 190, 191, 192, 193, 194, 195, 196, 197, 198, 199, 200],
      "AcquisitionTime": ["085825.507500", "085827.507500", "085829.507500", "085831.507500", "085833.507500", "085835.507500", "085837.507500", "085839.507500", "085841.507500", "085843.507500", "085845.507500", "085847.507500", "085849.507500", "085851.507500", "085853.507500", "085855.507500", "085857.507500", "085859.507500", "085901.507500", "085903.507500", "085905.507500", "085907.507500", "085909.507500", "085911.507500", "085913.507500", "085915.507500", "085917.507500", "085919.507500", "085921.507500", "085923.507500", "085925.507500", "085927.507500", "085929.507500", "085931.507500", "085933.507500", "085935.507500", "085937.507500", "085939.507500", "085941.507500", "085943.507500", "085945.507500", "085947.507500", "085949.507500", "085951.507500", "085953.507500", "085955.507500", "085957.507500", "085959.507500", "090001.507500", "090003.507500", "090005.507500", "090007.507500", "090009.507500", "090011.507500", "090013.507500", "090015.507500", "090017.507500", "090019.507500", "090021.507500", "090023.507500", "090025.507500", "090027.507500", "090029.507500", "090031.507500", "090033.507500", "090035.507500", "090037.507500", "090039.507500", "090041.507500", "090043.507500", "090045.507500", "090047.507500", "090049.507500", "090051.507500", "090053.507500", "090055.507500", "090057.507500", "090059.507500", "090101.507500", "090103.507500", "090105.507500", "090107.507500", "090109.507500", "090111.507500", "090113.507500", "090115.507500", "090117.507500", "090119.507500", "090121.507500", "090123.507500", "090125.507500", "090127.507500", "090129.507500", "090131.507500", "090133.507500", "090135.507500", "090137.507500", "090139.507500", "090141.507500", "090143.507500", "090145.507500", "090147.507500", "090149.507500", "090151.507500", "090153.507500", "090155.507500", "090157.507500", "090159.507500", "090201.507500", "090203.507500", "090205.507500", "090207.507500", "090209.507500", "090211.507500", "090213.507500", "090215.507500", "090217.507500", "090219.507500", "090221.507500", "090223.507500", "090225.507500", "090227.507500", "090229.507500", "090231.507500", "090233.507500", "090235.507500", "090237.507500", "090239.507500", "090241.507500", "090243.507500", "090245.507500", "090247.507500", "090249.507500", "090251.507500", "090253.507500", "090255.507500", "090257.507500", "090259.507500", "090301.507500", "090303.507500", "090305.507500", "090307.507500", "090309.507500", "090311.507500", "090313.507500", "090315.507500", "090317.507500", "090319.507500", "090321.507500", "090323.507500", "090325.507500", "090327.507500", "090329.507500", "090331.507500", "090333.507500", "090335.507500", "090337.507500", "090339.507500", "090341.507500", "090343.507500", "090345.507500", "090347.507500", "090349.507500", "090351.507500", "090353.507500", "090355.507500", "090357.507500", "090359.507500", "090401.507500", "090403.507500", "090405.507500", "090407.507500", "090409.507500", "090411.507500", "090413.507500", "090415.507500", "090417.507500", "090419.507500", "090421.507500", "090423.507500", "090425.507500", "090427.507500", "090429.507500", "090431.507500", "090433.507500", "090435.507500", "090437.507500", "090439.507500", "090441.507500", "090443.507500", "090445.507500", "090447.507500", "090449.507500", "090451.507500", "090453.507500", "090455.507500", "090457.507500", "090459.507500", "090501.507500", "090503.507500"],
      "ContentTime": ["085908.563000", "085908.566000", "085908.569000", "085908.571000", "085908.573000", "085908.576000", "085908.578000", "085908.581000", "085908.583000", "085908.585000", "085908.588000", "085908.590000", "085908.592000", "085908.595000", "085908.597000", "085908.607000", "085908.610000", "085908.612000", "085908.615000", "085908.617000", "085908.619000", "085948.559000", "085948.562000", "085948.565000", "085948.567000", "085948.569000", "085948.572000", "085948.574000", "085948.585000", "085948.588000", "085948.591000", "085948.593000", "085948.596000", "085948.598000", "085948.600000", "085948.603000", "085948.605000", "085948.607000", "085948.610000", "085948.612000", "085948.615000", "090028.558000", "090028.561000", "090028.564000", "090028.566000", "090028.568000", "090028.571000", "090028.573000", "090028.579000", "090028.581000", "090028.584000", "090028.586000", "090028.588000", "090028.591000", "090028.593000", "090028.596000", "090028.598000", "090028.600000", "090028.603000", "090028.605000", "090028.608000", "090108.559000", "090108.561000", "090108.564000", "090108.566000", "090108.568000", "090108.571000", "090108.573000", "090108.575000", "090108.604000", "090108.607000", "090108.609000", "090108.611000", "090108.614000", "090108.616000", "090108.619000", "090108.621000", "090108.623000", "090108.626000", "090108.628000", "090108.635000", "090128.558000", "090128.561000", "090128.564000", "090128.566000", "090128.568000", "090128.582000", "090128.584000", "090128.586000", "090128.589000", "090128.591000", "090208.559000", "090208.562000", "090208.564000", "090208.567000", "090208.569000", "090208.571000", "090208.574000", "090208.576000", "090208.578000", "090208.581000", "090208.583000", "090208.586000", "090208.588000", "090208.590000", "090208.593000", "090208.595000", "090208.598000", "090208.600000", "090208.602000", "090208.605000", "090248.558000", "090248.561000", "090248.563000", "090248.566000", "090248.568000", "090248.571000", "090248.573000", "090248.575000", "090248.578000", "090248.580000", "090248.582000", "090248.585000", "090248.587000", "090248.590000", "090248.592000", "090248.594000", "090248.597000", "090248.599000", "090248.602000", "090248.604000", "090328.558000", "090328.561000", "090328.564000", "090328.566000", "090328.568000", "090328.571000", "090328.573000", "090328.575000", "090328.578000", "090328.580000", "090328.582000", "090328.585000", "090328.587000", "090328.590000", "090328.592000", "090328.594000", "090328.597000", "090328.599000", "090328.601000", "090328.604000", "090408.558000", "090408.561000", "090408.563000", "090408.566000", "090408.568000", "090408.571000", "090408.573000", "090408.575000", "090408.578000", "090408.580000", "090408.589000", "090408.592000", "090408.594000", "090408.596000", "090408.599000", "090408.601000", "090408.603000", "090408.606000", "090408.608000", "090408.610000", "090448.559000", "090448.562000", "090448.564000", "090448.567000", "090448.569000", "090448.572000", "090448.574000", "090448.576000", "090448.579000", "090448.582000", "090448.584000", "090448.586000", "090448.589000", "090448.592000", "090448.594000", "090448.596000", "090448.598000", "090448.601000", "090448.603000", "090448.606000", "090505.029000", "090505.032000", "090505.035000", "090505.037000", "090505.039000", "090505.042000", "090505.044000", "090505.047000", "090505.049000"],
      "InstanceCreationTime": ["085908.563000", "085908.566000", "085908.569000", "085908.571000", "085908.573000", "085908.576000", "085908.578000", "085908.581000", "085908.583000", "085908.585000", "085908.588000", "085908.590000", "085908.592000", "085908.595000", "085908.597000", "085908.607000", "085908.610000", "085908.612000", "085908.615000", "085908.617000", "085908.619000", "085948.559000", "085948.562000", "085948.565000", "085948.567000", "085948.569000", "085948.572000", "085948.574000", "085948.585000", "085948.588000", "085948.591000", "085948.593000", "085948.596000", "085948.598000", "085948.600000", "085948.603000", "085948.605000", "085948.607000", "085948.610000", "085948.612000", "085948.615000", "090028.558000", "090028.561000", "090028.564000", "090028.566000", "090028.568000", "090028.571000", "090028.573000", "090028.579000", "090028.581000", "090028.584000", "090028.586000", "090028.588000", "090028.591000", "090028.593000", "090028.596000", "090028.598000", "090028.600000", "090028.603000", "090028.605000", "090028.608000", "090108.559000", "090108.561000", "090108.564000", "090108.566000", "090108.568000", "090108.571000", "090108.573000", "090108.575000", "090108.604000", "090108.607000", "090108.609000", "090108.611000", "090108.614000", "090108.616000", "090108.619000", "090108.621000", "090108.623000", "090108.626000", "090108.628000", "090108.635000", "090128.558000", "090128.561000", "090128.564000", "090128.566000", "090128.568000", "090128.582000", "090128.584000", "090128.586000", "090128.589000", "090128.591000", "090208.559000", "090208.562000", "090208.564000", "090208.567000", "090208.569000", "090208.571000", "090208.574000", "090208.576000", "090208.578000", "090208.581000", "090208.583000", "090208.586000", "090208.588000", "090208.590000", "090208.593000", "090208.595000", "090208.598000", "090208.600000", "090208.602000", "090208.605000", "090248.558000", "090248.561000", "090248.563000", "090248.566000", "090248.568000", "090248.571000", "090248.573000", "090248.575000", "090248.578000", "090248.580000", "090248.582000", "090248.585000", "090248.587000", "090248.590000", "090248.592000", "090248.594000", "090248.597000", "090248.599000", "090248.602000", "090248.604000", "090328.558000", "090328.561000", "090328.564000", "090328.566000", "090328.568000", "090328.571000", "090328.573000", "090328.575000", "090328.578000", "090328.580000", "090328.582000", "090328.585000", "090328.587000", "090328.590000", "090328.592000", "090328.594000", "090328.597000", "090328.599000", "090328.601000", "090328.604000", "090408.558000", "090408.561000", "090408.563000", "090408.566000", "090408.568000", "090408.571000", "090408.573000", "090408.575000", "090408.578000", "090408.580000", "090408.589000", "090408.592000", "090408.594000", "090408.596000", "090408.599000", "090408.601000", "090408.603000", "090408.606000", "090408.608000", "090408.610000", "090448.559000", "090448.562000", "090448.564000", "090448.567000", "090448.569000", "090448.572000", "090448.574000", "090448.576000", "090448.579000", "090448.582000", "090448.584000", "090448.586000", "090448.589000", "090448.592000", "090448.594000", "090448.596000", "090448.598000", "090448.601000", "090448.603000", "090448.606000", "090505.029000", "090505.032000", "090505.035000", "090505.037000", "090505.039000", "090505.042000", "090505.044000", "090505.047000", "090505.049000"],
      "InstanceNumber": [1, 2, 3, 4, 5, 6, 7, 8, 9, 10, 11, 12, 13, 14, 15, 16, 17, 18, 19, 20, 21, 22, 23, 24, 25, 26, 27, 28, 29, 30, 31, 32, 33, 34, 35, 36, 37, 38, 39, 40, 41, 42, 43, 44, 45, 46, 47, 48, 49, 50, 51, 52, 53, 54, 55, 56, 57, 58, 59, 60, 61, 62, 63, 64, 65, 66, 67, 68, 69, 70, 71, 72, 73, 74, 75, 76, 77, 78, 79, 80, 81, 82, 83, 84, 85, 86, 87, 88, 89, 90, 91, 92, 93, 94, 95, 96, 97, 98, 99, 100, 101, 102, 103, 104, 105, 106, 107, 108, 109, 110, 111, 112, 113, 114, 115, 116, 117, 118, 119, 120, 121, 122, 123, 124, 125, 126, 127, 128, 129, 130, 131, 132, 133, 134, 135, 136, 137, 138, 139, 140, 141, 142, 143, 144, 145, 146, 147, 148, 149, 150, 151, 152, 153, 154, 155, 156, 157, 158, 159, 160, 161, 162, 163, 164, 165, 166, 167, 168, 169, 170, 171, 172, 173, 174, 175, 176, 177, 178, 179, 180, 181, 182, 183, 184, 185, 186, 187, 188, 189, 190, 191, 192, 193, 194, 195, 196, 197, 198, 199, 200],
      "LargestImagePixelValue": [646, 648, 649, 650, 646, 645, 646, 644, 651, 646, 647, 649, 645, 645, 649, 649, 651, 646, 647, 646, 648, 650, 650, 647, 645, 642, 646, 648, 645, 646, 648, 646, 645, 646, 643, 648, 652, 646, 646, 646, 646, 647, 648, 646, 648, 645, 646, 646, 647, 646, 648, 645, 647, 645, 650, 646, 652, 647, 647, 650, 645, 644, 646, 647, 646, 645, 647, 647, 647, 647, 647, 648, 645, 647, 647, 649, 647, 649, 647, 645, 645, 645, 648, 646, 650, 645, 646, 646, 647, 651, 649, 651, 647, 644, 646, 647, 649, 649, 648, 645, 644, 646, 650, 647, 648, 650, 644, 644, 644, 651, 649, 647, 649, 647, 648, 646, 649, 650, 648, 645, 646, 644, 650, 650, 650, 652, 648, 647, 651, 650, 650, 650, 647, 647, 649, 649, 649, 653, 649, 648, 646, 654, 647, 649, 651, 646, 651, 648, 647, 649, 650, 648, 649, 647, 648, 648, 647, 649, 651, 652, 644, 650, 645, 648, 649, 649, 647, 649, 648, 649, 649, 653, 649, 647, 646, 648, 645, 653, 648, 649, 646, 648, 646, 652, 651, 648, 645, 650, 645, 650, 649, 649, 649, 648, 646, 648, 650, 647, 650, 650],
      "WindowCenter": [461.0, 461.0, 461.0, 462.0, 461.0, 461.0, 461.0, 461.0, 462.0, 461.0, 461.0, 461.0, 461.0, 461.0, 461.0, 461.0, 462.0, 461.0, 461.0, 461.0, 461.0, 462.0, 462.0, 461.0, 461.0, 461.0, 461.0, 461.0, 461.0, 461.0, 461.0, 461.0, 461.0, 461.0, 461.0, 461.0, 462.0, 461.0, 461.0, 461.0, 461.0, 460.0, 461.0, 461.0, 461.0, 461.0, 461.0, 460.0, 460.0, 461.0, 461.0, 461.0, 461.0, 460.0, 461.0, 460.0, 462.0, 461.0, 461.0, 461.0, 460.0, 460.0, 460.0, 461.0, 461.0, 461.0, 460.0, 460.0, 460.0, 460.0, 461.0, 461.0, 460.0, 460.0, 460.0, 460.0, 460.0, 460.0, 460.0, 460.0, 460.0, 460.0, 460.0, 460.0, 461.0, 460.0, 460.0, 460.0, 460.0, 461.0, 460.0, 461.0, 460.0, 460.0, 460.0, 460.0, 460.0, 460.0, 460.0, 460.0, 460.0, 460.0, 461.0, 460.0, 460.0, 461.0, 460.0, 460.0, 460.0, 461.0, 460.0, 460.0, 460.0, 460.0, 459.0, 460.0, 460.0, 461.0, 460.0, 460.0, 460.0, 460.0, 461.0, 461.0, 461.0, 461.0, 460.0, 460.0, 461.0, 461.0, 461.0, 461.0, 460.0, 460.0, 460.0, 460.0, 460.0, 461.0, 460.0, 460.0, 460.0, 461.0, 460.0, 460.0, 461.0, 460.0, 461.0, 460.0, 460.0, 460.0, 461.0, 460.0, 460.0, 459.0, 460.0, 460.0, 460.0, 460.0, 461.0, 461.0, 460.0, 461.0, 459.0, 460.0, 460.0, 460.0, 460.0, 459.0, 460.0, 459.0, 460.0, 461.0, 460.0, 460.0, 460.0, 459.0, 459.0, 460.0, 460.0, 460.0, 459.0, 459.0, 460.0, 460.0, 461.0, 459.0, 459.0, 460.0, 460.0, 460.0, 459.0, 459.0, 460.0, 459.0, 459.0, 459.0, 460.0, 460.0, 460.0, 461.0],
      "WindowWidth": [957.0, 957.0, 958.0, 960.0, 958.0, 957.0, 957.0, 957.0, 959.0, 958.0, 958.0, 958.0, 957.0, 957.0, 957.0, 957.0, 959.0, 958.0, 957.0, 957.0, 957.0, 958.0, 959.0, 957.0, 957.0, 957.0, 957.0, 957.0, 957.0, 957.0, 957.0, 957.0, 957.0, 957.0, 957.0, 957.0, 959.0, 957.0, 957.0, 957.0, 957.0, 957.0, 957.0, 957.0, 957.0, 957.0, 957.0, 957.0, 957.0, 957.0, 957.0, 957.0, 957.0, 957.0, 957.0, 957.0, 958.0, 957.0, 957.0, 958.0, 956.0, 957.0, 957.0, 957.0, 957.0, 957.0, 957.0, 956.0, 956.0, 957.0, 957.0, 957.0, 957.0, 956.0, 956.0, 956.0, 956.0, 957.0, 957.0, 956.0, 956.0, 956.0, 956.0, 957.0, 958.0, 956.0, 956.0, 956.0, 956.0, 957.0, 957.0, 958.0, 956.0, 956.0, 956.0, 956.0, 956.0, 957.0, 956.0, 956.0, 956.0, 956.0, 957.0, 956.0, 956.0, 958.0, 956.0, 956.0, 956.0, 957.0, 956.0, 957.0, 956.0, 956.0, 955.0, 956.0, 956.0, 957.0, 956.0, 956.0, 956.0, 956.0, 957.0, 957.0, 957.0, 957.0, 956.0, 956.0, 957.0, 957.0, 957.0, 957.0, 956.0, 956.0, 955.0, 955.0, 956.0, 957.0, 956.0, 956.0, 956.0, 957.0, 955.0, 955.0, 957.0, 956.0, 957.0, 955.0, 955.0, 955.0, 957.0, 956.0, 956.0, 955.0, 955.0, 955.0, 955.0, 955.0, 957.0, 957.0, 955.0, 957.0, 955.0, 955.0, 955.0, 956.0, 955.0, 955.0, 955.0, 954.0, 955.0, 957.0, 956.0, 956.0, 955.0, 954.0, 954.0, 956.0, 955.0, 955.0, 955.0, 954.0, 955.0, 956.0, 957.0, 955.0, 955.0, 956.0, 955.0, 956.0, 954.0, 955.0, 955.0, 955.0, 954.0, 954.0, 956.0, 955.0, 956.0, 957.0]
    },
    "slices": {}
  }
}