{
  "AcquisitionMatrixPE": 80,
  "AcquisitionNumber": 1,
  "AcquisitionTime": "08:44:47.737500",
  "BandwidthPerPixelPhaseEncode": 48.077,
  "BaseResolution": 80,
  "BodyPartExamined": "BRAIN",
  "CoilCombinationMethod": "Sum of Squares",
  "ConsistencyInfo": "N4_VE11E_LATEST_20181129",
  "ConversionSoftware": "dcm2niix",
  "ConversionSoftwareVersion": "v1.0.20220720",
  "DerivedVendorReportedEchoSpacing": 0.000519999,
  "DeviceSerialNumber": "66112",
  "DwellTime": 2.7e-06,
  "EchoTime": 0.035,
  "EchoTrainLength": 39,
  "EffectiveEchoSpacing": 0.00026,
  "FlipAngle": 90,
  "HeudiconvVersion": "0.13.1",
  "ImageOrientationPatientDICOM": [0.990901, -0.134591, 0.000806835, 0.129047, 0.951757, 0.278399],
  "ImageOrientationText": "Tra>Cor(16.0)>Sag(2.2)",
  "ImageType": [
    "ORIGINAL",
    "PRIMARY",
    "M",
    "ND",
    "NORM",
    "MOSAIC"
],
  "ImagingFrequency": 123.259,
  "InPlanePhaseEncodingDirectionDICOM": "COL",
  "InstitutionAddress": "Maynard 3,Hanover,NH,US,03755",
  "InstitutionName": "Dartmouth College - PBS",
  "InstitutionalDepartmentName": "Department",
  "MRAcquisitionType": "2D",
  "MagneticFieldStrength": 3,
  "Manufacturer": "Siemens",
  "ManufacturersModelName": "Prisma",
  "MatrixCoilMode": "GRAPPA",
  "Modality": "MR",
  "NonlinearGradientCorrection": false,
  "ParallelReductionFactorInPlane": 2,
  "PartialFourier": 1,
  "PatientPosition": "HFS",
  "PercentPhaseFOV": 100,
  "PercentSampling": 100,
  "PhaseEncodingDirection": "j-",
  "PhaseEncodingSteps": 79,
  "PhaseResolution": 1,
  "PixelBandwidth": 2315,
  "ProcedureStepDescription": "dbic^QA",
  "ProtocolName": "func-bold_task-rest_acq-p2",
  "PulseSequenceDetails": "%SiemensSeq%\\ep2d_bold",
  "ReceiveCoilActiveElements": "HC1-7;NC1,2",
  "ReceiveCoilName": "HeadNeck_64",
  "ReconMatrixPE": 80,
  "RefLinesPE": 24,
  "RepetitionTime": 2,
  "SAR": 0.0408743,
  "ScanOptions": "FS",
  "ScanningSequence": "EP",
  "SequenceName": "*epfid2d1_80",
  "SequenceVariant": "SK",
  "SeriesDescription": "func-bold_task-rest_acq-p2",
  "SeriesNumber": 5,
  "ShimSetting": [4218, -7746, -7482, -130, -158, -195, -54, 86],
  "SliceThickness": 3.5,
  "SliceTiming": [0.99, 0, 1.0575, 0.0675, 1.1225, 0.1325, 1.1875, 0.2, 1.255, 0.265, 1.32, 0.33, 1.3875, 0.3975, 1.4525, 0.4625, 1.5175, 0.53, 1.585, 0.595, 1.65, 0.66, 1.7175, 0.7275, 1.7825, 0.7925, 1.8475, 0.8575, 1.915, 0.925],
  "SoftwareVersions": "syngo MR E11",
  "SpacingBetweenSlices": 3.99,
  "StationName": "AWP66112",
  "TaskName": "rest",
  "TotalReadoutTime": 0.02054,
  "TxRefAmp": 214.024,
  "dcmmeta_affine": [
    [-2.972702741622925, 0.3871418833732605, 0.1525689959526062, 103.07952117919922],
    [0.4037724435329437, 2.8552701473236084, 1.10028874874115, -142.72792053222656],
    [0.0024205052759498358, -0.8351966738700867, 3.8322560787200928, -24.083314895629883],
    [0.0, 0.0, 0.0, 1.0]
],
  "dcmmeta_reorient_transform": [
    [0.0, -1.0, 0.0, 79.0],
    [1.0, 0.0, 0.0, 0.0],
    [0.0, 0.0, 1.0, 0.0],
    [0.0, 0.0, 0.0, 1.0]
],
  "dcmmeta_shape": [80, 80, 30, 200],
  "dcmmeta_slice_dim": 2,
  "dcmmeta_version": 0.6,
  "global": {
    "const": {
      "AccessionNumber": "qa64",
      "AcquisitionMatrix": [80, 0, 0, 80],
      "AngioFlag": "N",
      "BitsAllocated": 16,
      "BitsStored": 12,
      "BodyPartExamined": "BRAIN",
      "Columns": 480,
      "EchoNumbers": 1,
      "EchoTime": 35.0,
      "EchoTrainLength": 39,
      "FlipAngle": 90.0,
      "HighBit": 11,
      "ImageOrientationPatient": [0.99090093454774, -0.1345908129462, 0.0008068351112, 0.12904729796539, 0.95175671621922, 0.2783989008948],
      "ImagePositionPatient": [-805.63267082557, -573.13795663558, -257.58729587891],
      "ImageType": [
        "ORIGINAL",
        "PRIMARY",
        "M",
        "ND",
        "NORM",
        "MOSAIC"
],
      "ImagedNucleus": "1H",
      "ImagingFrequency": 123.259262,
      "InPlanePhaseEncodingDirection": "COL",
      "LargestImagePixelValue": 4095,
      "MRAcquisitionType": "2D",
      "MagneticFieldStrength": 3.0,
      "Manufacturer": "SIEMENS",
      "ManufacturerModelName": "Prisma",
      "Modality": "MR",
      "NumberOfAverages": 1.0,
      "NumberOfPhaseEncodingSteps": 79,
      "PercentPhaseFieldOfView": 100.0,
      "PercentSampling": 100.0,
      "PerformedProcedureStepStartTime": "084136.835000",
      "PhotometricInterpretation": "MONOCHROME2",
      "PixelBandwidth": 2315.0,
      "PixelRepresentation": 0,
      "PixelSpacing": [3.0, 3.0],
      "ProtocolName": "func-bold_task-rest_acq-p2",
      "RepetitionTime": 2000.0,
      "Rows": 480,
      "SAR": 0.04087426764648,
      "SamplesPerPixel": 1,
      "ScanOptions": "FS",
      "ScanningSequence": "EP",
      "SequenceName": "*epfid2d1_80",
      "SequenceVariant": "SK",
      "SeriesDescription": "func-bold_task-rest_acq-p2",
      "SeriesNumber": 5,
      "SeriesTime": "084528.646000",
      "SliceLocation": -58.548530081385,
      "SliceThickness": 3.5,
      "SmallestImagePixelValue": 0,
      "SoftwareVersions": "syngo MR E11",
      "SpacingBetweenSlices": 3.9899999048233,
      "SpecificCharacterSet": "ISO_IR 100",
      "StudyID": "4",
      "StudyTime": "084136.758000",
      "TransmitCoilName": "Body",
      "VariableFlipAngleFlag": "N",
      "WindowCenterWidthExplanation": "Algo1"
    },
    "slices": {}
  },
  "time": {
    "samples": {
      "AcquisitionNumber": [1, 2, 3, 4, 5, 6, 7, 8, 9, 10, 11, 12, 13, 14, 15, 16, 17, 18, 19, 20, 21, 22, 23, 24, 25, 26, 27, 28, 29, 30, 31, 32, 33, 34, 35, 36, 37, 38, 39, 40, 41, 42, 43, 44, 45, 46, 47, 48, 49, 50, 51, 52, 53, 54, 55, 56, 57, 58, 59, 60, 61, 62, 63, 64, 65, 66, 67, 68, 69, 70, 71, 72, 73, 74, 75, 76, 77, 78, 79, 80, 81, 82, 83, 84, 85, 86, 87, 88, 89, 90, 91, 92, 93, 94, 95, 96, 97, 98, 99, 100, 101, 102, 103, 104, 105, 106, 107, 108, 109, 110, 111, 112, 113, 114, 115, 116, 117, 118, 119, 120, 121, 122, 123, 124, 125, 126, 127, 128, 129, 130, 131, 132, 133, 134, 135, 136, 137, 138, 139, 140, 141, 142, 143, 144, 145, 146, 147, 148, 149, 150, 151, 152, 153, 154, 155, 156, 157, 158, 159, 160, 161, 162, 163, 164, 165, 166, 167, 168, 169, 170, 171, 172, 173, 174, 175, 176, 177, 178, 179, 180, 181, 182, 183, 184, 185, 186, 187, 188, 189, 190, 191, 192, 193, 194, 195, 196, 197, 198, 199, 200],
      "AcquisitionTime": ["084447.737500", "084449.737500", "084451.737500", "084453.737500", "084455.737500", "084457.737500", "084459.737500", "084501.737500", "084503.737500", "084505.737500", "084507.737500", "084509.737500", "084511.737500", "084513.737500", "084515.737500", "084517.737500", "084519.737500", "084521.737500", "084523.737500", "084525.737500", "084527.737500", "084529.737500", "084531.737500", "084533.737500", "084535.737500", "084537.737500", "084539.737500", "084541.737500", "084543.737500", "084545.737500", "084547.737500", "084549.737500", "084551.737500", "084553.737500", "084555.737500", "084557.737500", "084559.737500", "084601.737500", "084603.737500", "084605.737500", "084607.737500", "084609.737500", "084611.737500", "084613.737500", "084615.737500", "084617.737500", "084619.737500", "084621.737500", "084623.737500", "084625.737500", "084627.737500", "084629.737500", "084631.737500", "084633.737500", "084635.737500", "084637.737500", "084639.737500", "084641.737500", "084643.737500", "084645.737500", "084647.737500", "084649.737500", "084651.737500", "084653.737500", "084655.737500", "084657.737500", "084659.737500", "084701.737500", "084703.737500", "084705.737500", "084707.737500", "084709.737500", "084711.737500", "084713.737500", "084715.737500", "084717.737500", "084719.737500", "084721.737500", "084723.737500", "084725.737500", "084727.737500", "084729.737500", "084731.737500", "084733.737500", "084735.737500", "084737.737500", "084739.737500", "084741.737500", "084743.737500", "084745.737500", "084747.737500", "084749.737500", "084751.737500", "084753.737500", "084755.737500", "084757.737500", "084759.737500", "084801.737500", "084803.737500", "084805.737500", "084807.737500", "084809.737500", "084811.737500", "084813.737500", "084815.737500", "084817.737500", "084819.737500", "084821.737500", "084823.737500", "084825.737500", "084827.737500", "084829.737500", "084831.737500", "084833.737500", "084835.737500", "084837.737500", "084839.737500", "084841.737500", "084843.737500", "084845.737500", "084847.737500", "084849.737500", "084851.737500", "084853.737500", "084855.737500", "084857.737500", "084859.737500", "084901.737500", "084903.737500", "084905.737500", "084907.737500", "084909.737500", "084911.737500", "084913.737500", "084915.737500", "084917.737500", "084919.737500", "084921.737500", "084923.737500", "084925.737500", "084927.737500", "084929.737500", "084931.737500", "084933.737500", "084935.737500", "084937.737500", "084939.737500", "084941.737500", "084943.737500", "084945.737500", "084947.737500", "084949.737500", "084951.737500", "084953.737500", "084955.737500", "084957.737500", "084959.737500", "085001.737500", "085003.737500", "085005.737500", "085007.737500", "085009.737500", "085011.737500", "085013.737500", "085015.737500", "085017.737500", "085019.737500", "085021.737500", "085023.737500", "085025.737500", "085027.737500", "085029.737500", "085031.737500", "085033.737500", "085035.737500", "085037.737500", "085039.737500", "085041.737500", "085043.737500", "085045.737500", "085047.737500", "085049.737500", "085051.737500", "085053.737500", "085055.737500", "085057.737500", "085059.737500", "085101.737500", "085103.737500", "085105.737500", "085107.737500", "085109.737500", "085111.737500", "085113.737500", "085115.737500", "085117.737500", "085119.737500", "085121.737500", "085123.737500", "085125.737500"],
      "ContentTime": ["084528.650000", "084528.653000", "084528.656000", "084528.658000", "084528.661000", "084528.663000", "084528.666000", "084528.668000", "084528.670000", "084528.673000", "084528.675000", "084528.677000", "084528.680000", "084528.682000", "084528.684000", "084528.687000", "084528.697000", "084528.699000", "084528.702000", "084528.704000", "084608.645000", "084608.648000", "084608.651000", "084608.653000", "084608.655000", "084608.658000", "084608.660000", "084608.662000", "084608.665000", "084608.667000", "084608.669000", "084608.672000", "084608.674000", "084608.677000", "084608.679000", "084608.681000", "084608.684000", "084608.686000", "084608.688000", "084608.691000", "084648.644000", "084648.647000", "084648.650000", "084648.659000", "084648.661000", "084648.664000", "084648.666000", "084648.668000", "084648.671000", "084648.673000", "084648.675000", "084648.678000", "084648.680000", "084648.682000", "084648.685000", "084648.687000", "084648.689000", "084648.692000", "084648.700000", "084648.703000", "084728.645000", "084728.648000", "084728.650000", "084728.652000", "084728.655000", "084728.657000", "084728.659000", "084728.662000", "084728.664000", "084728.667000", "084728.669000", "084728.671000", "084728.674000", "084728.676000", "084728.679000", "084728.681000", "084728.684000", "084728.686000", "084728.688000", "084728.691000", "084808.645000", "084808.648000", "084808.651000", "084808.653000", "084808.655000", "084808.658000", "084808.660000", "084808.663000", "084808.665000", "084808.668000", "084808.670000", "084808.672000", "084808.675000", "084808.677000", "084808.679000", "084808.682000", "084808.684000", "084808.687000", "084808.689000", "084808.691000", "084848.644000", "084848.647000", "084848.649000", "084848.652000", "084848.654000", "084848.657000", "084848.659000", "084848.661000", "084848.664000", "084848.666000", "084848.668000", "084848.671000", "084848.673000", "084848.676000", "084848.678000", "084848.680000", "084848.683000", "084848.685000", "084848.687000", "084848.690000", "084928.644000", "084928.647000", "084928.649000", "084928.652000", "084928.654000", "084928.657000", "084928.659000", "084928.661000", "084928.664000", "084928.666000", "084928.668000", "084928.671000", "084928.673000", "084928.687000", "084928.690000", "084928.692000", "084928.694000", "084928.697000", "084928.699000", "084928.702000", "085008.644000", "085008.647000", "085008.650000", "085008.652000", "085008.654000", "085008.657000", "085008.659000", "085008.662000", "085008.664000", "085008.666000", "085008.669000", "085008.671000", "085008.673000", "085008.676000", "085008.678000", "085008.681000", "085008.683000", "085008.685000", "085008.688000", "085008.690000", "085048.645000", "085048.648000", "085048.650000", "085048.652000", "085048.655000", "085048.657000", "085048.660000", "085048.662000", "085048.664000", "085048.667000", "085048.669000", "085048.671000", "085048.674000", "085048.676000", "085048.679000", "085048.681000", "085048.683000", "085048.686000", "085048.688000", "085048.690000", "085127.199000", "085127.204000", "085127.209000", "085127.211000", "085127.214000", "085127.218000", "085127.224000", "085127.227000", "085127.229000", "085127.232000", "085127.235000", "085127.237000", "085127.241000", "085127.244000", "085127.247000", "085127.250000", "085127.253000", "085127.255000", "085127.258000", "085127.261000"],
      "InstanceCreationTime": ["084528.650000", "084528.653000", "084528.656000", "084528.658000", "084528.661000", "084528.663000", "084528.666000", "084528.668000", "084528.670000", "084528.673000", "084528.675000", "084528.677000", "084528.680000", "084528.682000", "084528.684000", "084528.687000", "084528.697000", "084528.699000", "084528.702000", "084528.704000", "084608.645000", "084608.648000", "084608.651000", "084608.653000", "084608.655000", "084608.658000", "084608.660000", "084608.662000", "084608.665000", "084608.667000", "084608.669000", "084608.672000", "084608.674000", "084608.677000", "084608.679000", "084608.681000", "084608.684000", "084608.686000", "084608.688000", "084608.691000", "084648.644000", "084648.647000", "084648.650000", "084648.659000", "084648.661000", "084648.664000", "084648.666000", "084648.668000", "084648.671000", "084648.673000", "084648.675000", "084648.678000", "084648.680000", "084648.682000", "084648.685000", "084648.687000", "084648.689000", "084648.692000", "084648.700000", "084648.703000", "084728.645000", "084728.648000", "084728.650000", "084728.652000", "084728.655000", "084728.657000", "084728.659000", "084728.662000", "084728.664000", "084728.667000", "084728.669000", "084728.671000", "084728.674000", "084728.676000", "084728.679000", "084728.681000", "084728.684000", "084728.686000", "084728.688000", "084728.691000", "084808.645000", "084808.648000", "084808.651000", "084808.653000", "084808.655000", "084808.658000", "084808.660000", "084808.663000", "084808.665000", "084808.668000", "084808.670000", "084808.672000", "084808.675000", "084808.677000", "084808.679000", "084808.682000", "084808.684000", "084808.687000", "084808.689000", "084808.691000", "084848.644000", "084848.647000", "084848.649000", "084848.652000", "084848.654000", "084848.657000", "084848.659000", "084848.661000", "084848.664000", "084848.666000", "084848.668000", "084848.671000", "084848.673000", "084848.676000", "084848.678000", "084848.680000", "084848.683000", "084848.685000", "084848.687000", "084848.690000", "084928.644000", "084928.647000", "084928.649000", "084928.652000", "084928.654000", "084928.657000", "084928.659000", "084928.661000", "084928.664000", "084928.666000", "084928.668000", "084928.671000", "084928.673000", "084928.687000", "084928.690000", "084928.692000", "084928.694000", "084928.697000", "084928.699000", "084928.702000", "085008.644000", "085008.647000", "085008.650000", "085008.652000", "085008.654000", "085008.657000", "085008.659000", "085008.662000", "085008.664000", "085008.666000", "085008.669000", "085008.671000", "085008.673000", "085008.676000", "085008.678000", "085008.681000", "085008.683000", "085008.685000", "085008.688000", "085008.690000", "085048.645000", "085048.648000", "085048.650000", "085048.652000", "085048.655000", "085048.657000", "085048.660000", "085048.662000", "085048.664000", "085048.667000", "085048.669000", "085048.671000", "085048.674000", "085048.676000", "085048.679000", "085048.681000", "085048.683000", "085048.686000", "085048.688000", "085048.690000", "085127.199000", "085127.204000", "085127.209000", "085127.211000", "085127.214000", "085127.218000", "085127.224000", "085127.227000", "085127.229000", "085127.232000", "085127.235000", "085127.237000", "085127.241000", "085127.244000", "085127.247000", "085127.250000", "085127.253000", "085127.255000", "085127.258000", "085127.261000"],
      "InstanceNumber": [1, 2, 3, 4, 5, 6, 7, 8, 9, 10, 11, 12, 13, 14, 15, 16, 17, 18, 19, 20, 21, 22, 23, 24, 25, 26, 27, 28, 29, 30, 31, 32, 33, 34, 35, 36, 37, 38, 39, 40, 41, 42, 43, 44, 45, 46, 47, 48, 49, 50, 51, 52, 53, 54, 55, 56, 57, 58, 59, 60, 61, 62, 63, 64, 65, 66, 67, 68, 69, 70, 71, 72, 73, 74, 75, 76, 77, 78, 79, 80, 81, 82, 83, 84, 85, 86, 87, 88, 89, 90, 91, 92, 93, 94, 95, 96, 97, 98, 99, 100, 101, 102, 103, 104, 105, 106, 107, 108, 109, 110, 111, 112, 113, 114, 115, 116, 117, 118, 119, 120, 121, 122, 123, 124, 125, 126, 127, 128, 129, 130, 131, 132, 133, 134, 135, 136, 137, 138, 139, 140, 141, 142, 143, 144, 145, 146, 147, 148, 149, 150, 151, 152, 153, 154, 155, 156, 157, 158, 159, 160, 161, 162, 163, 164, 165, 166, 167, 168, 169, 170, 171, 172, 173, 174, 175, 176, 177, 178, 179, 180, 181, 182, 183, 184, 185, 186, 187, 188, 189, 190, 191, 192, 193, 194, 195, 196, 197, 198, 199, 200],
      "WindowCenter": [1525.0, 1525.0, 1525.0, 1524.0, 1523.0, 1524.0, 1524.0, 1524.0, 1524.0, 1524.0, 1524.0, 1524.0, 1524.0, 1524.0, 1524.0, 1524.0, 1523.0, 1524.0, 1523.0, 1523.0, 1523.0, 1522.0, 1523.0, 1523.0, 1522.0, 1523.0, 1523.0, 1522.0, 1523.0, 1522.0, 1522.0, 1523.0, 1522.0, 1522.0, 1522.0, 1523.0, 1522.0, 1522.0, 1522.0, 1522.0, 1522.0, 1522.0, 1521.0, 1522.0, 1522.0, 1522.0, 1522.0, 1521.0, 1522.0, 1521.0, 1521.0, 1521.0, 1521.0, 1521.0, 1522.0, 1521.0, 1521.0, 1521.0, 1521.0, 1521.0, 1521.0, 1521.0, 1521.0, 1520.0, 1521.0, 1521.0, 1521.0, 1521.0, 1520.0, 1520.0, 1520.0, 1520.0, 1520.0, 1521.0, 1520.0, 1520.0, 1519.0, 1520.0, 1520.0, 1520.0, 1520.0, 1521.0, 1520.0, 1521.0, 1520.0, 1520.0, 1520.0, 1520.0, 1519.0, 1519.0, 1519.0, 1519.0, 1519.0, 1519.0, 1519.0, 1520.0, 1519.0, 1520.0, 1519.0, 1519.0, 1519.0, 1520.0, 1519.0, 1520.0, 1519.0, 1519.0, 1520.0, 1519.0, 1519.0, 1519.0, 1519.0, 1519.0, 1519.0, 1519.0, 1519.0, 1518.0, 1518.0, 1519.0, 1519.0, 1519.0, 1519.0, 1518.0, 1518.0, 1518.0, 1518.0, 1519.0, 1518.0, 1518.0, 1518.0, 1519.0, 1518.0, 1518.0, 1518.0, 1518.0, 1519.0, 1519.0, 1518.0, 1518.0, 1518.0, 1518.0, 1518.0, 1518.0, 1517.0, 1517.0, 1518.0, 1518.0, 1518.0, 1517.0, 1518.0, 1517.0, 1518.0, 1517.0, 1517.0, 1517.0, 1517.0, 1516.0, 1517.0, 1517.0, 1517.0, 1517.0, 1517.0, 1517.0, 1517.0, 1517.0, 1517.0, 1518.0, 1517.0, 1517.0, 1517.0, 1518.0, 1516.0, 1516.0, 1517.0, 1516.0, 1516.0, 1517.0, 1516.0, 1516.0, 1516.0, 1516.0, 1516.0, 1516.0, 1517.0, 1517.0, 1516.0, 1516.0, 1516.0, 1517.0, 1515.0, 1516.0, 1516.0, 1516.0, 1516.0, 1516.0, 1516.0, 1516.0, 1516.0, 1516.0, 1516.0, 1516.0],
      "WindowWidth": [3406.0, 3405.0, 3405.0, 3405.0, 3405.0, 3405.0, 3405.0, 3405.0, 3405.0, 3405.0, 3405.0, 3405.0, 3405.0, 3405.0, 3405.0, 3405.0, 3405.0, 3405.0, 3405.0, 3405.0, 3405.0, 3405.0, 3405.0, 3405.0, 3405.0, 3405.0, 3405.0, 3405.0, 3405.0, 3405.0, 3405.0, 3405.0, 3405.0, 3405.0, 3405.0, 3405.0, 3405.0, 3405.0, 3405.0, 3404.0, 3405.0, 3404.0, 3405.0, 3404.0, 3404.0, 3405.0, 3404.0, 3405.0, 3404.0, 3404.0, 3404.0, 3404.0, 3404.0, 3404.0, 3404.0, 3404.0, 3404.0, 3404.0, 3404.0, 3404.0, 3404.0, 3404.0, 3404.0, 3404.0, 3404.0, 3403.0, 3403.0, 3403.0, 3403.0, 3403.0, 3403.0, 3403.0, 3403.0, 3403.0, 3403.0, 3403.0, 3404.0, 3403.0, 3403.0, 3403.0, 3403.0, 3403.0, 3403.0, 3403.0, 3403.0, 3403.0, 3403.0, 3403.0, 3403.0, 3403.0, 3403.0, 3403.0, 3403.0, 3403.0, 3403.0, 3403.0, 3403.0, 3403.0, 3403.0, 3403.0, 3403.0, 3403.0, 3403.0, 3403.0, 3403.0, 3403.0, 3403.0, 3402.0, 3402.0, 3402.0, 3402.0, 3402.0, 3402.0, 3402.0, 3402.0, 3403.0, 3403.0, 3402.0, 3402.0, 3402.0, 3402.0, 3402.0, 3402.0, 3402.0, 3402.0, 3402.0, 3402.0, 3402.0, 3402.0, 3402.0, 3402.0, 3402.0, 3402.0, 3402.0, 3402.0, 3402.0, 3402.0, 3402.0, 3402.0, 3402.0, 3402.0, 3402.0, 3402.0, 3402.0, 3401.0, 3401.0, 3401.0, 3402.0, 3402.0, 3402.0, 3401.0, 3401.0, 3401.0, 3402.0, 3401.0, 3402.0, 3401.0, 3401.0, 3402.0, 3401.0, 3401.0, 3401.0, 3401.0, 3401.0, 3401.0, 3401.0, 3401.0, 3401.0, 3401.0, 3401.0, 3401.0, 3402.0, 3401.0, 3401.0, 3401.0, 3401.0, 3401.0, 3401.0, 3401.0, 3401.0, 3401.0, 3401.0, 3401.0, 3401.0, 3401.0, 3401.0, 3401.0, 3401.0, 3401.0, 3400.0, 3400.0, 3400.0, 3400.0, 3400.0, 3400.0, 3400.0, 3400.0, 3400.0, 3400.0, 3400.0]
    },
    "slices": {}
  }
}