{
  "AcquisitionMatrixPE": 80,
  "AcquisitionNumber": 1,
  "AcquisitionTime": "09:03:3.817500",
  "BandwidthPerPixelPhaseEncode": 48.077,
  "BaseResolution": 80,
  "BodyPartExamined": "BRAIN",
  "CoilCombinationMethod": "Sum of Squares",
  "ConsistencyInfo": "N4_VE11C_LATEST_20160120",
  "ConversionSoftware": "dcm2niix",
  "ConversionSoftwareVersion": "v1.0.20220720",
  "DerivedVendorReportedEchoSpacing": 0.000519999,
  "DeviceSerialNumber": "66112",
  "DwellTime": 2.7e-06,
  "EchoTime": 0.035,
  "EchoTrainLength": 39,
  "EffectiveEchoSpacing": 0.00026,
  "FlipAngle": 90,
  "HeudiconvVersion": "0.13.1",
  "ImageOrientationPatientDICOM": [0.984377, -0.174835, -0.0208476, 0.173041, 0.938737, 0.298042],
  "ImageOrientationText": "Tra>Cor(17.3)>Sag(1.9)",
  "ImageType": [
    "ORIGINAL",
    "PRIMARY",
    "M",
    "ND",
    "NORM",
    "MOSAIC"
],
  "ImagingFrequency": 123.252,
  "InPlanePhaseEncodingDirectionDICOM": "COL",
  "InstitutionAddress": "Maynard 3,Hanover,NH,US,03755",
  "InstitutionName": "Dartmouth College - PBS",
  "InstitutionalDepartmentName": "Department",
  "MRAcquisitionType": "2D",
  "MagneticFieldStrength": 3,
  "Manufacturer": "Siemens",
  "ManufacturersModelName": "Prisma",
  "MatrixCoilMode": "GRAPPA",
  "Modality": "MR",
  "NonlinearGradientCorrection": false,
  "ParallelReductionFactorInPlane": 2,
  "PartialFourier": 1,
  "PatientPosition": "HFS",
  "PercentPhaseFOV": 100,
  "PercentSampling": 100,
  "PhaseEncodingDirection": "j-",
  "PhaseEncodingSteps": 79,
  "PhaseResolution": 1,
  "PixelBandwidth": 2315,
  "ProcedureStepDescription": "dbic^QA",
  "ProtocolName": "func-bold_task-rest_acq-p2",
  "PulseSequenceDetails": "%SiemensSeq%\\ep2d_bold",
  "ReceiveCoilActiveElements": "HC1-7;NC1,2",
  "ReceiveCoilName": "HeadNeck_64",
  "ReconMatrixPE": 80,
  "RefLinesPE": 24,
  "RepetitionTime": 2,
  "SAR": 0.0360933,
  "ScanOptions": "FS",
  "ScanningSequence": "EP",
  "SequenceName": "*epfid2d1_80",
  "SequenceVariant": "SK",
  "SeriesDescription": "func-bold_task-rest_acq-p2",
  "SeriesNumber": 5,
  "ShimSetting": [4139, -7696, -7508, 217, -68, -323, -21, 86],
  "SliceThickness": 3.5,
  "SliceTiming": [0.99, 0, 1.055, 0.065, 1.12, 0.13, 1.1875, 0.1975, 1.2525, 0.2625, 1.32, 0.33, 1.385, 0.395, 1.45, 0.46, 1.5175, 0.5275, 1.5825, 0.5925, 1.65, 0.66, 1.715, 0.725, 1.78, 0.79, 1.8475, 0.8575, 1.9125, 0.9225],
  "SoftwareVersions": "syngo MR E11",
  "SpacingBetweenSlices": 3.99,
  "StationName": "AWP66112",
  "TaskName": "rest",
  "TotalReadoutTime": 0.02054,
  "TxRefAmp": 211.115,
  "dcmmeta_affine": [
    [-2.9531311988830566, 0.5191225409507751, 0.12982580065727234, 95.34330749511719],
    [0.5245044827461243, 2.816211700439453, 1.1850039958953857, -130.43333435058594],
    [-0.06254269927740097, -0.8941269516944885, 3.8077566623687744, -25.79087257385254],
    [0.0, 0.0, 0.0, 1.0]
],
  "dcmmeta_reorient_transform": [
    [0.0, -1.0, 0.0, 79.0],
    [1.0, 0.0, 0.0, 0.0],
    [0.0, 0.0, 1.0, 0.0],
    [0.0, 0.0, 0.0, 1.0]
],
  "dcmmeta_shape": [80, 80, 30, 200],
  "dcmmeta_slice_dim": 2,
  "dcmmeta_version": 0.6,
  "global": {
    "const": {
      "AccessionNumber": "qa64",
      "AcquisitionMatrix": [80, 0, 0, 80],
      "AngioFlag": "N",
      "BitsAllocated": 16,
      "BitsStored": 12,
      "BodyPartExamined": "BRAIN",
      "Columns": 480,
      "EchoNumbers": 1,
      "EchoTime": 35.0,
      "EchoTrainLength": 39,
      "FlipAngle": 90.0,
      "HighBit": 11,
      "ImageOrientationPatient": [0.98437704151756, -0.1748348339064, -0.0208475654704, 0.17304083954664, 0.93873725982327, 0.29804232059977],
      "ImagePositionPatient": [-830.80471437401, -550.38884969485, -262.74375595025],
      "ImageType": [
        "ORIGINAL",
        "PRIMARY",
        "M",
        "ND",
        "NORM",
        "MOSAIC"
],
      "ImagedNucleus": "1H",
      "ImagingFrequency": 123.252362,
      "InPlanePhaseEncodingDirection": "COL",
      "MRAcquisitionType": "2D",
      "MagneticFieldStrength": 3.0,
      "Manufacturer": "SIEMENS",
      "ManufacturerModelName": "Prisma",
      "Modality": "MR",
      "NumberOfAverages": 1.0,
      "NumberOfPhaseEncodingSteps": 79,
      "PercentPhaseFieldOfView": 100.0,
      "PercentSampling": 100.0,
      "PerformedProcedureStepStartTime": "085859.786000",
      "PhotometricInterpretation": "MONOCHROME2",
      "PixelBandwidth": 2315.0,
      "PixelRepresentation": 0,
      "PixelSpacing": [3.0, 3.0],
      "ProtocolName": "func-bold_task-rest_acq-p2",
      "RepetitionTime": 2000.0,
      "Rows": 480,
      "SAR": 0.03609331097676,
      "SamplesPerPixel": 1,
      "ScanOptions": "FS",
      "ScanningSequence": "EP",
      "SequenceName": "*epfid2d1_80",
      "SequenceVariant": "SK",
      "SeriesDescription": "func-bold_task-rest_acq-p2",
      "SeriesNumber": 5,
      "SeriesTime": "090349.860000",
      "SliceLocation": -60.248466130396,
      "SliceThickness": 3.5,
      "SmallestImagePixelValue": 0,
      "SoftwareVersions": "syngo MR E11",
      "SpacingBetweenSlices": 3.9899999806359,
      "SpecificCharacterSet": "ISO_IR 100",
      "StudyID": "11",
      "StudyTime": "085859.694000",
      "TransmitCoilName": "Body",
      "VariableFlipAngleFlag": "N",
      "WindowCenterWidthExplanation": "Algo1",
      "dBdt": 0.0},
    "slices": {}
  },
  "time": {
    "samples": {
      "AcquisitionNumber": [1, 2, 3, 4, 5, 6, 7, 8, 9, 10, 11, 12, 13, 14, 15, 16, 17, 18, 19, 20, 21, 22, 23, 24, 25, 26, 27, 28, 29, 30, 31, 32, 33, 34, 35, 36, 37, 38, 39, 40, 41, 42, 43, 44, 45, 46, 47, 48, 49, 50, 51, 52, 53, 54, 55, 56, 57, 58, 59, 60, 61, 62, 63, 64, 65, 66, 67, 68, 69, 70, 71, 72, 73, 74, 75, 76, 77, 78, 79, 80, 81, 82, 83, 84, 85, 86, 87, 88, 89, 90, 91, 92, 93, 94, 95, 96, 97, 98, 99, 100, 101, 102, 103, 104, 105, 106, 107, 108, 109, 110, 111, 112, 113, 114, 115, 116, 117, 118, 119, 120, 121, 122, 123, 124, 125, 126, 127, 128, 129, 130, 131, 132, 133, 134, 135, 136, 137, 138, 139, 140, 141, 142, 143, 144, 145, 146, 147, 148, 149, 150, 151, 152, 153, 154, 155, 156, 157, 158, 159, 160, 161, 162, 163, 164, 165, 166, 167, 168, 169, 170, 171, 172, 173, 174, 175, 176, 177, 178, 179, 180, 181, 182, 183, 184, 185, 186, 187, 188, 189, 190, 191, 192, 193, 194, 195, 196, 197, 198, 199, 200],
      "AcquisitionTime": ["090303.817500", "090305.817500", "090307.817500", "090309.817500", "090311.817500", "090313.817500", "090315.817500", "090317.817500", "090319.817500", "090321.817500", "090323.817500", "090325.817500", "090327.817500", "090329.817500", "090331.817500", "090333.817500", "090335.817500", "090337.817500", "090339.817500", "090341.817500", "090343.817500", "090345.817500", "090347.817500", "090349.817500", "090351.817500", "090353.817500", "090355.817500", "090357.817500", "090359.817500", "090401.817500", "090403.817500", "090405.817500", "090407.817500", "090409.817500", "090411.817500", "090413.817500", "090415.817500", "090417.817500", "090419.817500", "090421.817500", "090423.817500", "090425.817500", "090427.817500", "090429.817500", "090431.817500", "090433.817500", "090435.817500", "090437.817500", "090439.817500", "090441.817500", "090443.817500", "090445.817500", "090447.817500", "090449.817500", "090451.817500", "090453.817500", "090455.817500", "090457.817500", "090459.817500", "090501.817500", "090503.817500", "090505.817500", "090507.817500", "090509.817500", "090511.817500", "090513.817500", "090515.817500", "090517.817500", "090519.817500", "090521.817500", "090523.817500", "090525.817500", "090527.817500", "090529.817500", "090531.817500", "090533.817500", "090535.817500", "090537.817500", "090539.817500", "090541.817500", "090543.817500", "090545.817500", "090547.817500", "090549.817500", "090551.817500", "090553.817500", "090555.817500", "090557.817500", "090559.817500", "090601.817500", "090603.817500", "090605.817500", "090607.817500", "090609.817500", "090611.817500", "090613.817500", "090615.817500", "090617.817500", "090619.817500", "090621.817500", "090623.817500", "090625.817500", "090627.817500", "090629.817500", "090631.817500", "090633.817500", "090635.817500", "090637.817500", "090639.817500", "090641.817500", "090643.817500", "090645.817500", "090647.817500", "090649.817500", "090651.817500", "090653.817500", "090655.817500", "090657.817500", "090659.817500", "090701.817500", "090703.817500", "090705.817500", "090707.817500", "090709.817500", "090711.817500", "090713.817500", "090715.817500", "090717.817500", "090719.817500", "090721.817500", "090723.817500", "090725.817500", "090727.817500", "090729.817500", "090731.817500", "090733.817500", "090735.817500", "090737.817500", "090739.817500", "090741.817500", "090743.817500", "090745.817500", "090747.817500", "090749.817500", "090751.817500", "090753.817500", "090755.817500", "090757.817500", "090759.817500", "090801.817500", "090803.817500", "090805.817500", "090807.817500", "090809.817500", "090811.817500", "090813.817500", "090815.817500", "090817.817500", "090819.817500", "090821.817500", "090823.817500", "090825.817500", "090827.817500", "090829.817500", "090831.817500", "090833.817500", "090835.817500", "090837.817500", "090839.817500", "090841.817500", "090843.817500", "090845.817500", "090847.817500", "090849.817500", "090851.817500", "090853.817500", "090855.817500", "090857.817500", "090859.817500", "090901.817500", "090903.817500", "090905.817500", "090907.817500", "090909.817500", "090911.817500", "090913.817500", "090915.817500", "090917.817500", "090919.817500", "090921.817500", "090923.817500", "090925.817500", "090927.817500", "090929.817500", "090931.817500", "090933.817500", "090935.817500", "090937.817500", "090939.817500", "090941.817500"],
      "ContentTime": ["090349.864000", "090349.867000", "090349.870000", "090349.872000", "090349.875000", "090349.877000", "090349.880000", "090349.882000", "090349.885000", "090349.887000", "090349.890000", "090349.893000", "090349.895000", "090349.898000", "090349.900000", "090349.911000", "090349.914000", "090349.916000", "090349.919000", "090349.921000", "090349.924000", "090349.927000", "090349.929000", "090429.858000", "090429.861000", "090429.864000", "090429.866000", "090429.869000", "090429.871000", "090429.874000", "090429.876000", "090429.879000", "090429.882000", "090429.884000", "090429.887000", "090429.889000", "090429.892000", "090429.894000", "090429.897000", "090429.899000", "090429.902000", "090429.905000", "090429.907000", "090509.859000", "090509.862000", "090509.864000", "090509.867000", "090509.870000", "090509.872000", "090509.875000", "090509.877000", "090509.880000", "090509.883000", "090509.885000", "090509.888000", "090509.890000", "090509.893000", "090509.895000", "090509.898000", "090509.901000", "090509.903000", "090509.906000", "090509.908000", "090549.859000", "090549.862000", "090549.864000", "090549.867000", "090549.869000", "090549.872000", "090549.874000", "090549.877000", "090549.879000", "090549.882000", "090549.884000", "090549.887000", "090549.890000", "090549.892000", "090549.895000", "090549.897000", "090549.900000", "090549.902000", "090549.905000", "090549.907000", "090629.859000", "090629.862000", "090629.865000", "090629.867000", "090629.870000", "090629.872000", "090629.875000", "090629.877000", "090629.880000", "090629.883000", "090629.885000", "090629.888000", "090629.890000", "090629.893000", "090629.896000", "090629.898000", "090629.901000", "090629.903000", "090629.906000", "090629.908000", "090709.858000", "090709.861000", "090709.864000", "090709.866000", "090709.869000", "090709.872000", "090709.874000", "090709.877000", "090709.879000", "090709.882000", "090709.885000", "090709.887000", "090709.890000", "090709.892000", "090709.895000", "090709.897000", "090709.900000", "090709.903000", "090709.905000", "090709.908000", "090749.859000", "090749.861000", "090749.864000", "090749.867000", "090749.873000", "090749.875000", "090749.878000", "090749.880000", "090749.883000", "090749.886000", "090749.888000", "090749.891000", "090749.893000", "090749.904000", "090749.906000", "090749.909000", "090749.912000", "090749.914000", "090749.917000", "090749.919000", "090829.858000", "090829.861000", "090829.864000", "090829.866000", "090829.869000", "090829.872000", "090829.874000", "090829.877000", "090829.879000", "090829.882000", "090829.884000", "090829.887000", "090829.890000", "090829.892000", "090829.895000", "090829.897000", "090829.900000", "090829.902000", "090829.905000", "090829.908000", "090909.858000", "090909.870000", "090909.873000", "090909.876000", "090909.882000", "090909.885000", "090909.887000", "090909.901000", "090909.904000", "090909.906000", "090909.919000", "090909.921000", "090909.924000", "090909.926000", "090909.929000", "090909.942000", "090909.944000", "090909.947000", "090909.949000", "090909.952000", "090943.190000", "090943.207000", "090943.210000", "090943.213000", "090943.216000", "090943.218000", "090943.221000", "090943.224000", "090943.226000", "090943.229000", "090943.232000", "090943.234000", "090943.237000", "090943.240000", "090943.242000", "090943.245000", "090943.248000"],
      "InstanceCreationTime": ["090349.864000", "090349.867000", "090349.870000", "090349.872000", "090349.875000", "090349.877000", "090349.880000", "090349.882000", "090349.885000", "090349.887000", "090349.890000", "090349.893000", "090349.895000", "090349.898000", "090349.900000", "090349.911000", "090349.914000", "090349.916000", "090349.919000", "090349.921000", "090349.924000", "090349.927000", "090349.929000", "090429.858000", "090429.861000", "090429.864000", "090429.866000", "090429.869000", "090429.871000", "090429.874000", "090429.876000", "090429.879000", "090429.882000", "090429.884000", "090429.887000", "090429.889000", "090429.892000", "090429.894000", "090429.897000", "090429.899000", "090429.902000", "090429.905000", "090429.907000", "090509.859000", "090509.862000", "090509.864000", "090509.867000", "090509.870000", "090509.872000", "090509.875000", "090509.877000", "090509.880000", "090509.883000", "090509.885000", "090509.888000", "090509.890000", "090509.893000", "090509.895000", "090509.898000", "090509.901000", "090509.903000", "090509.906000", "090509.908000", "090549.859000", "090549.862000", "090549.864000", "090549.867000", "090549.869000", "090549.872000", "090549.874000", "090549.877000", "090549.879000", "090549.882000", "090549.884000", "090549.887000", "090549.890000", "090549.892000", "090549.895000", "090549.897000", "090549.900000", "090549.902000", "090549.905000", "090549.907000", "090629.859000", "090629.862000", "090629.865000", "090629.867000", "090629.870000", "090629.872000", "090629.875000", "090629.877000", "090629.880000", "090629.883000", "090629.885000", "090629.888000", "090629.890000", "090629.893000", "090629.896000", "090629.898000", "090629.901000", "090629.903000", "090629.906000", "090629.908000", "090709.858000", "090709.861000", "090709.864000", "090709.866000", "090709.869000", "090709.872000", "090709.874000", "090709.877000", "090709.879000", "090709.882000", "090709.885000", "090709.887000", "090709.890000", "090709.892000", "090709.895000", "090709.897000", "090709.900000", "090709.903000", "090709.905000", "090709.908000", "090749.859000", "090749.861000", "090749.864000", "090749.867000", "090749.873000", "090749.875000", "090749.878000", "090749.880000", "090749.883000", "090749.886000", "090749.888000", "090749.891000", "090749.893000", "090749.904000", "090749.906000", "090749.909000", "090749.912000", "090749.914000", "090749.917000", "090749.919000", "090829.858000", "090829.861000", "090829.864000", "090829.866000", "090829.869000", "090829.872000", "090829.874000", "090829.877000", "090829.879000", "090829.882000", "090829.884000", "090829.887000", "090829.890000", "090829.892000", "090829.895000", "090829.897000", "090829.900000", "090829.902000", "090829.905000", "090829.908000", "090909.858000", "090909.870000", "090909.873000", "090909.876000", "090909.882000", "090909.885000", "090909.887000", "090909.901000", "090909.904000", "090909.906000", "090909.919000", "090909.921000", "090909.924000", "090909.926000", "090909.929000", "090909.942000", "090909.944000", "090909.947000", "090909.949000", "090909.952000", "090943.190000", "090943.207000", "090943.210000", "090943.213000", "090943.216000", "090943.218000", "090943.221000", "090943.224000", "090943.226000", "090943.229000", "090943.232000", "090943.234000", "090943.237000", "090943.240000", "090943.242000", "090943.245000", "090943.248000"],
      "InstanceNumber": [1, 2, 3, 4, 5, 6, 7, 8, 9, 10, 11, 12, 13, 14, 15, 16, 17, 18, 19, 20, 21, 22, 23, 24, 25, 26, 27, 28, 29, 30, 31, 32, 33, 34, 35, 36, 37, 38, 39, 40, 41, 42, 43, 44, 45, 46, 47, 48, 49, 50, 51, 52, 53, 54, 55, 56, 57, 58, 59, 60, 61, 62, 63, 64, 65, 66, 67, 68, 69, 70, 71, 72, 73, 74, 75, 76, 77, 78, 79, 80, 81, 82, 83, 84, 85, 86, 87, 88, 89, 90, 91, 92, 93, 94, 95, 96, 97, 98, 99, 100, 101, 102, 103, 104, 105, 106, 107, 108, 109, 110, 111, 112, 113, 114, 115, 116, 117, 118, 119, 120, 121, 122, 123, 124, 125, 126, 127, 128, 129, 130, 131, 132, 133, 134, 135, 136, 137, 138, 139, 140, 141, 142, 143, 144, 145, 146, 147, 148, 149, 150, 151, 152, 153, 154, 155, 156, 157, 158, 159, 160, 161, 162, 163, 164, 165, 166, 167, 168, 169, 170, 171, 172, 173, 174, 175, 176, 177, 178, 179, 180, 181, 182, 183, 184, 185, 186, 187, 188, 189, 190, 191, 192, 193, 194, 195, 196, 197, 198, 199, 200],
      "LargestImagePixelValue": [3970, 3970, 3987, 3987, 3978, 3989, 3983, 3979, 3992, 3976, 3981, 3996, 3977, 3988, 3981, 3976, 3973, 3973, 3986, 3988, 3989, 3983, 3977, 3979, 3976, 3983, 3982, 3978, 3978, 4003, 4002, 3980, 3988, 3976, 3978, 3983, 3981, 3974, 3998, 3986, 3990, 3988, 4013, 3976, 3976, 3991, 3988, 3985, 3982, 3973, 3986, 3989, 3997, 3986, 3991, 3979, 4008, 3972, 3989, 3982, 3985, 3983, 3979, 3996, 3996, 3982, 3982, 3983, 3998, 3981, 3988, 3984, 3975, 3981, 3988, 3982, 3990, 3979, 3986, 3992, 3998, 3983, 3985, 3986, 3986, 3993, 3988, 3996, 4007, 3995, 3993, 3984, 3991, 3986, 3990, 3975, 4010, 3987, 4003, 3989, 3982, 4000, 3991, 3994, 3980, 3985, 3982, 3994, 3971, 3984, 3998, 3997, 3996, 3999, 3992, 3988, 3994, 3991, 3989, 3991, 3993, 3991, 3991, 3982, 3994, 3991, 3988, 3999, 3982, 3996, 4004, 4001, 4000, 3976, 3995, 3982, 4011, 3988, 3984, 3991, 3979, 3995, 3986, 3991, 3984, 3989, 3984, 3987, 3977, 3986, 3999, 3995, 3995, 3995, 3985, 4006, 4000, 3990, 3986, 3984, 4004, 3999, 3985, 3994, 4012, 3993, 3998, 3995, 4005, 4005, 3992, 4006, 3991, 3990, 3996, 4005, 3982, 3988, 4001, 4008, 3998, 3981, 3987, 3985, 3993, 4001, 4003, 3996, 4008, 3987, 3998, 4003, 3991, 4009, 3987, 3994, 3996, 3988, 3989, 4009],
      "WindowCenter": [1417.0, 1417.0, 1417.0, 1417.0, 1417.0, 1417.0, 1417.0, 1416.0, 1416.0, 1416.0, 1416.0, 1416.0, 1416.0, 1416.0, 1417.0, 1416.0, 1417.0, 1415.0, 1416.0, 1416.0, 1416.0, 1416.0, 1416.0, 1416.0, 1416.0, 1416.0, 1415.0, 1415.0, 1415.0, 1415.0, 1415.0, 1416.0, 1416.0, 1415.0, 1415.0, 1416.0, 1415.0, 1415.0, 1415.0, 1415.0, 1414.0, 1415.0, 1415.0, 1415.0, 1415.0, 1415.0, 1414.0, 1416.0, 1415.0, 1414.0, 1415.0, 1415.0, 1415.0, 1415.0, 1414.0, 1415.0, 1414.0, 1414.0, 1415.0, 1414.0, 1414.0, 1414.0, 1415.0, 1415.0, 1414.0, 1415.0, 1414.0, 1414.0, 1414.0, 1414.0, 1415.0, 1414.0, 1414.0, 1414.0, 1414.0, 1414.0, 1414.0, 1413.0, 1414.0, 1414.0, 1413.0, 1414.0, 1414.0, 1414.0, 1414.0, 1413.0, 1414.0, 1413.0, 1413.0, 1414.0, 1414.0, 1414.0, 1413.0, 1413.0, 1413.0, 1413.0, 1413.0, 1414.0, 1414.0, 1414.0, 1413.0, 1413.0, 1413.0, 1413.0, 1413.0, 1413.0, 1414.0, 1413.0, 1413.0, 1414.0, 1413.0, 1413.0, 1413.0, 1413.0, 1413.0, 1413.0, 1412.0, 1413.0, 1413.0, 1413.0, 1412.0, 1413.0, 1412.0, 1412.0, 1413.0, 1412.0, 1412.0, 1412.0, 1412.0, 1412.0, 1412.0, 1413.0, 1412.0, 1412.0, 1412.0, 1412.0, 1412.0, 1412.0, 1412.0, 1412.0, 1412.0, 1412.0, 1412.0, 1412.0, 1412.0, 1412.0, 1411.0, 1412.0, 1412.0, 1412.0, 1411.0, 1411.0, 1412.0, 1412.0, 1412.0, 1412.0, 1412.0, 1412.0, 1412.0, 1411.0, 1412.0, 1411.0, 1411.0, 1411.0, 1412.0, 1412.0, 1412.0, 1411.0, 1411.0, 1412.0, 1411.0, 1411.0, 1411.0, 1410.0, 1410.0, 1410.0, 1411.0, 1411.0, 1410.0, 1410.0, 1411.0, 1411.0, 1411.0, 1411.0, 1411.0, 1412.0, 1410.0, 1410.0, 1411.0, 1411.0, 1411.0, 1410.0, 1411.0, 1411.0, 1411.0, 1411.0, 1410.0, 1410.0, 1411.0, 1410.0],
      "WindowWidth": [3270.0, 3269.0, 3269.0, 3269.0, 3269.0, 3269.0, 3269.0, 3269.0, 3269.0, 3269.0, 3269.0, 3269.0, 3269.0, 3269.0, 3269.0, 3269.0, 3268.0, 3269.0, 3269.0, 3269.0, 3269.0, 3269.0, 3269.0, 3269.0, 3269.0, 3269.0, 3269.0, 3269.0, 3269.0, 3269.0, 3269.0, 3269.0, 3269.0, 3269.0, 3269.0, 3269.0, 3269.0, 3269.0, 3269.0, 3269.0, 3269.0, 3269.0, 3269.0, 3269.0, 3269.0, 3269.0, 3269.0, 3269.0, 3269.0, 3269.0, 3269.0, 3269.0, 3269.0, 3269.0, 3269.0, 3269.0, 3269.0, 3269.0, 3269.0, 3269.0, 3269.0, 3270.0, 3269.0, 3269.0, 3269.0, 3269.0, 3269.0, 3269.0, 3269.0, 3269.0, 3269.0, 3269.0, 3269.0, 3270.0, 3269.0, 3269.0, 3269.0, 3270.0, 3269.0, 3269.0, 3270.0, 3269.0, 3269.0, 3270.0, 3269.0, 3270.0, 3270.0, 3270.0, 3270.0, 3269.0, 3269.0, 3269.0, 3270.0, 3270.0, 3270.0, 3270.0, 3270.0, 3269.0, 3269.0, 3269.0, 3270.0, 3270.0, 3270.0, 3270.0, 3270.0, 3270.0, 3269.0, 3270.0, 3269.0, 3269.0, 3270.0, 3270.0, 3270.0, 3270.0, 3270.0, 3270.0, 3270.0, 3270.0, 3269.0, 3270.0, 3270.0, 3270.0, 3269.0, 3269.0, 3269.0, 3270.0, 3269.0, 3269.0, 3269.0, 3270.0, 3269.0, 3269.0, 3269.0, 3269.0, 3269.0, 3269.0, 3269.0, 3269.0, 3269.0, 3269.0, 3269.0, 3269.0, 3269.0, 3270.0, 3269.0, 3270.0, 3270.0, 3269.0, 3269.0, 3269.0, 3270.0, 3270.0, 3269.0, 3269.0, 3269.0, 3269.0, 3269.0, 3269.0, 3269.0, 3269.0, 3269.0, 3269.0, 3269.0, 3269.0, 3269.0, 3269.0, 3269.0, 3269.0, 3269.0, 3269.0, 3269.0, 3269.0, 3269.0, 3269.0, 3269.0, 3269.0, 3269.0, 3269.0, 3269.0, 3270.0, 3269.0, 3269.0, 3269.0, 3269.0, 3269.0, 3269.0, 3269.0, 3269.0, 3269.0, 3269.0, 3269.0, 3269.0, 3269.0, 3269.0, 3269.0, 3269.0, 3269.0, 3269.0, 3269.0, 3269.0]
    },
    "slices": {}
  }
}