{
  "AcquisitionMatrixPE": 80,
  "AcquisitionNumber": 1,
  "AcquisitionTime": "09:09:54.527500",
  "BandwidthPerPixelPhaseEncode": 25,
  "BaseResolution": 80,
  "BodyPartExamined": "BRAIN",
  "CoilCombinationMethod": "Sum of Squares",
  "ConsistencyInfo": "N4_VE11C_LATEST_20160120",
  "ConversionSoftware": "dcm2niix",
  "ConversionSoftwareVersion": "v1.0.20220720",
  "DerivedVendorReportedEchoSpacing": 0.0005,
  "DeviceSerialNumber": "66112",
  "DwellTime": 2.7e-06,
  "EchoTime": 0.03,
  "EchoTrainLength": 80,
  "EffectiveEchoSpacing": 0.0005,
  "FlipAngle": 77,
  "HeudiconvVersion": "0.13.1",
  "ImageOrientationPatientDICOM": [0.984377, -0.174835, -0.0208476, 0.173041, 0.938737, 0.298042],
  "ImageOrientationText": "Tra>Cor(17.3)>Sag(1.9)",
  "ImageType": [
    "ORIGINAL",
    "PRIMARY",
    "M",
    "ND",
    "NORM",
    "MOSAIC"
],
  "ImagingFrequency": 123.252,
  "InPlanePhaseEncodingDirectionDICOM": "COL",
  "InstitutionAddress": "Maynard 3,Hanover,NH,US,03755",
  "InstitutionName": "Dartmouth College - PBS",
  "InstitutionalDepartmentName": "Department",
  "MRAcquisitionType": "2D",
  "MagneticFieldStrength": 3,
  "Manufacturer": "Siemens",
  "ManufacturersModelName": "Prisma",
  "MatrixCoilMode": "SENSE",
  "Modality": "MR",
  "NonlinearGradientCorrection": false,
  "PartialFourier": 1,
  "PatientPosition": "HFS",
  "PercentPhaseFOV": 100,
  "PercentSampling": 100,
  "PhaseEncodingDirection": "j-",
  "PhaseEncodingSteps": 80,
  "PhaseResolution": 1,
  "PixelBandwidth": 2315,
  "ProcedureStepDescription": "dbic^QA",
  "ProtocolName": "func-bold_fa-77",
  "PulseSequenceDetails": "%SiemensSeq%\\ep2d_bold",
  "ReceiveCoilActiveElements": "HC1-7;NC1,2",
  "ReceiveCoilName": "HeadNeck_64",
  "ReconMatrixPE": 80,
  "RepetitionTime": 2,
  "SAR": 0.0283639,
  "ScanOptions": "FS",
  "ScanningSequence": "EP",
  "SequenceName": "*epfid2d1_80",
  "SequenceVariant": "SK",
  "SeriesDescription": "func-bold_fa-77",
  "SeriesNumber": 7,
  "ShimSetting": [4139, -7695, -7508, 219, -69, -323, -19, 86],
  "SliceThickness": 3.5,
  "SliceTiming": [0.99, 0, 1.0575, 0.0675, 1.1225, 0.1325, 1.1875, 0.1975, 1.255, 0.265, 1.32, 0.33, 1.3875, 0.3975, 1.4525, 0.4625, 1.5175, 0.5275, 1.585, 0.595, 1.65, 0.66, 1.7175, 0.7275, 1.7825, 0.7925, 1.8475, 0.8575, 1.915, 0.925],
  "SoftwareVersions": "syngo MR E11",
  "SpacingBetweenSlices": 3.99,
  "StationName": "AWP66112",
  "TotalReadoutTime": 0.0395,
  "TxRefAmp": 211.115,
  "dcmmeta_affine": [
    [-2.9531311988830566, 0.5191225409507751, 0.12982580065727234, 93.82722473144531],
    [0.5245044827461243, 2.816211700439453, 1.1850041151046753, -127.9150161743164],
    [-0.06254269927740097, -0.8941269516944885, 3.8077566623687744, -25.183591842651367],
    [0.0, 0.0, 0.0, 1.0]
],
  "dcmmeta_reorient_transform": [
    [0.0, -1.0, 0.0, 79.0],
    [1.0, 0.0, 0.0, 0.0],
    [0.0, 0.0, 1.0, 0.0],
    [0.0, 0.0, 0.0, 1.0]
],
  "dcmmeta_shape": [80, 80, 30, 200],
  "dcmmeta_slice_dim": 2,
  "dcmmeta_version": 0.6,
  "global": {
    "const": {
      "AccessionNumber": "qa64",
      "AcquisitionMatrix": [80, 0, 0, 80],
      "AngioFlag": "N",
      "BitsAllocated": 16,
      "BitsStored": 12,
      "BodyPartExamined": "BRAIN",
      "Columns": 480,
      "EchoNumbers": 1,
      "EchoTime": 30.0,
      "EchoTrainLength": 80,
      "FlipAngle": 77.0,
      "HighBit": 11,
      "ImageOrientationPatient": [0.98437704151756, -0.1748348339064, -0.0208475654704, 0.17304083954664, 0.93873725982327, 0.29804232059977],
      "ImagePositionPatient": [-829.28863065666, -552.90716849697, -262.13647521905],
      "ImageType": [
        "ORIGINAL",
        "PRIMARY",
        "M",
        "ND",
        "NORM",
        "MOSAIC"
],
      "ImagedNucleus": "1H",
      "ImagingFrequency": 123.252362,
      "InPlanePhaseEncodingDirection": "COL",
      "MRAcquisitionType": "2D",
      "MagneticFieldStrength": 3.0,
      "Manufacturer": "SIEMENS",
      "ManufacturerModelName": "Prisma",
      "Modality": "MR",
      "NumberOfAverages": 1.0,
      "NumberOfPhaseEncodingSteps": 80,
      "PercentPhaseFieldOfView": 100.0,
      "PercentSampling": 100.0,
      "PerformedProcedureStepStartTime": "085859.786000",
      "PhotometricInterpretation": "MONOCHROME2",
      "PixelBandwidth": 2315.0,
      "PixelRepresentation": 0,
      "PixelSpacing": [3.0, 3.0],
      "ProtocolName": "func-bold_fa-77",
      "RepetitionTime": 2000.0,
      "Rows": 480,
      "SAR": 0.02836392569833,
      "SamplesPerPixel": 1,
      "ScanOptions": "FS",
      "ScanningSequence": "EP",
      "SequenceName": "*epfid2d1_80",
      "SequenceVariant": "SK",
      "SeriesDescription": "func-bold_fa-77",
      "SeriesNumber": 7,
      "SeriesTime": "091049.936000",
      "SliceLocation": -58.970328671145,
      "SliceThickness": 3.5,
      "SmallestImagePixelValue": 0,
      "SoftwareVersions": "syngo MR E11",
      "SpacingBetweenSlices": 3.9900000132265,
      "SpecificCharacterSet": "ISO_IR 100",
      "StudyID": "11",
      "StudyTime": "085859.694000",
      "TransmitCoilName": "Body",
      "VariableFlipAngleFlag": "N",
      "WindowCenterWidthExplanation": "Algo1",
      "dBdt": 0.0},
    "slices": {}
  },
  "time": {
    "samples": {
      "AcquisitionNumber": [1, 2, 3, 4, 5, 6, 7, 8, 9, 10, 11, 12, 13, 14, 15, 16, 17, 18, 19, 20, 21, 22, 23, 24, 25, 26, 27, 28, 29, 30, 31, 32, 33, 34, 35, 36, 37, 38, 39, 40, 41, 42, 43, 44, 45, 46, 47, 48, 49, 50, 51, 52, 53, 54, 55, 56, 57, 58, 59, 60, 61, 62, 63, 64, 65, 66, 67, 68, 69, 70, 71, 72, 73, 74, 75, 76, 77, 78, 79, 80, 81, 82, 83, 84, 85, 86, 87, 88, 89, 90, 91, 92, 93, 94, 95, 96, 97, 98, 99, 100, 101, 102, 103, 104, 105, 106, 107, 108, 109, 110, 111, 112, 113, 114, 115, 116, 117, 118, 119, 120, 121, 122, 123, 124, 125, 126, 127, 128, 129, 130, 131, 132, 133, 134, 135, 136, 137, 138, 139, 140, 141, 142, 143, 144, 145, 146, 147, 148, 149, 150, 151, 152, 153, 154, 155, 156, 157, 158, 159, 160, 161, 162, 163, 164, 165, 166, 167, 168, 169, 170, 171, 172, 173, 174, 175, 176, 177, 178, 179, 180, 181, 182, 183, 184, 185, 186, 187, 188, 189, 190, 191, 192, 193, 194, 195, 196, 197, 198, 199, 200],
      "AcquisitionTime": ["090954.527500", "090956.527500", "090958.527500", "091000.527500", "091002.527500", "091004.527500", "091006.527500", "091008.527500", "091010.527500", "091012.527500", "091014.527500", "091016.527500", "091018.527500", "091020.527500", "091022.527500", "091024.527500", "091026.527500", "091028.527500", "091030.527500", "091032.527500", "091034.527500", "091036.527500", "091038.527500", "091040.527500", "091042.527500", "091044.527500", "091046.527500", "091048.527500", "091050.527500", "091052.527500", "091054.527500", "091056.527500", "091058.527500", "091100.527500", "091102.527500", "091104.527500", "091106.527500", "091108.527500", "091110.527500", "091112.527500", "091114.527500", "091116.527500", "091118.527500", "091120.527500", "091122.527500", "091124.527500", "091126.527500", "091128.527500", "091130.527500", "091132.527500", "091134.527500", "091136.527500", "091138.527500", "091140.527500", "091142.527500", "091144.527500", "091146.527500", "091148.527500", "091150.527500", "091152.527500", "091154.527500", "091156.527500", "091158.527500", "091200.527500", "091202.527500", "091204.527500", "091206.527500", "091208.527500", "091210.527500", "091212.527500", "091214.527500", "091216.527500", "091218.527500", "091220.527500", "091222.527500", "091224.527500", "091226.527500", "091228.527500", "091230.527500", "091232.527500", "091234.527500", "091236.527500", "091238.527500", "091240.527500", "091242.527500", "091244.527500", "091246.527500", "091248.527500", "091250.527500", "091252.527500", "091254.527500", "091256.527500", "091258.527500", "091300.527500", "091302.527500", "091304.527500", "091306.527500", "091308.527500", "091310.527500", "091312.527500", "091314.527500", "091316.527500", "091318.527500", "091320.527500", "091322.527500", "091324.527500", "091326.527500", "091328.527500", "091330.527500", "091332.527500", "091334.527500", "091336.527500", "091338.527500", "091340.527500", "091342.527500", "091344.527500", "091346.527500", "091348.527500", "091350.527500", "091352.527500", "091354.527500", "091356.527500", "091358.527500", "091400.527500", "091402.527500", "091404.527500", "091406.527500", "091408.527500", "091410.527500", "091412.527500", "091414.527500", "091416.527500", "091418.527500", "091420.527500", "091422.527500", "091424.527500", "091426.527500", "091428.527500", "091430.527500", "091432.527500", "091434.527500", "091436.527500", "091438.527500", "091440.527500", "091442.527500", "091444.527500", "091446.527500", "091448.527500", "091450.527500", "091452.527500", "091454.527500", "091456.527500", "091458.527500", "091500.527500", "091502.527500", "091504.527500", "091506.527500", "091508.527500", "091510.527500", "091512.527500", "091514.527500", "091516.527500", "091518.527500", "091520.527500", "091522.527500", "091524.527500", "091526.527500", "091528.527500", "091530.527500", "091532.527500", "091534.527500", "091536.527500", "091538.527500", "091540.527500", "091542.527500", "091544.527500", "091546.527500", "091548.527500", "091550.527500", "091552.527500", "091554.527500", "091556.527500", "091558.527500", "091600.527500", "091602.527500", "091604.527500", "091606.527500", "091608.527500", "091610.527500", "091612.527500", "091614.527500", "091616.527500", "091618.527500", "091620.527500", "091622.527500", "091624.527500", "091626.527500", "091628.527500", "091630.527500", "091632.527500"],
      "ContentTime": ["091049.940000", "091049.943000", "091049.946000", "091049.948000", "091049.951000", "091049.953000", "091049.956000", "091049.958000", "091049.964000", "091049.967000", "091049.969000", "091049.972000", "091049.974000", "091049.977000", "091049.979000", "091049.982000", "091049.984000", "091049.987000", "091049.989000", "091049.992000", "091049.995000", "091050.001000", "091050.004000", "091050.006000", "091050.009000", "091050.012000", "091050.014000", "091129.928000", "091129.931000", "091129.934000", "091129.936000", "091129.939000", "091129.941000", "091129.944000", "091129.946000", "091129.949000", "091129.952000", "091129.954000", "091129.957000", "091129.959000", "091129.962000", "091129.964000", "091129.967000", "091129.969000", "091129.972000", "091129.974000", "091129.977000", "091209.928000", "091209.931000", "091209.934000", "091209.936000", "091209.939000", "091209.942000", "091209.944000", "091209.947000", "091209.949000", "091209.952000", "091209.954000", "091209.957000", "091209.960000", "091209.962000", "091209.964000", "091209.967000", "091209.970000", "091209.972000", "091209.975000", "091209.977000", "091249.929000", "091249.931000", "091249.934000", "091249.936000", "091249.939000", "091249.942000", "091249.944000", "091249.946000", "091249.949000", "091249.952000", "091249.954000", "091249.957000", "091249.959000", "091249.962000", "091249.964000", "091249.967000", "091249.969000", "091249.972000", "091249.974000", "091249.977000", "091329.928000", "091329.931000", "091329.934000", "091329.936000", "091329.939000", "091329.941000", "091329.944000", "091329.946000", "091329.949000", "091329.951000", "091329.954000", "091329.956000", "091329.959000", "091329.962000", "091329.964000", "091329.966000", "091329.969000", "091329.972000", "091329.974000", "091329.977000", "091409.928000", "091409.931000", "091409.934000", "091409.936000", "091409.939000", "091409.941000", "091409.944000", "091409.946000", "091409.949000", "091409.951000", "091409.954000", "091409.957000", "091409.959000", "091409.962000", "091409.964000", "091409.967000", "091409.969000", "091409.972000", "091409.974000", "091409.977000", "091449.928000", "091449.931000", "091449.934000", "091449.936000", "091449.939000", "091449.941000", "091449.944000", "091449.946000", "091449.949000", "091449.951000", "091449.954000", "091449.956000", "091449.959000", "091449.961000", "091449.964000", "091449.966000", "091449.969000", "091449.972000", "091449.974000", "091449.977000", "091529.928000", "091529.931000", "091529.934000", "091529.936000", "091529.939000", "091529.942000", "091529.944000", "091529.947000", "091529.949000", "091529.952000", "091529.954000", "091529.957000", "091529.959000", "091529.962000", "091529.964000", "091529.967000", "091529.969000", "091529.972000", "091529.974000", "091529.977000", "091609.928000", "091609.931000", "091609.934000", "091609.936000", "091609.939000", "091609.941000", "091609.944000", "091609.947000", "091609.949000", "091609.952000", "091609.954000", "091609.957000", "091609.959000", "091609.962000", "091609.964000", "091609.967000", "091609.969000", "091609.972000", "091609.974000", "091609.977000", "091634.145000", "091634.148000", "091634.150000", "091634.153000", "091634.156000", "091634.158000", "091634.161000", "091634.163000", "091634.166000", "091634.168000", "091634.171000", "091634.173000", "091634.177000"],
      "InstanceCreationTime": ["091049.940000", "091049.943000", "091049.946000", "091049.948000", "091049.951000", "091049.953000", "091049.956000", "091049.958000", "091049.964000", "091049.967000", "091049.969000", "091049.972000", "091049.974000", "091049.977000", "091049.979000", "091049.982000", "091049.984000", "091049.987000", "091049.989000", "091049.992000", "091049.995000", "091050.001000", "091050.004000", "091050.006000", "091050.009000", "091050.012000", "091050.014000", "091129.928000", "091129.931000", "091129.934000", "091129.936000", "091129.939000", "091129.941000", "091129.944000", "091129.946000", "091129.949000", "091129.952000", "091129.954000", "091129.957000", "091129.959000", "091129.962000", "091129.964000", "091129.967000", "091129.969000", "091129.972000", "091129.974000", "091129.977000", "091209.928000", "091209.931000", "091209.934000", "091209.936000", "091209.939000", "091209.942000", "091209.944000", "091209.947000", "091209.949000", "091209.952000", "091209.954000", "091209.957000", "091209.960000", "091209.962000", "091209.964000", "091209.967000", "091209.970000", "091209.972000", "091209.975000", "091209.977000", "091249.929000", "091249.931000", "091249.934000", "091249.936000", "091249.939000", "091249.942000", "091249.944000", "091249.946000", "091249.949000", "091249.952000", "091249.954000", "091249.957000", "091249.959000", "091249.962000", "091249.964000", "091249.967000", "091249.969000", "091249.972000", "091249.974000", "091249.977000", "091329.928000", "091329.931000", "091329.934000", "091329.936000", "091329.939000", "091329.941000", "091329.944000", "091329.946000", "091329.949000", "091329.951000", "091329.954000", "091329.956000", "091329.959000", "091329.962000", "091329.964000", "091329.966000", "091329.969000", "091329.972000", "091329.974000", "091329.977000", "091409.928000", "091409.931000", "091409.934000", "091409.936000", "091409.939000", "091409.941000", "091409.944000", "091409.946000", "091409.949000", "091409.951000", "091409.954000", "091409.957000", "091409.959000", "091409.962000", "091409.964000", "091409.967000", "091409.969000", "091409.972000", "091409.974000", "091409.977000", "091449.928000", "091449.931000", "091449.934000", "091449.936000", "091449.939000", "091449.941000", "091449.944000", "091449.946000", "091449.949000", "091449.951000", "091449.954000", "091449.956000", "091449.959000", "091449.961000", "091449.964000", "091449.966000", "091449.969000", "091449.972000", "091449.974000", "091449.977000", "091529.928000", "091529.931000", "091529.934000", "091529.936000", "091529.939000", "091529.942000", "091529.944000", "091529.947000", "091529.949000", "091529.952000", "091529.954000", "091529.957000", "091529.959000", "091529.962000", "091529.964000", "091529.967000", "091529.969000", "091529.972000", "091529.974000", "091529.977000", "091609.928000", "091609.931000", "091609.934000", "091609.936000", "091609.939000", "091609.941000", "091609.944000", "091609.947000", "091609.949000", "091609.952000", "091609.954000", "091609.957000", "091609.959000", "091609.962000", "091609.964000", "091609.967000", "091609.969000", "091609.972000", "091609.974000", "091609.977000", "091634.145000", "091634.148000", "091634.150000", "091634.153000", "091634.156000", "091634.158000", "091634.161000", "091634.163000", "091634.166000", "091634.168000", "091634.171000", "091634.173000", "091634.177000"],
      "InstanceNumber": [1, 2, 3, 4, 5, 6, 7, 8, 9, 10, 11, 12, 13, 14, 15, 16, 17, 18, 19, 20, 21, 22, 23, 24, 25, 26, 27, 28, 29, 30, 31, 32, 33, 34, 35, 36, 37, 38, 39, 40, 41, 42, 43, 44, 45, 46, 47, 48, 49, 50, 51, 52, 53, 54, 55, 56, 57, 58, 59, 60, 61, 62, 63, 64, 65, 66, 67, 68, 69, 70, 71, 72, 73, 74, 75, 76, 77, 78, 79, 80, 81, 82, 83, 84, 85, 86, 87, 88, 89, 90, 91, 92, 93, 94, 95, 96, 97, 98, 99, 100, 101, 102, 103, 104, 105, 106, 107, 108, 109, 110, 111, 112, 113, 114, 115, 116, 117, 118, 119, 120, 121, 122, 123, 124, 125, 126, 127, 128, 129, 130, 131, 132, 133, 134, 135, 136, 137, 138, 139, 140, 141, 142, 143, 144, 145, 146, 147, 148, 149, 150, 151, 152, 153, 154, 155, 156, 157, 158, 159, 160, 161, 162, 163, 164, 165, 166, 167, 168, 169, 170, 171, 172, 173, 174, 175, 176, 177, 178, 179, 180, 181, 182, 183, 184, 185, 186, 187, 188, 189, 190, 191, 192, 193, 194, 195, 196, 197, 198, 199, 200],
      "LargestImagePixelValue": [4061, 4062, 4062, 4062, 4063, 4063, 4055, 4057, 4054, 4059, 4056, 4058, 4062, 4059, 4059, 4060, 4056, 4060, 4059, 4054, 4061, 4060, 4058, 4058, 4062, 4068, 4063, 4065, 4057, 4062, 4059, 4060, 4062, 4064, 4062, 4065, 4062, 4067, 4063, 4062, 4065, 4062, 4065, 4062, 4064, 4064, 4066, 4064, 4065, 4060, 4063, 4058, 4063, 4065, 4061, 4060, 4062, 4065, 4067, 4069, 4061, 4064, 4062, 4061, 4070, 4068, 4062, 4059, 4061, 4063, 4063, 4062, 4064, 4069, 4066, 4064, 4065, 4066, 4066, 4063, 4064, 4061, 4069, 4070, 4068, 4067, 4066, 4063, 4061, 4075, 4068, 4063, 4063, 4062, 4063, 4060, 4061, 4062, 4061, 4063, 4066, 4063, 4063, 4065, 4059, 4063, 4064, 4061, 4064, 4063, 4061, 4065, 4057, 4064, 4061, 4060, 4062, 4059, 4058, 4063, 4053, 4059, 4059, 4061, 4066, 4059, 4064, 4058, 4057, 4061, 4060, 4067, 4065, 4069, 4067, 4072, 4069, 4068, 4063, 4062, 4058, 4064, 4058, 4064, 4066, 4060, 4065, 4067, 4059, 4057, 4060, 4062, 4062, 4061, 4063, 4059, 4057, 4061, 4061, 4058, 4056, 4063, 4063, 4061, 4060, 4063, 4059, 4058, 4057, 4062, 4066, 4056, 4057, 4059, 4060, 4060, 4060, 4057, 4058, 4058, 4064, 4056, 4052, 4053, 4055, 4055, 4057, 4056, 4054, 4051, 4053, 4055, 4053, 4056, 4055, 4054, 4057, 4054, 4051, 4056],
      "WindowCenter": [1348.0, 1349.0, 1348.0, 1348.0, 1348.0, 1348.0, 1348.0, 1348.0, 1348.0, 1348.0, 1348.0, 1348.0, 1347.0, 1348.0, 1348.0, 1347.0, 1348.0, 1348.0, 1348.0, 1348.0, 1348.0, 1348.0, 1348.0, 1347.0, 1348.0, 1347.0, 1347.0, 1348.0, 1348.0, 1348.0, 1348.0, 1348.0, 1348.0, 1348.0, 1348.0, 1348.0, 1348.0, 1348.0, 1347.0, 1348.0, 1348.0, 1348.0, 1347.0, 1348.0, 1348.0, 1348.0, 1348.0, 1347.0, 1348.0, 1348.0, 1348.0, 1348.0, 1348.0, 1348.0, 1348.0, 1348.0, 1347.0, 1348.0, 1348.0, 1348.0, 1348.0, 1348.0, 1348.0, 1348.0, 1348.0, 1348.0, 1348.0, 1348.0, 1348.0, 1348.0, 1348.0, 1348.0, 1347.0, 1348.0, 1347.0, 1348.0, 1348.0, 1347.0, 1348.0, 1348.0, 1348.0, 1348.0, 1347.0, 1347.0, 1347.0, 1348.0, 1346.0, 1347.0, 1347.0, 1347.0, 1347.0, 1346.0, 1347.0, 1347.0, 1348.0, 1346.0, 1346.0, 1346.0, 1346.0, 1346.0, 1346.0, 1346.0, 1346.0, 1347.0, 1346.0, 1347.0, 1347.0, 1346.0, 1347.0, 1347.0, 1346.0, 1346.0, 1346.0, 1346.0, 1346.0, 1346.0, 1346.0, 1346.0, 1346.0, 1346.0, 1346.0, 1346.0, 1346.0, 1346.0, 1345.0, 1345.0, 1346.0, 1345.0, 1345.0, 1345.0, 1346.0, 1347.0, 1347.0, 1347.0, 1346.0, 1347.0, 1347.0, 1346.0, 1346.0, 1345.0, 1345.0, 1345.0, 1345.0, 1345.0, 1345.0, 1346.0, 1345.0, 1345.0, 1346.0, 1346.0, 1345.0, 1344.0, 1345.0, 1345.0, 1345.0, 1345.0, 1344.0, 1344.0, 1345.0, 1344.0, 1345.0, 1345.0, 1345.0, 1344.0, 1345.0, 1344.0, 1345.0, 1344.0, 1344.0, 1345.0, 1344.0, 1345.0, 1344.0, 1344.0, 1344.0, 1344.0, 1344.0, 1344.0, 1344.0, 1344.0, 1344.0, 1344.0, 1344.0, 1345.0, 1344.0, 1344.0, 1344.0, 1344.0, 1344.0, 1344.0, 1344.0, 1343.0, 1344.0, 1343.0, 1344.0, 1344.0, 1343.0, 1343.0, 1343.0, 1344.0],
      "WindowWidth": [3240.0, 3240.0, 3240.0, 3240.0, 3240.0, 3240.0, 3240.0, 3240.0, 3240.0, 3240.0, 3240.0, 3240.0, 3240.0, 3240.0, 3240.0, 3240.0, 3240.0, 3240.0, 3240.0, 3240.0, 3240.0, 3240.0, 3240.0, 3240.0, 3240.0, 3240.0, 3240.0, 3240.0, 3240.0, 3240.0, 3240.0, 3240.0, 3240.0, 3240.0, 3240.0, 3240.0, 3240.0, 3240.0, 3240.0, 3240.0, 3240.0, 3240.0, 3240.0, 3240.0, 3240.0, 3240.0, 3240.0, 3240.0, 3240.0, 3240.0, 3240.0, 3239.0, 3240.0, 3239.0, 3240.0, 3240.0, 3240.0, 3239.0, 3239.0, 3239.0, 3239.0, 3239.0, 3239.0, 3239.0, 3239.0, 3239.0, 3239.0, 3239.0, 3239.0, 3239.0, 3239.0, 3239.0, 3239.0, 3239.0, 3239.0, 3238.0, 3238.0, 3239.0, 3238.0, 3238.0, 3238.0, 3238.0, 3238.0, 3239.0, 3239.0, 3238.0, 3237.0, 3237.0, 3237.0, 3238.0, 3238.0, 3236.0, 3236.0, 3238.0, 3238.0, 3236.0, 3236.0, 3237.0, 3236.0, 3237.0, 3236.0, 3236.0, 3236.0, 3236.0, 3236.0, 3236.0, 3236.0, 3236.0, 3237.0, 3238.0, 3236.0, 3236.0, 3236.0, 3236.0, 3236.0, 3236.0, 3236.0, 3236.0, 3236.0, 3236.0, 3236.0, 3236.0, 3236.0, 3236.0, 3236.0, 3236.0, 3235.0, 3236.0, 3236.0, 3235.0, 3236.0, 3237.0, 3237.0, 3237.0, 3237.0, 3237.0, 3237.0, 3236.0, 3235.0, 3235.0, 3235.0, 3235.0, 3235.0, 3236.0, 3235.0, 3236.0, 3235.0, 3235.0, 3235.0, 3235.0, 3235.0, 3235.0, 3235.0, 3235.0, 3235.0, 3235.0, 3235.0, 3235.0, 3235.0, 3235.0, 3235.0, 3235.0, 3235.0, 3235.0, 3235.0, 3235.0, 3235.0, 3235.0, 3235.0, 3235.0, 3235.0, 3235.0, 3234.0, 3234.0, 3234.0, 3234.0, 3234.0, 3234.0, 3234.0, 3234.0, 3234.0, 3234.0, 3234.0, 3235.0, 3234.0, 3234.0, 3234.0, 3234.0, 3234.0, 3234.0, 3234.0, 3234.0, 3234.0, 3234.0, 3234.0, 3234.0, 3234.0, 3234.0, 3234.0, 3234.0]
    },
    "slices": {}
  }
}