{
  "AcquisitionMatrixPE": 80,
  "AcquisitionNumber": 1,
  "AcquisitionTime": "09:09:16.792500",
  "BandwidthPerPixelPhaseEncode": 48.077,
  "BaseResolution": 80,
  "BodyPartExamined": "BRAIN",
  "CoilCombinationMethod": "Sum of Squares",
  "ConsistencyInfo": "N4_VE11C_LATEST_20160120",
  "ConversionSoftware": "dcm2niix",
  "ConversionSoftwareVersion": "v1.0.20220720",
  "DerivedVendorReportedEchoSpacing": 0.000519999,
  "DeviceSerialNumber": "66112",
  "DwellTime": 2.7e-06,
  "EchoTime": 0.035,
  "EchoTrainLength": 39,
  "EffectiveEchoSpacing": 0.00026,
  "FlipAngle": 90,
  "HeudiconvVersion": "0.13.1",
  "ImageComments": "Reference volume for motion correction.",
  "ImageOrientationPatientDICOM": [0.992399, -0.123063, 0.000294148, 0.117107, 0.945097, 0.305087],
  "ImageOrientationText": "Tra>Cor(17.6)>Sag(2.2)",
  "ImageType": [
    "ORIGINAL",
    "PRIMARY",
    "M",
    "ND",
    "NORM",
    "MOCO",
    "MOSAIC"
],
  "ImagingFrequency": 123.253,
  "InPlanePhaseEncodingDirectionDICOM": "COL",
  "InstitutionAddress": "Maynard 3,Hanover,NH,US,03755",
  "InstitutionName": "Dartmouth College - PBS",
  "InstitutionalDepartmentName": "Department",
  "MRAcquisitionType": "2D",
  "MagneticFieldStrength": 3,
  "Manufacturer": "Siemens",
  "ManufacturersModelName": "Prisma",
  "MatrixCoilMode": "GRAPPA",
  "Modality": "MR",
  "NonlinearGradientCorrection": false,
  "ParallelReductionFactorInPlane": 2,
  "PartialFourier": 1,
  "PatientPosition": "HFS",
  "PercentPhaseFOV": 100,
  "PercentSampling": 100,
  "PhaseEncodingDirection": "j-",
  "PhaseEncodingSteps": 79,
  "PhaseResolution": 1,
  "PixelBandwidth": 2315,
  "ProcedureStepDescription": "dbic^QA",
  "ProtocolName": "BOLD_p2_MoCo",
  "PulseSequenceDetails": "%SiemensSeq%\\ep2d_bold",
  "ReceiveCoilActiveElements": "HEA;HEP",
  "ReceiveCoilName": "Head_32",
  "ReconMatrixPE": 80,
  "RefLinesPE": 24,
  "RepetitionTime": 2,
  "SAR": 0.0556827,
  "ScanOptions": "FS",
  "ScanningSequence": "EP",
  "SequenceName": "*epfid2d1_80",
  "SequenceVariant": "SK",
  "SeriesDescription": "MoCoSeries",
  "SeriesNumber": 6,
  "ShimSetting": [4153, -7654, -7512, 233, -81, -69, -21, 90],
  "SliceThickness": 3.5,
  "SliceTiming": [0.99, 0, 1.055, 0.065, 1.12, 0.13, 1.1875, 0.1975, 1.2525, 0.2625, 1.32, 0.33, 1.385, 0.395, 1.45, 0.46, 1.5175, 0.5275, 1.5825, 0.5925, 1.65, 0.66, 1.715, 0.725, 1.78, 0.79, 1.8475, 0.8575, 1.9125, 0.9225],
  "SoftwareVersions": "syngo MR E11",
  "SpacingBetweenSlices": 3.99,
  "StationName": "AWP66112",
  "TaskName": "rest",
  "TotalReadoutTime": 0.02054,
  "TxRefAmp": 239.284,
  "dcmmeta_affine": [
    [-2.977196455001831, 0.35132065415382385, 0.15091341733932495, 104.18841552734375],
    [0.3691890835762024, 2.8352904319763184, 1.2079063653945923, -134.06903076171875],
    [0.000882444204762578, -0.9152606129646301, 3.799774646759033, -16.086978912353516],
    [0.0, 0.0, 0.0, 1.0]
],
  "dcmmeta_reorient_transform": [
    [0.0, -1.0, 0.0, 79.0],
    [1.0, 0.0, 0.0, 0.0],
    [0.0, 0.0, 1.0, 0.0],
    [0.0, 0.0, 0.0, 1.0]
],
  "dcmmeta_shape": [80, 80, 30, 157],
  "dcmmeta_slice_dim": 2,
  "dcmmeta_version": 0.6,
  "global": {
    "const": {
      "AccessionNumber": "qa",
      "AcquisitionMatrix": [80, 0, 0, 80],
      "AngioFlag": "N",
      "BitsAllocated": 16,
      "BitsStored": 12,
      "BodyPartExamined": "BRAIN",
      "Columns": 480,
      "EchoNumbers": 1,
      "EchoTime": 35.0,
      "EchoTrainLength": 39,
      "FlipAngle": 90.0,
      "HighBit": 11,
      "ImageOrientationPatient": [0.99239881370352, -0.1230630246531, 0.00029414806667, 0.11710688224473, 0.94509680758349, 0.30508687685055],
      "ImagePositionPatient": [-797.6461625213, -583.13918790668, -271.62118318576],
      "ImageType": [
        "ORIGINAL",
        "PRIMARY",
        "M",
        "ND",
        "NORM",
        "MOCO",
        "MOSAIC"
],
      "ImagedNucleus": "1H",
      "ImagingFrequency": 123.252894,
      "InPlanePhaseEncodingDirection": "COL",
      "MRAcquisitionType": "2D",
      "MagneticFieldStrength": 3.0,
      "Manufacturer": "SIEMENS",
      "ManufacturerModelName": "Prisma",
      "Modality": "MR",
      "NumberOfAverages": 1.0,
      "NumberOfPhaseEncodingSteps": 79,
      "PercentPhaseFieldOfView": 100.0,
      "PercentSampling": 100.0,
      "PerformedProcedureStepStartTime": "090744.660000",
      "PhotometricInterpretation": "MONOCHROME2",
      "PixelBandwidth": 2315.0,
      "PixelRepresentation": 0,
      "PixelSpacing": [3.0, 3.0],
      "ProtocolName": "BOLD_p2",
      "RepetitionTime": 2000.0,
      "Rows": 480,
      "SAR": 0.05568272432899,
      "SamplesPerPixel": 1,
      "ScanOptions": "FS",
      "ScanningSequence": "EP",
      "SequenceName": "*epfid2d1_80",
      "SequenceVariant": "SK",
      "SeriesDescription": "MoCoSeries",
      "SeriesNumber": 6,
      "SeriesTime": "091002.872000",
      "SliceLocation": -51.96648699818,
      "SliceThickness": 3.5,
      "SmallestImagePixelValue": 0,
      "SoftwareVersions": "syngo MR E11",
      "SpacingBetweenSlices": 3.9900000370476,
      "SpecificCharacterSet": "ISO_IR 100",
      "StudyID": "24",
      "StudyTime": "090744.507000",
      "TransmitCoilName": "Body",
      "VariableFlipAngleFlag": "N",
      "WindowCenterWidthExplanation": "Algo1",
      "dBdt": 0.0},
    "slices": {}
  },
  "time": {
    "samples": {
      "AcquisitionNumber": [1, 2, 3, 4, 5, 6, 7, 8, 9, 10, 11, 12, 13, 14, 15, 16, 17, 18, 19, 20, 21, 22, 23, 24, 25, 26, 27, 28, 29, 30, 31, 32, 33, 34, 35, 36, 37, 38, 39, 40, 41, 42, 43, 44, 45, 46, 47, 48, 49, 50, 51, 52, 53, 54, 55, 56, 57, 58, 59, 60, 61, 62, 63, 64, 65, 66, 67, 68, 69, 70, 71, 72, 73, 74, 75, 76, 77, 78, 79, 80, 81, 82, 83, 84, 85, 86, 87, 88, 89, 90, 91, 92, 93, 94, 95, 96, 97, 98, 99, 100, 101, 102, 103, 104, 105, 106, 107, 108, 109, 110, 111, 112, 113, 114, 115, 116, 117, 118, 119, 120, 121, 122, 123, 124, 125, 126, 127, 128, 129, 130, 131, 132, 133, 134, 135, 136, 137, 138, 139, 140, 141, 142, 143, 144, 145, 146, 147, 148, 149, 150, 151, 152, 153, 154, 155, 156, 157],
      "AcquisitionTime": ["090916.792500", "090918.792500", "090920.792500", "090922.792500", "090924.792500", "090926.792500", "090928.792500", "090930.792500", "090932.792500", "090934.792500", "090936.792500", "090938.792500", "090940.792500", "090942.792500", "090944.792500", "090946.792500", "090948.792500", "090950.792500", "090952.792500", "090954.792500", "090956.792500", "090958.792500", "091000.792500", "091002.792500", "091004.792500", "091006.792500", "091008.792500", "091010.792500", "091012.792500", "091014.792500", "091016.792500", "091018.792500", "091020.792500", "091022.792500", "091024.792500", "091026.792500", "091028.792500", "091030.792500", "091032.792500", "091034.792500", "091036.792500", "091038.792500", "091040.792500", "091042.792500", "091044.792500", "091046.792500", "091048.792500", "091050.792500", "091052.792500", "091054.792500", "091056.792500", "091058.792500", "091100.792500", "091102.792500", "091104.792500", "091106.792500", "091108.792500", "091110.792500", "091112.792500", "091114.792500", "091116.792500", "091118.792500", "091120.792500", "091122.792500", "091124.792500", "091126.792500", "091128.792500", "091130.792500", "091132.792500", "091134.792500", "091136.792500", "091138.792500", "091140.792500", "091142.792500", "091144.792500", "091146.792500", "091148.792500", "091150.792500", "091152.792500", "091154.792500", "091156.792500", "091158.792500", "091200.792500", "091202.792500", "091204.792500", "091206.792500", "091208.792500", "091210.792500", "091212.792500", "091214.792500", "091216.792500", "091218.792500", "091220.792500", "091222.792500", "091224.792500", "091226.792500", "091228.792500", "091230.792500", "091232.792500", "091234.792500", "091236.792500", "091238.792500", "091240.792500", "091242.792500", "091244.792500", "091246.792500", "091248.792500", "091250.792500", "091252.792500", "091254.792500", "091256.792500", "091258.792500", "091300.792500", "091302.792500", "091304.792500", "091306.792500", "091308.792500", "091310.792500", "091312.792500", "091314.792500", "091316.792500", "091318.792500", "091320.792500", "091322.792500", "091324.792500", "091326.792500", "091328.792500", "091330.792500", "091332.792500", "091334.792500", "091336.792500", "091338.792500", "091340.792500", "091342.792500", "091344.792500", "091346.792500", "091348.792500", "091350.792500", "091352.792500", "091354.792500", "091356.792500", "091358.792500", "091400.792500", "091402.792500", "091404.792500", "091406.792500", "091408.792500", "091410.792500", "091412.792500", "091414.792500", "091416.792500", "091418.792500", "091420.792500", "091422.792500", "091424.792500", "091426.792500", "091428.792500"],
      "ContentTime": ["091002.874000", "091002.877000", "091002.880000", "091002.882000", "091002.885000", "091002.887000", "091002.890000", "091002.892000", "091002.895000", "091002.897000", "091002.900000", "091002.902000", "091002.905000", "091002.911000", "091002.913000", "091002.916000", "091002.918000", "091002.921000", "091002.924000", "091002.926000", "091002.929000", "091002.931000", "091002.934000", "091042.871000", "091042.873000", "091042.876000", "091042.878000", "091042.881000", "091042.883000", "091042.886000", "091042.888000", "091042.891000", "091042.894000", "091042.896000", "091042.899000", "091042.901000", "091042.904000", "091042.906000", "091042.909000", "091042.911000", "091042.914000", "091042.916000", "091042.919000", "091122.834000", "091122.837000", "091122.840000", "091122.842000", "091122.845000", "091122.847000", "091122.850000", "091122.852000", "091122.855000", "091122.857000", "091122.860000", "091122.862000", "091122.865000", "091122.867000", "091122.870000", "091122.872000", "091122.875000", "091122.877000", "091122.880000", "091122.882000", "091202.834000", "091202.836000", "091202.839000", "091202.841000", "091202.844000", "091202.847000", "091202.849000", "091202.852000", "091202.854000", "091202.857000", "091202.859000", "091202.862000", "091202.864000", "091202.867000", "091202.869000", "091202.872000", "091202.874000", "091202.877000", "091202.879000", "091202.882000", "091242.866000", "091242.869000", "091242.871000", "091242.874000", "091242.876000", "091242.879000", "091242.881000", "091242.884000", "091242.886000", "091242.889000", "091242.892000", "091242.894000", "091242.897000", "091242.899000", "091242.902000", "091242.904000", "091242.907000", "091242.909000", "091242.912000", "091242.914000", "091322.961000", "091322.964000", "091322.966000", "091322.969000", "091322.971000", "091322.974000", "091322.976000", "091322.979000", "091322.981000", "091322.984000", "091322.987000", "091322.989000", "091322.992000", "091322.994000", "091322.997000", "091323.000000", "091323.003000", "091323.005000", "091323.008000", "091323.010000", "091402.919000", "091402.922000", "091402.924000", "091402.927000", "091402.930000", "091402.932000", "091402.935000", "091402.937000", "091402.940000", "091402.942000", "091402.945000", "091402.947000", "091402.950000", "091402.953000", "091402.955000", "091402.958000", "091402.960000", "091402.963000", "091402.965000", "091402.968000", "091430.657000", "091430.660000", "091430.663000", "091430.666000", "091430.669000", "091430.672000", "091430.675000", "091430.678000", "091430.680000", "091430.683000", "091430.686000", "091430.689000", "091430.691000", "091430.694000"],
      "InstanceCreationTime": ["091002.874000", "091002.877000", "091002.880000", "091002.882000", "091002.885000", "091002.887000", "091002.890000", "091002.892000", "091002.895000", "091002.897000", "091002.900000", "091002.902000", "091002.905000", "091002.911000", "091002.913000", "091002.916000", "091002.918000", "091002.921000", "091002.924000", "091002.926000", "091002.929000", "091002.931000", "091002.934000", "091042.871000", "091042.873000", "091042.876000", "091042.878000", "091042.881000", "091042.883000", "091042.886000", "091042.888000", "091042.891000", "091042.894000", "091042.896000", "091042.899000", "091042.901000", "091042.904000", "091042.906000", "091042.909000", "091042.911000", "091042.914000", "091042.916000", "091042.919000", "091122.834000", "091122.837000", "091122.840000", "091122.842000", "091122.845000", "091122.847000", "091122.850000", "091122.852000", "091122.855000", "091122.857000", "091122.860000", "091122.862000", "091122.865000", "091122.867000", "091122.870000", "091122.872000", "091122.875000", "091122.877000", "091122.880000", "091122.882000", "091202.834000", "091202.836000", "091202.839000", "091202.841000", "091202.844000", "091202.847000", "091202.849000", "091202.852000", "091202.854000", "091202.857000", "091202.859000", "091202.862000", "091202.864000", "091202.867000", "091202.869000", "091202.872000", "091202.874000", "091202.877000", "091202.879000", "091202.882000", "091242.866000", "091242.869000", "091242.871000", "091242.874000", "091242.876000", "091242.879000", "091242.881000", "091242.884000", "091242.886000", "091242.889000", "091242.892000", "091242.894000", "091242.897000", "091242.899000", "091242.902000", "091242.904000", "091242.907000", "091242.909000", "091242.912000", "091242.914000", "091322.961000", "091322.964000", "091322.966000", "091322.969000", "091322.971000", "091322.974000", "091322.976000", "091322.979000", "091322.981000", "091322.984000", "091322.987000", "091322.989000", "091322.992000", "091322.994000", "091322.997000", "091323.000000", "091323.003000", "091323.005000", "091323.008000", "091323.010000", "091402.919000", "091402.922000", "091402.924000", "091402.927000", "091402.930000", "091402.932000", "091402.935000", "091402.937000", "091402.940000", "091402.942000", "091402.945000", "091402.947000", "091402.950000", "091402.953000", "091402.955000", "091402.958000", "091402.960000", "091402.963000", "091402.965000", "091402.968000", "091430.657000", "091430.660000", "091430.663000", "091430.666000", "091430.669000", "091430.672000", "091430.675000", "091430.678000", "091430.680000", "091430.683000", "091430.686000", "091430.689000", "091430.691000", "091430.694000"],
      "InstanceNumber": [1, 2, 3, 4, 5, 6, 7, 8, 9, 10, 11, 12, 13, 14, 15, 16, 17, 18, 19, 20, 21, 22, 23, 24, 25, 26, 27, 28, 29, 30, 31, 32, 33, 34, 35, 36, 37, 38, 39, 40, 41, 42, 43, 44, 45, 46, 47, 48, 49, 50, 51, 52, 53, 54, 55, 56, 57, 58, 59, 60, 61, 62, 63, 64, 65, 66, 67, 68, 69, 70, 71, 72, 73, 74, 75, 76, 77, 78, 79, 80, 81, 82, 83, 84, 85, 86, 87, 88, 89, 90, 91, 92, 93, 94, 95, 96, 97, 98, 99, 100, 101, 102, 103, 104, 105, 106, 107, 108, 109, 110, 111, 112, 113, 114, 115, 116, 117, 118, 119, 120, 121, 122, 123, 124, 125, 126, 127, 128, 129, 130, 131, 132, 133, 134, 135, 136, 137, 138, 139, 140, 141, 142, 143, 144, 145, 146, 147, 148, 149, 150, 151, 152, 153, 154, 155, 156, 157],
      "LargestImagePixelValue": [2088, 2086, 2087, 2086, 2088, 2095, 2088, 2094, 2097, 2091, 2095, 2100, 2087, 2091, 2092, 2088, 2092, 2089, 2092, 2091, 2093, 2089, 2087, 2091, 2098, 2088, 2096, 2093, 2093, 2097, 2093, 2088, 2101, 2092, 2086, 2094, 2092, 2092, 2094, 2098, 2090, 2093, 2088, 2096, 2095, 2093, 2090, 2090, 2089, 2093, 2096, 2099, 2097, 2095, 2091, 2090, 2098, 2097, 2095, 2097, 2095, 2095, 2097, 2086, 2090, 2096, 2094, 2090, 2094, 2093, 2089, 2088, 2090, 2095, 2092, 2096, 2097, 2093, 2096, 2091, 2105, 2088, 2098, 2093, 2092, 2093, 2102, 2088, 2094, 2087, 2099, 2090, 2090, 2095, 2097, 2093, 2095, 2092, 2096, 2095, 2097, 2094, 2093, 2103, 2092, 2097, 2094, 2099, 2106, 2093, 2093, 2096, 2093, 2095, 2096, 2097, 2093, 2095, 2092, 2099, 2091, 2106, 2093, 2096, 2091, 2088, 2099, 2093, 2101, 2099, 2093, 2093, 2098, 2095, 2099, 2099, 2095, 2097, 2101, 2101, 2104, 2087, 2098, 2099, 2095, 2099, 2096, 2098, 2094, 2096, 2100, 2099, 2095, 2103, 2097, 2100, 2098],
      "WindowCenter": [996.0, 995.0, 995.0, 995.0, 995.0, 995.0, 995.0, 995.0, 994.0, 995.0, 995.0, 995.0, 995.0, 995.0, 995.0, 995.0, 995.0, 995.0, 995.0, 995.0, 995.0, 995.0, 995.0, 995.0, 995.0, 995.0, 995.0, 995.0, 995.0, 995.0, 995.0, 995.0, 995.0, 995.0, 995.0, 994.0, 995.0, 995.0, 995.0, 995.0, 995.0, 995.0, 995.0, 994.0, 995.0, 995.0, 995.0, 995.0, 995.0, 995.0, 994.0, 995.0, 995.0, 995.0, 994.0, 994.0, 994.0, 994.0, 995.0, 994.0, 995.0, 994.0, 995.0, 995.0, 994.0, 995.0, 995.0, 995.0, 995.0, 995.0, 995.0, 995.0, 995.0, 995.0, 994.0, 995.0, 995.0, 995.0, 994.0, 995.0, 994.0, 994.0, 994.0, 995.0, 994.0, 994.0, 995.0, 994.0, 995.0, 994.0, 994.0, 995.0, 995.0, 995.0, 994.0, 994.0, 994.0, 994.0, 995.0, 994.0, 994.0, 994.0, 994.0, 994.0, 994.0, 995.0, 994.0, 995.0, 995.0, 995.0, 995.0, 995.0, 995.0, 995.0, 995.0, 995.0, 994.0, 995.0, 995.0, 994.0, 994.0, 994.0, 994.0, 994.0, 995.0, 994.0, 995.0, 995.0, 994.0, 995.0, 995.0, 994.0, 995.0, 995.0, 994.0, 995.0, 994.0, 995.0, 995.0, 994.0, 994.0, 994.0, 994.0, 994.0, 994.0, 994.0, 995.0, 994.0, 994.0, 994.0, 995.0, 994.0, 995.0, 995.0, 995.0, 995.0, 994.0],
      "WindowWidth": [2179.0, 2178.0, 2178.0, 2178.0, 2178.0, 2178.0, 2178.0, 2178.0, 2178.0, 2178.0, 2178.0, 2179.0, 2179.0, 2179.0, 2178.0, 2179.0, 2178.0, 2178.0, 2178.0, 2178.0, 2178.0, 2178.0, 2178.0, 2178.0, 2179.0, 2178.0, 2179.0, 2178.0, 2178.0, 2178.0, 2178.0, 2178.0, 2178.0, 2178.0, 2178.0, 2178.0, 2178.0, 2178.0, 2178.0, 2178.0, 2179.0, 2178.0, 2178.0, 2178.0, 2179.0, 2178.0, 2178.0, 2178.0, 2178.0, 2179.0, 2178.0, 2178.0, 2178.0, 2178.0, 2178.0, 2178.0, 2178.0, 2178.0, 2178.0, 2178.0, 2178.0, 2178.0, 2178.0, 2178.0, 2178.0, 2178.0, 2178.0, 2179.0, 2179.0, 2178.0, 2178.0, 2178.0, 2178.0, 2178.0, 2178.0, 2178.0, 2178.0, 2178.0, 2178.0, 2178.0, 2178.0, 2178.0, 2178.0, 2178.0, 2178.0, 2178.0, 2179.0, 2178.0, 2178.0, 2178.0, 2178.0, 2179.0, 2178.0, 2178.0, 2178.0, 2178.0, 2178.0, 2178.0, 2179.0, 2178.0, 2178.0, 2178.0, 2178.0, 2178.0, 2178.0, 2178.0, 2178.0, 2179.0, 2178.0, 2178.0, 2179.0, 2178.0, 2178.0, 2178.0, 2178.0, 2178.0, 2178.0, 2178.0, 2178.0, 2178.0, 2178.0, 2178.0, 2178.0, 2178.0, 2178.0, 2178.0, 2178.0, 2178.0, 2178.0, 2178.0, 2178.0, 2178.0, 2178.0, 2178.0, 2178.0, 2178.0, 2179.0, 2178.0, 2179.0, 2178.0, 2178.0, 2178.0, 2178.0, 2178.0, 2178.0, 2178.0, 2179.0, 2178.0, 2178.0, 2178.0, 2179.0, 2178.0, 2179.0, 2179.0, 2179.0, 2179.0, 2178.0]
    },
    "slices": {}
  }
}