{
  "AcquisitionMatrixPE": 122,
  "AcquisitionNumber": 1,
  "AcquisitionTime": "11:05:8.195000",
  "BandwidthPerPixelPhaseEncode": 28.76,
  "BaseResolution": 122,
  "BodyPartExamined": "BRAIN",
  "CoilCombinationMethod": "Adaptive Combine",
  "ConsistencyInfo": "N4_VE11C_LATEST_20160120",
  "ConversionSoftware": "dcm2niix",
  "ConversionSoftwareVersion": "v1.0.20220720",
  "DerivedVendorReportedEchoSpacing": 0.000570008,
  "DeviceSerialNumber": "66112",
  "DiffusionScheme": "Monopolar",
  "DwellTime": 2e-06,
  "EchoTime": 0.075,
  "EchoTrainLength": 61,
  "EffectiveEchoSpacing": 0.000285004,
  "FlipAngle": 90,
  "HeudiconvVersion": "0.13.1",
  "ImageOrientationPatientDICOM": [0.999974, 0.00584577, 0.0041027, -0.00680668, 0.954007, 0.299706],
  "ImageOrientationText": "Tra>Cor(17.4)>Sag(0.1)",
  "ImageType": [
    "ORIGINAL",
    "PRIMARY",
    "DIFFUSION",
    "NONE",
    "ND",
    "NORM"
],
  "ImagingFrequency": 123.252,
  "InPlanePhaseEncodingDirectionDICOM": "COL",
  "InstitutionAddress": "Maynard 3,Hanover,NH,US,03755",
  "InstitutionName": "Dartmouth College - PBS",
  "InstitutionalDepartmentName": "Department",
  "MRAcquisitionType": "2D",
  "MagneticFieldStrength": 3,
  "Manufacturer": "Siemens",
  "ManufacturersModelName": "Prisma",
  "MatrixCoilMode": "GRAPPA",
  "Modality": "MR",
  "NonlinearGradientCorrection": false,
  "ParallelReductionFactorInPlane": 2,
  "PartialFourier": 1,
  "PatientPosition": "HFS",
  "PercentPhaseFOV": 100,
  "PercentSampling": 100,
  "PhaseEncodingDirection": "j-",
  "PhaseEncodingSteps": 122,
  "PhaseResolution": 1,
  "PixelBandwidth": 2050,
  "ProcedureStepDescription": "dbic^QA",
  "ProtocolName": "dwi_acq-DTI-30-p2",
  "PulseSequenceDetails": "%SiemensSeq%\\ep2d_diff",
  "ReceiveCoilActiveElements": "HEA;HEP",
  "ReceiveCoilName": "Head_32",
  "ReconMatrixPE": 122,
  "RefLinesPE": 38,
  "RepetitionTime": 7.7,
  "SAR": 0.0876849,
  "ScanOptions": "FS",
  "ScanningSequence": "EP",
  "SequenceName": "*ep_b0",
  "SequenceVariant": "SK\\SP",
  "SeriesDescription": "dwi_acq-DTI-30-p2",
  "SeriesNumber": 12,
  "ShimSetting": [4151, -7702, -7526, 462, -136, -275, -82, 141],
  "SliceThickness": 2,
  "SliceTiming": [3.84375, 0, 3.95312, 0.11719, 4.0625, 0.22656, 4.17188, 0.33594, 4.28125, 0.44531, 4.39062, 0.55469, 4.5, 0.66406, 4.61719, 0.77344, 4.71875, 0.88281, 4.82812, 0.99219, 4.9375, 1.10156, 5.05469, 1.21094, 5.16406, 1.32031, 5.27344, 1.42969, 5.38281, 1.53906, 5.49219, 1.64844, 5.60156, 1.75781, 5.71094, 1.86719, 5.82031, 1.97656, 5.92969, 2.08594, 6.03906, 2.19531, 6.14844, 2.30469, 6.25781, 2.42188, 6.36719, 2.53125, 6.47656, 2.64062, 6.58594, 2.75, 6.69531, 2.85938, 6.80469, 2.96875, 6.91406, 3.07812, 7.02344, 3.1875, 7.13281, 3.29688, 7.24219, 3.40625, 7.35938, 3.51562, 7.46875, 3.625, 7.57031, 3.73438],
  "SoftwareVersions": "syngo MR E11",
  "SpacingBetweenSlices": 2,
  "SpoilingState": true,
  "StationName": "AWP66112",
  "TotalReadoutTime": 0.0344855,
  "TxRefAmp": 227.509,
  "dcmmeta_affine": [
    [-1.9671629667282104, -0.013390193693339825, 0.0043239593505859375, 122.5894546508789],
    [-0.011499869637191296, 1.876735806465149, 0.5994529724121094, -122.92180633544922],
    [0.008070884272456169, -0.5895854830741882, 1.9080467224121094, -54.092411041259766],
    [0.0, 0.0, 0.0, 1.0]
],
  "dcmmeta_reorient_transform": [
    [0.0, -1.0, 0.0, 121.0],
    [1.0, 0.0, 0.0, 0.0],
    [0.0, 0.0, -1.0, 69.0],
    [0.0, 0.0, 0.0, 1.0]
],
  "dcmmeta_shape": [122, 122, 70, 31],
  "dcmmeta_slice_dim": 2,
  "dcmmeta_version": 0.6,
  "global": {
    "const": {
      "AccessionNumber": "qa",
      "AcquisitionMatrix": [122, 0, 0, 122],
      "AngioFlag": "N",
      "BitsAllocated": 16,
      "BitsStored": 12,
      "BodyPartExamined": "BRAIN",
      "Columns": 122,
      "EchoNumbers": 1,
      "EchoTime": 75.0,
      "EchoTrainLength": 61,
      "FlipAngle": 90.0,
      "HighBit": 11,
      "ImageOrientationPatient": [0.99997449710714, 0.00584576711046, 0.00410269938077, -0.0068066817557, 0.95400734483849, 0.29970594768488],
      "ImageType": [
        "ORIGINAL",
        "PRIMARY",
        "DIFFUSION",
        "NONE",
        "ND",
        "NORM"
],
      "ImagedNucleus": "1H",
      "ImagingFrequency": 123.252352,
      "InPlanePhaseEncodingDirection": "COL",
      "MRAcquisitionType": "2D",
      "MagneticFieldStrength": 3.0,
      "Manufacturer": "SIEMENS",
      "ManufacturerModelName": "Prisma",
      "Modality": "MR",
      "NumberOfAverages": 1.0,
      "NumberOfPhaseEncodingSteps": 122,
      "PercentPhaseFieldOfView": 100.0,
      "PercentSampling": 100.0,
      "PerformedProcedureStepStartTime": "103304.974000",
      "PhotometricInterpretation": "MONOCHROME2",
      "PixelBandwidth": 2050.0,
      "PixelRepresentation": 0,
      "PixelSpacing": [1.9672131538391, 1.9672131538391],
      "ProtocolName": "dwi_acq-DTI-30-p2",
      "RepetitionTime": 7700.0,
      "Rows": 122,
      "SAR": 0.08768492443459,
      "SamplesPerPixel": 1,
      "ScanOptions": "FS",
      "ScanningSequence": "EP",
      "SequenceVariant": [
        "SK",
        "SP"
],
      "SeriesDescription": "dwi_acq-DTI-30-p2",
      "SeriesNumber": 12,
      "SeriesTime": "110518.105000",
      "SliceThickness": 2.0,
      "SmallestImagePixelValue": 0,
      "SoftwareVersions": "syngo MR E11",
      "SpacingBetweenSlices": 2.0,
      "SpecificCharacterSet": "ISO_IR 100",
      "StudyID": "10",
      "StudyTime": "103304.917000",
      "TransmitCoilName": "Body",
      "VariableFlipAngleFlag": "N",
      "WindowCenterWidthExplanation": "Algo1",
      "dBdt": 0.0},
    "slices": {
      "AcquisitionTime": ["110508.195000", "110504.355000", "110508.305000", "110504.465000", "110508.415000", "110504.575000", "110508.525000", "110504.685000", "110508.635000", "110504.795000", "110508.745000", "110504.905000", "110508.855000", "110505.015000", "110508.965000", "110505.125000", "110509.072500", "110505.235000", "110509.182500", "110505.342500", "110509.292500", "110505.452500", "110509.402500", "110505.562500", "110509.512500", "110505.672500", "110509.622500", "110505.782500", "110509.732500", "110505.892500", "110509.842500", "110506.002500", "110509.952500", "110506.112500", "110510.060000", "110506.220000", "110510.170000", "110506.330000", "110510.280000", "110506.440000", "110510.390000", "110506.550000", "110510.500000", "110506.660000", "110510.610000", "110506.770000", "110510.720000", "110506.880000", "110510.830000", "110506.990000", "110510.940000", "110507.100000", "110511.047500", "110507.207500", "110511.157500", "110507.317500", "110511.267500", "110507.427500", "110511.377500", "110507.537500", "110511.487500", "110507.647500", "110511.597500", "110507.757500", "110511.707500", "110507.867500", "110511.817500", "110507.977500", "110511.925000", "110508.087500", "110515.895000", "110512.055000", "110516.005000", "110512.165000", "110516.115000", "110512.275000", "110516.225000", "110512.385000", "110516.335000", "110512.495000", "110516.445000", "110512.605000", "110516.555000", "110512.715000", "110516.665000", "110512.825000", "110516.772500", "110512.935000", "110516.882500", "110513.042500", "110516.992500", "110513.152500", "110517.102500", "110513.262500", "110517.212500", "110513.372500", "110517.322500", "110513.482500", "110517.432500", "110513.592500", "110517.542500", "110513.702500", "110517.652500", "110513.812500", "110517.760000", "110513.920000", "110517.870000", "110514.030000", "110517.980000", "110514.140000", "110518.090000", "110514.250000", "110518.200000", "110514.360000", "110518.310000", "110514.470000", "110518.420000", "110514.580000", "110518.530000", "110514.690000", "110518.640000", "110514.800000", "110518.747500", "110514.907500", "110518.857500", "110515.017500", "110518.967500", "110515.127500", "110519.077500", "110515.237500", "110519.187500", "110515.347500", "110519.297500", "110515.457500", "110519.407500", "110515.567500", "110519.517500", "110515.677500", "110519.625000", "110515.787500", "110523.595000", "110519.755000", "110523.705000", "110519.865000", "110523.815000", "110519.975000", "110523.925000", "110520.085000", "110524.035000", "110520.195000", "110524.145000", "110520.305000", "110524.255000", "110520.415000", "110524.365000", "110520.525000", "110524.472500", "110520.635000", "110524.582500", "110520.742500", "110524.692500", "110520.852500", "110524.802500", "110520.962500", "110524.912500", "110521.072500", "110525.022500", "110521.182500", "110525.132500", "110521.292500", "110525.242500", "110521.402500", "110525.352500", "110521.512500", "110525.460000", "110521.620000", "110525.570000", "110521.730000", "110525.680000", "110521.840000", "110525.790000", "110521.950000", "110525.900000", "110522.060000", "110526.010000", "110522.170000", "110526.120000", "110522.280000", "110526.230000", "110522.390000", "110526.340000", "110522.500000", "110526.447500", "110522.607500", "110526.557500", "110522.717500", "110526.667500", "110522.827500", "110526.777500", "110522.937500", "110526.887500", "110523.047500", "110526.997500", "110523.157500", "110527.107500", "110523.267500", "110527.217500", "110523.377500", "110527.325000", "110523.487500", "110531.295000", "110527.455000", "110531.405000", "110527.565000", "110531.515000", "110527.675000", "110531.625000", "110527.785000", "110531.735000", "110527.895000", "110531.845000", "110528.005000", "110531.955000", "110528.115000", "110532.065000", "110528.225000", "110532.172500", "110528.335000", "110532.282500", "110528.442500", "110532.392500", "110528.552500", "110532.502500", "110528.662500", "110532.612500", "110528.772500", "110532.722500", "110528.882500", "110532.832500", "110528.992500", "110532.942500", "110529.102500", "110533.052500", "110529.212500", "110533.160000", "110529.320000", "110533.270000", "110529.430000", "110533.380000", "110529.540000", "110533.490000", "110529.650000", "110533.600000", "110529.760000", "110533.710000", "110529.870000", "110533.820000", "110529.980000", "110533.930000", "110530.090000", "110534.040000", "110530.200000", "110534.147500", "110530.307500", "110534.257500", "110530.417500", "110534.367500", "110530.527500", "110534.477500", "110530.637500", "110534.587500", "110530.747500", "110534.697500", "110530.857500", "110534.807500", "110530.967500", "110534.917500", "110531.077500", "110535.025000", "110531.187500", "110538.995000", "110535.155000", "110539.105000", "110535.265000", "110539.215000", "110535.375000", "110539.325000", "110535.485000", "110539.435000", "110535.595000", "110539.545000", "110535.705000", "110539.655000", "110535.815000", "110539.765000", "110535.925000", "110539.872500", "110536.035000", "110539.982500", "110536.142500", "110540.092500", "110536.252500", "110540.202500", "110536.362500", "110540.312500", "110536.472500", "110540.422500", "110536.582500", "110540.532500", "110536.692500", "110540.642500", "110536.802500", "110540.752500", "110536.912500", "110540.860000", "110537.020000", "110540.970000", "110537.130000", "110541.080000", "110537.240000", "110541.190000", "110537.350000", "110541.300000", "110537.460000", "110541.410000", "110537.570000", "110541.520000", "110537.680000", "110541.630000", "110537.790000", "110541.740000", "110537.900000", "110541.847500", "110538.007500", "110541.957500", "110538.117500", "110542.067500", "110538.227500", "110542.177500", "110538.337500", "110542.287500", "110538.447500", "110542.397500", "110538.557500", "110542.507500", "110538.667500", "110542.617500", "110538.777500", "110542.725000", "110538.887500", "110546.695000", "110542.855000", "110546.805000", "110542.965000", "110546.915000", "110543.075000", "110547.025000", "110543.185000", "110547.135000", "110543.295000", "110547.245000", "110543.405000", "110547.355000", "110543.515000", "110547.465000", "110543.625000", "110547.572500", "110543.735000", "110547.682500", "110543.842500", "110547.792500", "110543.952500", "110547.902500", "110544.062500", "110548.012500", "110544.172500", "110548.122500", "110544.282500", "110548.232500", "110544.392500", "110548.342500", "110544.502500", "110548.452500", "110544.612500", "110548.560000", "110544.720000", "110548.670000", "110544.830000", "110548.780000", "110544.940000", "110548.890000", "110545.050000", "110549.000000", "110545.160000", "110549.110000", "110545.270000", "110549.220000", "110545.380000", "110549.330000", "110545.490000", "110549.440000", "110545.600000", "110549.547500", "110545.707500", "110549.657500", "110545.817500", "110549.767500", "110545.927500", "110549.877500", "110546.037500", "110549.987500", "110546.147500", "110550.097500", "110546.257500", "110550.207500", "110546.367500", "110550.317500", "110546.477500", "110550.425000", "110546.587500", "110554.395000", "110550.555000", "110554.505000", "110550.665000", "110554.615000", "110550.775000", "110554.725000", "110550.885000", "110554.835000", "110550.995000", "110554.945000", "110551.105000", "110555.055000", "110551.215000", "110555.165000", "110551.325000", "110555.272500", "110551.435000", "110555.382500", "110551.542500", "110555.492500", "110551.652500", "110555.602500", "110551.762500", "110555.712500", "110551.872500", "110555.822500", "110551.982500", "110555.932500", "110552.092500", "110556.042500", "110552.202500", "110556.152500", "110552.312500", "110556.260000", "110552.420000", "110556.370000", "110552.530000", "110556.480000", "110552.640000", "110556.590000", "110552.750000", "110556.700000", "110552.860000", "110556.810000", "110552.970000", "110556.920000", "110553.080000", "110557.030000", "110553.190000", "110557.140000", "110553.300000", "110557.247500", "110553.407500", "110557.357500", "110553.517500", "110557.467500", "110553.627500", "110557.577500", "110553.737500", "110557.687500", "110553.847500", "110557.797500", "110553.957500", "110557.907500", "110554.067500", "110558.017500", "110554.177500", "110558.125000", "110554.287500", "110602.095000", "110558.255000", "110602.205000", "110558.365000", "110602.315000", "110558.475000", "110602.425000", "110558.585000", "110602.535000", "110558.695000", "110602.645000", "110558.805000", "110602.755000", "110558.915000", "110602.865000", "110559.025000", "110602.972500", "110559.135000", "110603.082500", "110559.242500", "110603.192500", "110559.352500", "110603.302500", "110559.462500", "110603.412500", "110559.572500", "110603.522500", "110559.682500", "110603.632500", "110559.792500", "110603.742500", "110559.902500", "110603.852500", "110600.012500", "110603.960000", "110600.120000", "110604.070000", "110600.230000", "110604.180000", "110600.340000", "110604.290000", "110600.450000", "110604.400000", "110600.560000", "110604.510000", "110600.670000", "110604.620000", "110600.780000", "110604.730000", "110600.890000", "110604.840000", "110601.000000", "110604.947500", "110601.107500", "110605.057500", "110601.217500", "110605.167500", "110601.327500", "110605.277500", "110601.437500", "110605.387500", "110601.547500", "110605.497500", "110601.657500", "110605.607500", "110601.767500", "110605.717500", "110601.877500", "110605.825000", "110601.987500", "110609.795000", "110605.955000", "110609.905000", "110606.065000", "110610.015000", "110606.175000", "110610.125000", "110606.285000", "110610.235000", "110606.395000", "110610.345000", "110606.505000", "110610.455000", "110606.615000", "110610.565000", "110606.725000", "110610.672500", "110606.835000", "110610.782500", "110606.942500", "110610.892500", "110607.052500", "110611.002500", "110607.162500", "110611.112500", "110607.272500", "110611.222500", "110607.382500", "110611.332500", "110607.492500", "110611.442500", "110607.602500", "110611.552500", "110607.712500", "110611.660000", "110607.820000", "110611.770000", "110607.930000", "110611.880000", "110608.040000", "110611.990000", "110608.150000", "110612.100000", "110608.260000", "110612.210000", "110608.370000", "110612.320000", "110608.480000", "110612.430000", "110608.590000", "110612.540000", "110608.700000", "110612.647500", "110608.807500", "110612.757500", "110608.917500", "110612.867500", "110609.027500", "110612.977500", "110609.137500", "110613.087500", "110609.247500", "110613.197500", "110609.357500", "110613.307500", "110609.467500", "110613.417500", "110609.577500", "110613.525000", "110609.687500", "110617.495000", "110613.655000", "110617.605000", "110613.765000", "110617.715000", "110613.875000", "110617.825000", "110613.985000", "110617.935000", "110614.095000", "110618.045000", "110614.205000", "110618.155000", "110614.315000", "110618.265000", "110614.425000", "110618.372500", "110614.535000", "110618.482500", "110614.642500", "110618.592500", "110614.752500", "110618.702500", "110614.862500", "110618.812500", "110614.972500", "110618.922500", "110615.082500", "110619.032500", "110615.192500", "110619.142500", "110615.302500", "110619.252500", "110615.412500", "110619.360000", "110615.520000", "110619.470000", "110615.630000", "110619.580000", "110615.740000", "110619.690000", "110615.850000", "110619.800000", "110615.960000", "110619.910000", "110616.070000", "110620.020000", "110616.180000", "110620.130000", "110616.290000", "110620.240000", "110616.400000", "110620.347500", "110616.507500", "110620.457500", "110616.617500", "110620.567500", "110616.727500", "110620.677500", "110616.837500", "110620.787500", "110616.947500", "110620.897500", "110617.057500", "110621.007500", "110617.167500", "110621.117500", "110617.277500", "110621.225000", "110617.387500", "110625.195000", "110621.355000", "110625.305000", "110621.465000", "110625.415000", "110621.575000", "110625.525000", "110621.685000", "110625.635000", "110621.795000", "110625.745000", "110621.905000", "110625.855000", "110622.015000", "110625.965000", "110622.125000", "110626.072500", "110622.235000", "110626.182500", "110622.342500", "110626.292500", "110622.452500", "110626.402500", "110622.562500", "110626.512500", "110622.672500", "110626.622500", "110622.782500", "110626.732500", "110622.892500", "110626.842500", "110623.002500", "110626.952500", "110623.112500", "110627.060000", "110623.220000", "110627.170000", "110623.330000", "110627.280000", "110623.440000", "110627.390000", "110623.550000", "110627.500000", "110623.660000", "110627.610000", "110623.770000", "110627.720000", "110623.880000", "110627.830000", "110623.990000", "110627.940000", "110624.100000", "110628.047500", "110624.207500", "110628.157500", "110624.317500", "110628.267500", "110624.427500", "110628.377500", "110624.537500", "110628.487500", "110624.647500", "110628.597500", "110624.757500", "110628.707500", "110624.867500", "110628.817500", "110624.977500", "110628.925000", "110625.087500", "110632.895000", "110629.055000", "110633.005000", "110629.165000", "110633.115000", "110629.275000", "110633.225000", "110629.385000", "110633.335000", "110629.495000", "110633.445000", "110629.605000", "110633.555000", "110629.715000", "110633.665000", "110629.825000", "110633.772500", "110629.935000", "110633.882500", "110630.042500", "110633.992500", "110630.152500", "110634.102500", "110630.262500", "110634.212500", "110630.372500", "110634.322500", "110630.482500", "110634.432500", "110630.592500", "110634.542500", "110630.702500", "110634.652500", "110630.812500", "110634.760000", "110630.920000", "110634.870000", "110631.030000", "110634.980000", "110631.140000", "110635.090000", "110631.250000", "110635.200000", "110631.360000", "110635.310000", "110631.470000", "110635.420000", "110631.580000", "110635.530000", "110631.690000", "110635.640000", "110631.800000", "110635.747500", "110631.907500", "110635.857500", "110632.017500", "110635.967500", "110632.127500", "110636.077500", "110632.237500", "110636.187500", "110632.347500", "110636.297500", "110632.457500", "110636.407500", "110632.567500", "110636.517500", "110632.677500", "110636.625000", "110632.787500", "110640.595000", "110636.755000", "110640.705000", "110636.865000", "110640.815000", "110636.975000", "110640.925000", "110637.085000", "110641.035000", "110637.195000", "110641.145000", "110637.305000", "110641.255000", "110637.415000", "110641.365000", "110637.525000", "110641.472500", "110637.635000", "110641.582500", "110637.742500", "110641.692500", "110637.852500", "110641.802500", "110637.962500", "110641.912500", "110638.072500", "110642.022500", "110638.182500", "110642.132500", "110638.292500", "110642.242500", "110638.402500", "110642.352500", "110638.512500", "110642.460000", "110638.620000", "110642.570000", "110638.730000", "110642.680000", "110638.840000", "110642.790000", "110638.950000", "110642.900000", "110639.060000", "110643.010000", "110639.170000", "110643.120000", "110639.280000", "110643.230000", "110639.390000", "110643.340000", "110639.500000", "110643.447500", "110639.607500", "110643.557500", "110639.717500", "110643.667500", "110639.827500", "110643.777500", "110639.937500", "110643.887500", "110640.047500", "110643.997500", "110640.157500", "110644.107500", "110640.267500", "110644.217500", "110640.377500", "110644.325000", "110640.487500", "110648.295000", "110644.455000", "110648.405000", "110644.565000", "110648.515000", "110644.675000", "110648.625000", "110644.785000", "110648.735000", "110644.895000", "110648.845000", "110645.005000", "110648.955000", "110645.115000", "110649.065000", "110645.225000", "110649.172500", "110645.335000", "110649.282500", "110645.442500", "110649.392500", "110645.552500", "110649.502500", "110645.662500", "110649.612500", "110645.772500", "110649.722500", "110645.882500", "110649.832500", "110645.992500", "110649.942500", "110646.102500", "110650.052500", "110646.212500", "110650.160000", "110646.320000", "110650.270000", "110646.430000", "110650.380000", "110646.540000", "110650.490000", "110646.650000", "110650.600000", "110646.760000", "110650.710000", "110646.870000", "110650.820000", "110646.980000", "110650.930000", "110647.090000", "110651.040000", "110647.200000", "110651.147500", "110647.307500", "110651.257500", "110647.417500", "110651.367500", "110647.527500", "110651.477500", "110647.637500", "110651.587500", "110647.747500", "110651.697500", "110647.857500", "110651.807500", "110647.967500", "110651.917500", "110648.077500", "110652.025000", "110648.187500", "110655.995000", "110652.155000", "110656.105000", "110652.265000", "110656.215000", "110652.375000", "110656.325000", "110652.485000", "110656.435000", "110652.595000", "110656.545000", "110652.705000", "110656.655000", "110652.815000", "110656.765000", "110652.925000", "110656.872500", "110653.035000", "110656.982500", "110653.142500", "110657.092500", "110653.252500", "110657.202500", "110653.362500", "110657.312500", "110653.472500", "110657.422500", "110653.582500", "110657.532500", "110653.692500", "110657.642500", "110653.802500", "110657.752500", "110653.912500", "110657.860000", "110654.020000", "110657.970000", "110654.130000", "110658.080000", "110654.240000", "110658.190000", "110654.350000", "110658.300000", "110654.460000", "110658.410000", "110654.570000", "110658.520000", "110654.680000", "110658.630000", "110654.790000", "110658.740000", "110654.900000", "110658.847500", "110655.007500", "110658.957500", "110655.117500", "110659.067500", "110655.227500", "110659.177500", "110655.337500", "110659.287500", "110655.447500", "110659.397500", "110655.557500", "110659.507500", "110655.667500", "110659.617500", "110655.777500", "110659.725000", "110655.887500", "110703.695000", "110659.855000", "110703.805000", "110659.965000", "110703.915000", "110700.075000", "110704.025000", "110700.185000", "110704.135000", "110700.295000", "110704.245000", "110700.405000", "110704.355000", "110700.515000", "110704.465000", "110700.625000", "110704.572500", "110700.735000", "110704.682500", "110700.842500", "110704.792500", "110700.952500", "110704.902500", "110701.062500", "110705.012500", "110701.172500", "110705.122500", "110701.282500", "110705.232500", "110701.392500", "110705.342500", "110701.502500", "110705.452500", "110701.612500", "110705.560000", "110701.720000", "110705.670000", "110701.830000", "110705.780000", "110701.940000", "110705.890000", "110702.050000", "110706.000000", "110702.160000", "110706.110000", "110702.270000", "110706.220000", "110702.380000", "110706.330000", "110702.490000", "110706.440000", "110702.600000", "110706.547500", "110702.707500", "110706.657500", "110702.817500", "110706.767500", "110702.927500", "110706.877500", "110703.037500", "110706.987500", "110703.147500", "110707.097500", "110703.257500", "110707.207500", "110703.367500", "110707.317500", "110703.477500", "110707.425000", "110703.587500", "110711.395000", "110707.555000", "110711.505000", "110707.665000", "110711.615000", "110707.775000", "110711.725000", "110707.885000", "110711.835000", "110707.995000", "110711.945000", "110708.105000", "110712.055000", "110708.215000", "110712.165000", "110708.325000", "110712.272500", "110708.435000", "110712.382500", "110708.542500", "110712.492500", "110708.652500", "110712.602500", "110708.762500", "110712.712500", "110708.872500", "110712.822500", "110708.982500", "110712.932500", "110709.092500", "110713.042500", "110709.202500", "110713.152500", "110709.312500", "110713.260000", "110709.420000", "110713.370000", "110709.530000", "110713.480000", "110709.640000", "110713.590000", "110709.750000", "110713.700000", "110709.860000", "110713.810000", "110709.970000", "110713.920000", "110710.080000", "110714.030000", "110710.190000", "110714.140000", "110710.300000", "110714.247500", "110710.407500", "110714.357500", "110710.517500", "110714.467500", "110710.627500", "110714.577500", "110710.737500", "110714.687500", "110710.847500", "110714.797500", "110710.957500", "110714.907500", "110711.067500", "110715.017500", "110711.177500", "110715.125000", "110711.287500", "110719.095000", "110715.255000", "110719.205000", "110715.365000", "110719.315000", "110715.475000", "110719.425000", "110715.585000", "110719.535000", "110715.695000", "110719.645000", "110715.805000", "110719.755000", "110715.915000", "110719.865000", "110716.025000", "110719.972500", "110716.135000", "110720.082500", "110716.242500", "110720.192500", "110716.352500", "110720.302500", "110716.462500", "110720.412500", "110716.572500", "110720.522500", "110716.682500", "110720.632500", "110716.792500", "110720.742500", "110716.902500", "110720.852500", "110717.012500", "110720.960000", "110717.120000", "110721.070000", "110717.230000", "110721.180000", "110717.340000", "110721.290000", "110717.450000", "110721.400000", "110717.560000", "110721.510000", "110717.670000", "110721.620000", "110717.780000", "110721.730000", "110717.890000", "110721.840000", "110718.000000", "110721.947500", "110718.107500", "110722.057500", "110718.217500", "110722.167500", "110718.327500", "110722.277500", "110718.437500", "110722.387500", "110718.547500", "110722.497500", "110718.657500", "110722.607500", "110718.767500", "110722.717500", "110718.877500", "110722.825000", "110718.987500", "110726.795000", "110722.955000", "110726.905000", "110723.065000", "110727.015000", "110723.175000", "110727.125000", "110723.285000", "110727.235000", "110723.395000", "110727.345000", "110723.505000", "110727.455000", "110723.615000", "110727.565000", "110723.725000", "110727.672500", "110723.835000", "110727.782500", "110723.942500", "110727.892500", "110724.052500", "110728.002500", "110724.162500", "110728.112500", "110724.272500", "110728.222500", "110724.382500", "110728.332500", "110724.492500", "110728.442500", "110724.602500", "110728.552500", "110724.712500", "110728.660000", "110724.820000", "110728.770000", "110724.930000", "110728.880000", "110725.040000", "110728.990000", "110725.150000", "110729.100000", "110725.260000", "110729.210000", "110725.370000", "110729.320000", "110725.480000", "110729.430000", "110725.590000", "110729.540000", "110725.700000", "110729.647500", "110725.807500", "110729.757500", "110725.917500", "110729.867500", "110726.027500", "110729.977500", "110726.137500", "110730.087500", "110726.247500", "110730.197500", "110726.357500", "110730.307500", "110726.467500", "110730.417500", "110726.577500", "110730.525000", "110726.687500", "110734.495000", "110730.655000", "110734.605000", "110730.765000", "110734.715000", "110730.875000", "110734.825000", "110730.985000", "110734.935000", "110731.095000", "110735.045000", "110731.205000", "110735.155000", "110731.315000", "110735.265000", "110731.425000", "110735.372500", "110731.535000", "110735.482500", "110731.642500", "110735.592500", "110731.752500", "110735.702500", "110731.862500", "110735.812500", "110731.972500", "110735.922500", "110732.082500", "110736.032500", "110732.192500", "110736.142500", "110732.302500", "110736.252500", "110732.412500", "110736.360000", "110732.520000", "110736.470000", "110732.630000", "110736.580000", "110732.740000", "110736.690000", "110732.850000", "110736.800000", "110732.960000", "110736.910000", "110733.070000", "110737.020000", "110733.180000", "110737.130000", "110733.290000", "110737.240000", "110733.400000", "110737.347500", "110733.507500", "110737.457500", "110733.617500", "110737.567500", "110733.727500", "110737.677500", "110733.837500", "110737.787500", "110733.947500", "110737.897500", "110734.057500", "110738.007500", "110734.167500", "110738.117500", "110734.277500", "110738.225000", "110734.387500", "110742.195000", "110738.355000", "110742.305000", "110738.465000", "110742.415000", "110738.575000", "110742.525000", "110738.685000", "110742.635000", "110738.795000", "110742.745000", "110738.905000", "110742.855000", "110739.015000", "110742.965000", "110739.125000", "110743.072500", "110739.235000", "110743.182500", "110739.342500", "110743.292500", "110739.452500", "110743.402500", "110739.562500", "110743.512500", "110739.672500", "110743.622500", "110739.782500", "110743.732500", "110739.892500", "110743.842500", "110740.002500", "110743.952500", "110740.112500", 