{
  "AcquisitionMatrixPE": 122,
  "AcquisitionNumber": 1,
  "AcquisitionTime": "10:08:24.475000",
  "BandwidthPerPixelPhaseEncode": 27.785,
  "BaseResolution": 122,
  "BodyPartExamined": "BRAIN",
  "CoilCombinationMethod": "Adaptive Combine",
  "ConsistencyInfo": "N4_VE11C_LATEST_20160120",
  "ConversionSoftware": "dcm2niix",
  "ConversionSoftwareVersion": "v1.0.20220720",
  "DerivedVendorReportedEchoSpacing": 0.000590011,
  "DeviceSerialNumber": "66112",
  "DiffusionScheme": "Monopolar",
  "DwellTime": 2e-06,
  "EchoTime": 0.068,
  "EchoTrainLength": 61,
  "EffectiveEchoSpacing": 0.000295005,
  "FlipAngle": 90,
  "HeudiconvVersion": "0.13.1",
  "ImageOrientationPatientDICOM": [0.986041, -0.165171, -0.0209954, 0.163769, 0.939379, 0.301243],
  "ImageOrientationText": "Tra>Cor(17.5)>Sag(1.7)",
  "ImageType": [
    "ORIGINAL",
    "PRIMARY",
    "DIFFUSION",
    "NONE",
    "ND",
    "NORM"
],
  "ImagingFrequency": 123.252,
  "InPlanePhaseEncodingDirectionDICOM": "COL",
  "InstitutionAddress": "Maynard 3,Hanover,NH,US,03755",
  "InstitutionName": "Dartmouth College - PBS",
  "InstitutionalDepartmentName": "Department",
  "MRAcquisitionType": "2D",
  "MagneticFieldStrength": 3,
  "Manufacturer": "Siemens",
  "ManufacturersModelName": "Prisma",
  "Modality": "MR",
  "MultibandAccelerationFactor": 4,
  "NonlinearGradientCorrection": false,
  "ParallelReductionFactorInPlane": 2,
  "PartialFourier": 1,
  "PatientPosition": "HFS",
  "PercentPhaseFOV": 100,
  "PercentSampling": 100,
  "PhaseEncodingDirection": "j-",
  "PhaseEncodingSteps": 122,
  "PhaseResolution": 1,
  "PixelBandwidth": 2050,
  "ProcedureStepDescription": "dbic^QA",
  "ProtocolName": "dwi_acq-DTI-30-p2-s4",
  "PulseSequenceDetails": "%SiemensSeq%\\ep2d_diff",
  "ReceiveCoilActiveElements": "HEA;HEP",
  "ReceiveCoilName": "Head_32",
  "ReconMatrixPE": 122,
  "RefLinesPE": 38,
  "RepetitionTime": 3.6,
  "SAR": 0.16046,
  "ScanOptions": "FS",
  "ScanningSequence": "EP",
  "SequenceName": "*ep_b0",
  "SequenceVariant": "SK\\SP",
  "SeriesDescription": "dwi_acq-DTI-30-p2-s4",
  "SeriesNumber": 13,
  "ShimSetting": [4147, -7702, -7523, 259, -107, -89, 10, 81],
  "SliceThickness": 2,
  "SliceTiming": [2.58594, 0, 1.78906, 0.19531, 1.98438, 0.39844, 2.1875, 0.59375, 2.38281, 0.99219, 2.78125, 1.19531, 2.98438, 1.39062, 3.17969, 1.58594, 3.38281, 0.79688, 2.58594, 0, 1.78906, 0.19531, 1.98438, 0.39844, 2.1875, 0.59375, 2.38281, 0.99219, 2.78125, 1.19531, 2.98438, 1.39062, 3.17969, 1.58594, 3.38281, 0.79688, 2.58594, 0, 1.78906, 0.19531, 1.98438, 0.39844, 2.1875, 0.59375, 2.38281, 0.99219, 2.78125, 1.19531, 2.98438, 1.39062, 3.17969, 1.58594, 3.38281, 0.79688, 2.58594, 0, 1.78906, 0.19531, 1.98438, 0.39844, 2.1875, 0.59375, 2.38281, 0.99219, 2.78125, 1.19531, 2.98438, 1.39062, 3.17969, 1.58594, 3.38281, 0.79688],
  "SoftwareVersions": "syngo MR E11",
  "SpacingBetweenSlices": 2,
  "SpoilingState": true,
  "StationName": "AWP66112",
  "TotalReadoutTime": 0.0356956,
  "TxRefAmp": 222.856,
  "dcmmeta_affine": [
    [-1.939753770828247, 0.3221677541732788, 0.06006789207458496, 92.94999694824219],
    [0.32492613792419434, 1.8479580879211426, 0.6009540557861328, -146.44024658203125],
    [-0.04130248725414276, -0.5926099419593811, 1.9066314697265625, -21.285667419433594],
    [0.0, 0.0, 0.0, 1.0]
],
  "dcmmeta_reorient_transform": [
    [0.0, -1.0, 0.0, 121.0],
    [1.0, 0.0, 0.0, 0.0],
    [0.0, 0.0, -1.0, 71.0],
    [0.0, 0.0, 0.0, 1.0]
],
  "dcmmeta_shape": [122, 122, 72, 31],
  "dcmmeta_slice_dim": 2,
  "dcmmeta_version": 0.6,
  "global": {
    "const": {
      "AccessionNumber": "qa",
      "AcquisitionMatrix": [122, 0, 0, 122],
      "AngioFlag": "N",
      "BitsAllocated": 16,
      "BitsStored": 12,
      "BodyPartExamined": "BRAIN",
      "Columns": 122,
      "EchoNumbers": 1,
      "EchoTime": 68.0,
      "EchoTrainLength": 61,
      "FlipAngle": 90.0,
      "HighBit": 11,
      "ImageOrientationPatient": [0.98604148172883, -0.1651707850115, -0.0209954301859, 0.16376861195373, 0.93937865710938, 0.30124339047707],
      "ImageType": [
        "ORIGINAL",
        "PRIMARY",
        "DIFFUSION",
        "NONE",
        "ND",
        "NORM"
],
      "ImagedNucleus": "1H",
      "ImagingFrequency": 123.252323,
      "InPlanePhaseEncodingDirection": "COL",
      "MRAcquisitionType": "2D",
      "MagneticFieldStrength": 3.0,
      "Manufacturer": "SIEMENS",
      "ManufacturerModelName": "Prisma",
      "Modality": "MR",
      "NumberOfAverages": 1.0,
      "NumberOfPhaseEncodingSteps": 122,
      "PercentPhaseFieldOfView": 100.0,
      "PercentSampling": 100.0,
      "PerformedProcedureStepStartTime": "093109.483000",
      "PhotometricInterpretation": "MONOCHROME2",
      "PixelBandwidth": 2050.0,
      "PixelRepresentation": 0,
      "PixelSpacing": [1.9672131538391, 1.9672131538391],
      "ProtocolName": "dwi_acq-DTI-30-p2-s4",
      "RepetitionTime": 3600.0,
      "Rows": 122,
      "SAR": 0.16045959713325,
      "SamplesPerPixel": 1,
      "ScanOptions": "FS",
      "ScanningSequence": "EP",
      "SequenceVariant": [
        "SK",
        "SP"
],
      "SeriesDescription": "dwi_acq-DTI-30-p2-s4",
      "SeriesNumber": 13,
      "SeriesTime": "100832.346000",
      "SliceThickness": 2.0,
      "SmallestImagePixelValue": 0,
      "SoftwareVersions": "syngo MR E11",
      "SpacingBetweenSlices": 2.0,
      "SpecificCharacterSet": "ISO_IR 100",
      "StudyID": "7",
      "StudyTime": "093109.428000",
      "TransmitCoilName": "Body",
      "VariableFlipAngleFlag": "N",
      "WindowCenterWidthExplanation": "Algo1",
      "dBdt": 0.0},
    "slices": {
      "AcquisitionTime": ["100824.475000", "100821.890000", "100823.680000", "100822.087500", "100823.877500", "100822.287500", "100824.077500", "100822.485000", "100824.275000", "100822.885000", "100824.675000", "100823.082500", "100824.872500", "100823.282500", "100825.072500", "100823.480000", "100825.270000", "100822.685000", "100824.475000", "100821.890000", "100823.680000", "100822.087500", "100823.877500", "100822.287500", "100824.077500", "100822.485000", "100824.275000", "100822.885000", "100824.675000", "100823.082500", "100824.872500", "100823.282500", "100825.072500", "100823.480000", "100825.270000", "100822.685000", "100824.475000", "100821.890000", "100823.680000", "100822.087500", "100823.877500", "100822.287500", "100824.077500", "100822.485000", "100824.275000", "100822.885000", "100824.675000", "100823.082500", "100824.872500", "100823.282500", "100825.072500", "100823.480000", "100825.270000", "100822.685000", "100824.475000", "100821.890000", "100823.680000", "100822.087500", "100823.877500", "100822.287500", "100824.077500", "100822.485000", "100824.275000", "100822.885000", "100824.675000", "100823.082500", "100824.872500", "100823.282500", "100825.072500", "100823.480000", "100825.270000", "100822.685000", "100828.075000", "100825.490000", "100827.280000", "100825.687500", "100827.477500", "100825.887500", "100827.677500", "100826.085000", "100827.875000", "100826.485000", "100828.275000", "100826.682500", "100828.472500", "100826.882500", "100828.672500", "100827.080000", "100828.870000", "100826.285000", "100828.075000", "100825.490000", "100827.280000", "100825.687500", "100827.477500", "100825.887500", "100827.677500", "100826.085000", "100827.875000", "100826.485000", "100828.275000", "100826.682500", "100828.472500", "100826.882500", "100828.672500", "100827.080000", "100828.870000", "100826.285000", "100828.075000", "100825.490000", "100827.280000", "100825.687500", "100827.477500", "100825.887500", "100827.677500", "100826.085000", "100827.875000", "100826.485000", "100828.275000", "100826.682500", "100828.472500", "100826.882500", "100828.672500", "100827.080000", "100828.870000", "100826.285000", "100828.075000", "100825.490000", "100827.280000", "100825.687500", "100827.477500", "100825.887500", "100827.677500", "100826.085000", "100827.875000", "100826.485000", "100828.275000", "100826.682500", "100828.472500", "100826.882500", "100828.672500", "100827.080000", "100828.870000", "100826.285000", "100831.675000", "100829.090000", "100830.880000", "100829.287500", "100831.077500", "100829.487500", "100831.277500", "100829.685000", "100831.475000", "100830.085000", "100831.875000", "100830.282500", "100832.072500", "100830.482500", "100832.272500", "100830.680000", "100832.470000", "100829.885000", "100831.675000", "100829.090000", "100830.880000", "100829.287500", "100831.077500", "100829.487500", "100831.277500", "100829.685000", "100831.475000", "100830.085000", "100831.875000", "100830.282500", "100832.072500", "100830.482500", "100832.272500", "100830.680000", "100832.470000", "100829.885000", "100831.675000", "100829.090000", "100830.880000", "100829.287500", "100831.077500", "100829.487500", "100831.277500", "100829.685000", "100831.475000", "100830.085000", "100831.875000", "100830.282500", "100832.072500", "100830.482500", "100832.272500", "100830.680000", "100832.470000", "100829.885000", "100831.675000", "100829.090000", "100830.880000", "100829.287500", "100831.077500", "100829.487500", "100831.277500", "100829.685000", "100831.475000", "100830.085000", "100831.875000", "100830.282500", "100832.072500", "100830.482500", "100832.272500", "100830.680000", "100832.470000", "100829.885000", "100835.275000", "100832.690000", "100834.480000", "100832.887500", "100834.677500", "100833.087500", "100834.877500", "100833.285000", "100835.075000", "100833.685000", "100835.475000", "100833.882500", "100835.672500", "100834.082500", "100835.872500", "100834.280000", "100836.070000", "100833.485000", "100835.275000", "100832.690000", "100834.480000", "100832.887500", "100834.677500", "100833.087500", "100834.877500", "100833.285000", "100835.075000", "100833.685000", "100835.475000", "100833.882500", "100835.672500", "100834.082500", "100835.872500", "100834.280000", "100836.070000", "100833.485000", "100835.275000", "100832.690000", "100834.480000", "100832.887500", "100834.677500", "100833.087500", "100834.877500", "100833.285000", "100835.075000", "100833.685000", "100835.475000", "100833.882500", "100835.672500", "100834.082500", "100835.872500", "100834.280000", "100836.070000", "100833.485000", "100835.275000", "100832.690000", "100834.480000", "100832.887500", "100834.677500", "100833.087500", "100834.877500", "100833.285000", "100835.075000", "100833.685000", "100835.475000", "100833.882500", "100835.672500", "100834.082500", "100835.872500", "100834.280000", "100836.070000", "100833.485000", "100838.875000", "100836.290000", "100838.080000", "100836.487500", "100838.277500", "100836.687500", "100838.477500", "100836.885000", "100838.675000", "100837.285000", "100839.075000", "100837.482500", "100839.272500", "100837.682500", "100839.472500", "100837.880000", "100839.670000", "100837.085000", "100838.875000", "100836.290000", "100838.080000", "100836.487500", "100838.277500", "100836.687500", "100838.477500", "100836.885000", "100838.675000", "100837.285000", "100839.075000", "100837.482500", "100839.272500", "100837.682500", "100839.472500", "100837.880000", "100839.670000", "100837.085000", "100838.875000", "100836.290000", "100838.080000", "100836.487500", "100838.277500", "100836.687500", "100838.477500", "100836.885000", "100838.675000", "100837.285000", "100839.075000", "100837.482500", "100839.272500", "100837.682500", "100839.472500", "100837.880000", "100839.670000", "100837.085000", "100838.875000", "100836.290000", "100838.080000", "100836.487500", "100838.277500", "100836.687500", "100838.477500", "100836.885000", "100838.675000", "100837.285000", "100839.075000", "100837.482500", "100839.272500", "100837.682500", "100839.472500", "100837.880000", "100839.670000", "100837.085000", "100842.475000", "100839.890000", "100841.680000", "100840.087500", "100841.877500", "100840.287500", "100842.077500", "100840.485000", "100842.275000", "100840.885000", "100842.675000", "100841.082500", "100842.872500", "100841.282500", "100843.072500", "100841.480000", "100843.270000", "100840.685000", "100842.475000", "100839.890000", "100841.680000", "100840.087500", "100841.877500", "100840.287500", "100842.077500", "100840.485000", "100842.275000", "100840.885000", "100842.675000", "100841.082500", "100842.872500", "100841.282500", "100843.072500", "100841.480000", "100843.270000", "100840.685000", "100842.475000", "100839.890000", "100841.680000", "100840.087500", "100841.877500", "100840.287500", "100842.077500", "100840.485000", "100842.275000", "100840.885000", "100842.675000", "100841.082500", "100842.872500", "100841.282500", "100843.072500", "100841.480000", "100843.270000", "100840.685000", "100842.475000", "100839.890000", "100841.680000", "100840.087500", "100841.877500", "100840.287500", "100842.077500", "100840.485000", "100842.275000", "100840.885000", "100842.675000", "100841.082500", "100842.872500", "100841.282500", "100843.072500", "100841.480000", "100843.270000", "100840.685000", "100846.075000", "100843.490000", "100845.280000", "100843.687500", "100845.477500", "100843.887500", "100845.677500", "100844.085000", "100845.875000", "100844.485000", "100846.275000", "100844.682500", "100846.472500", "100844.882500", "100846.672500", "100845.080000", "100846.870000", "100844.285000", "100846.075000", "100843.490000", "100845.280000", "100843.687500", "100845.477500", "100843.887500", "100845.677500", "100844.085000", "100845.875000", "100844.485000", "100846.275000", "100844.682500", "100846.472500", "100844.882500", "100846.672500", "100845.080000", "100846.870000", "100844.285000", "100846.075000", "100843.490000", "100845.280000", "100843.687500", "100845.477500", "100843.887500", "100845.677500", "100844.085000", "100845.875000", "100844.485000", "100846.275000", "100844.682500", "100846.472500", "100844.882500", "100846.672500", "100845.080000", "100846.870000", "100844.285000", "100846.075000", "100843.490000", "100845.280000", "100843.687500", "100845.477500", "100843.887500", "100845.677500", "100844.085000", "100845.875000", "100844.485000", "100846.275000", "100844.682500", "100846.472500", "100844.882500", "100846.672500", "100845.080000", "100846.870000", "100844.285000", "100849.675000", "100847.090000", "100848.880000", "100847.287500", "100849.077500", "100847.487500", "100849.277500", "100847.685000", "100849.475000", "100848.085000", "100849.875000", "100848.282500", "100850.072500", "100848.482500", "100850.272500", "100848.680000", "100850.470000", "100847.885000", "100849.675000", "100847.090000", "100848.880000", "100847.287500", "100849.077500", "100847.487500", "100849.277500", "100847.685000", "100849.475000", "100848.085000", "100849.875000", "100848.282500", "100850.072500", "100848.482500", "100850.272500", "100848.680000", "100850.470000", "100847.885000", "100849.675000", "100847.090000", "100848.880000", "100847.287500", "100849.077500", "100847.487500", "100849.277500", "100847.685000", "100849.475000", "100848.085000", "100849.875000", "100848.282500", "100850.072500", "100848.482500", "100850.272500", "100848.680000", "100850.470000", "100847.885000", "100849.675000", "100847.090000", "100848.880000", "100847.287500", "100849.077500", "100847.487500", "100849.277500", "100847.685000", "100849.475000", "100848.085000", "100849.875000", "100848.282500", "100850.072500", "100848.482500", "100850.272500", "100848.680000", "100850.470000", "100847.885000", "100853.275000", "100850.690000", "100852.480000", "100850.887500", "100852.677500", "100851.087500", "100852.877500", "100851.285000", "100853.075000", "100851.685000", "100853.475000", "100851.882500", "100853.672500", "100852.082500", "100853.872500", "100852.280000", "100854.070000", "100851.485000", "100853.275000", "100850.690000", "100852.480000", "100850.887500", "100852.677500", "100851.087500", "100852.877500", "100851.285000", "100853.075000", "100851.685000", "100853.475000", "100851.882500", "100853.672500", "100852.082500", "100853.872500", "100852.280000", "100854.070000", "100851.485000", "100853.275000", "100850.690000", "100852.480000", "100850.887500", "100852.677500", "100851.087500", "100852.877500", "100851.285000", "100853.075000", "100851.685000", "100853.475000", "100851.882500", "100853.672500", "100852.082500", "100853.872500", "100852.280000", "100854.070000", "100851.485000", "100853.275000", "100850.690000", "100852.480000", "100850.887500", "100852.677500", "100851.087500", "100852.877500", "100851.285000", "100853.075000", "100851.685000", "100853.475000", "100851.882500", "100853.672500", "100852.082500", "100853.872500", "100852.280000", "100854.070000", "100851.485000", "100856.875000", "100854.290000", "100856.080000", "100854.487500", "100856.277500", "100854.687500", "100856.477500", "100854.885000", "100856.675000", "100855.285000", "100857.075000", "100855.482500", "100857.272500", "100855.682500", "100857.472500", "100855.880000", "100857.670000", "100855.085000", "100856.875000", "100854.290000", "100856.080000", "100854.487500", "100856.277500", "100854.687500", "100856.477500", "100854.885000", "100856.675000", "100855.285000", "100857.075000", "100855.482500", "100857.272500", "100855.682500", "100857.472500", "100855.880000", "100857.670000", "100855.085000", "100856.875000", "100854.290000", "100856.080000", "100854.487500", "100856.277500", "100854.687500", "100856.477500", "100854.885000", "100856.675000", "100855.285000", "100857.075000", "100855.482500", "100857.272500", "100855.682500", "100857.472500", "100855.880000", "100857.670000", "100855.085000", "100856.875000", "100854.290000", "100856.080000", "100854.487500", "100856.277500", "100854.687500", "100856.477500", "100854.885000", "100856.675000", "100855.285000", "100857.075000", "100855.482500", "100857.272500", "100855.682500", "100857.472500", "100855.880000", "100857.670000", "100855.085000", "100900.475000", "100857.890000", "100859.680000", "100858.087500", "100859.877500", "100858.287500", "100900.077500", "100858.485000", "100900.275000", "100858.885000", "100900.675000", "100859.082500", "100900.872500", "100859.282500", "100901.072500", "100859.480000", "100901.270000", "100858.685000", "100900.475000", "100857.890000", "100859.680000", "100858.087500", "100859.877500", "100858.287500", "100900.077500", "100858.485000", "100900.275000", "100858.885000", "100900.675000", "100859.082500", "100900.872500", "100859.282500", "100901.072500", "100859.480000", "100901.270000", "100858.685000", "100900.475000", "100857.890000", "100859.680000", "100858.087500", "100859.877500", "100858.287500", "100900.077500", "100858.485000", "100900.275000", "100858.885000", "100900.675000", "100859.082500", "100900.872500", "100859.282500", "100901.072500", "100859.480000", "100901.270000", "100858.685000", "100900.475000", "100857.890000", "100859.680000", "100858.087500", "100859.877500", "100858.287500", "100900.077500", "100858.485000", "100900.275000", "100858.885000", "100900.675000", "100859.082500", "100900.872500", "100859.282500", "100901.072500", "100859.480000", "100901.270000", "100858.685000", "100904.075000", "100901.490000", "100903.280000", "100901.687500", "100903.477500", "100901.887500", "100903.677500", "100902.085000", "100903.875000", "100902.485000", "100904.275000", "100902.682500", "100904.472500", "100902.882500", "100904.672500", "100903.080000", "100904.870000", "100902.285000", "100904.075000", "100901.490000", "100903.280000", "100901.687500", "100903.477500", "100901.887500", "100903.677500", "100902.085000", "100903.875000", "100902.485000", "100904.275000", "100902.682500", "100904.472500", "100902.882500", "100904.672500", "100903.080000", "100904.870000", "100902.285000", "100904.075000", "100901.490000", "100903.280000", "100901.687500", "100903.477500", "100901.887500", "100903.677500", "100902.085000", "100903.875000", "100902.485000", "100904.275000", "100902.682500", "100904.472500", "100902.882500", "100904.672500", "100903.080000", "100904.870000", "100902.285000", "100904.075000", "100901.490000", "100903.280000", "100901.687500", "100903.477500", "100901.887500", "100903.677500", "100902.085000", "100903.875000", "100902.485000", "100904.275000", "100902.682500", "100904.472500", "100902.882500", "100904.672500", "100903.080000", "100904.870000", "100902.285000", "100907.675000", "100905.090000", "100906.880000", "100905.287500", "100907.077500", "100905.487500", "100907.277500", "100905.685000", "100907.475000", "100906.085000", "100907.875000", "100906.282500", "100908.072500", "100906.482500", "100908.272500", "100906.680000", "100908.470000", "100905.885000", "100907.675000", "100905.090000", "100906.880000", "100905.287500", "100907.077500", "100905.487500", "100907.277500", "100905.685000", "100907.475000", "100906.085000", "100907.875000", "100906.282500", "100908.072500", "100906.482500", "100908.272500", "100906.680000", "100908.470000", "100905.885000", "100907.675000", "100905.090000", "100906.880000", "100905.287500", "100907.077500", "100905.487500", "100907.277500", "100905.685000", "100907.475000", "100906.085000", "100907.875000", "100906.282500", "100908.072500", "100906.482500", "100908.272500", "100906.680000", "100908.470000", "100905.885000", "100907.675000", "100905.090000", "100906.880000", "100905.287500", "100907.077500", "100905.487500", "100907.277500", "100905.685000", "100907.475000", "100906.085000", "100907.875000", "100906.282500", "100908.072500", "100906.482500", "100908.272500", "100906.680000", "100908.470000", "100905.885000", "100911.275000", "100908.690000", "100910.480000", "100908.887500", "100910.677500", "100909.087500", "100910.877500", "100909.285000", "100911.075000", "100909.685000", "100911.475000", "100909.882500", "100911.672500", "100910.082500", "100911.872500", "100910.280000", "100912.070000", "100909.485000", "100911.275000", "100908.690000", "100910.480000", "100908.887500", "100910.677500", "100909.087500", "100910.877500", "100909.285000", "100911.075000", "100909.685000", "100911.475000", "100909.882500", "100911.672500", "100910.082500", "100911.872500", "100910.280000", "100912.070000", "100909.485000", "100911.275000", "100908.690000", "100910.480000", "100908.887500", "100910.677500", "100909.087500", "100910.877500", "100909.285000", "100911.075000", "100909.685000", "100911.475000", "100909.882500", "100911.672500", "100910.082500", "100911.872500", "100910.280000", "100912.070000", "100909.485000", "100911.275000", "100908.690000", "100910.480000", "100908.887500", "100910.677500", "100909.087500", "100910.877500", "100909.285000", "100911.075000", "100909.685000", "100911.475000", "100909.882500", "100911.672500", "100910.082500", "100911.872500", "100910.280000", "100912.070000", "100909.485000", "100914.875000", "100912.290000", "100914.080000", "100912.487500", "100914.277500", "100912.687500", "100914.477500", "100912.885000", "100914.675000", "100913.285000", "100915.075000", "100913.482500", "100915.272500", "100913.682500", "100915.472500", "100913.880000", "100915.670000", "100913.085000", "100914.875000", "100912.290000", "100914.080000", "100912.487500", "100914.277500", "100912.687500", "100914.477500", "100912.885000", "100914.675000", "100913.285000", "100915.075000", "100913.482500", "100915.272500", "100913.682500", "100915.472500", "100913.880000", "100915.670000", "100913.085000", "100914.875000", "100912.290000", "100914.080000", "100912.487500", "100914.277500", "100912.687500", "100914.477500", "100912.885000", "100914.675000", "100913.285000", "100915.075000", "100913.482500", "100915.272500", "100913.682500", "100915.472500", "100913.880000", "100915.670000", "100913.085000", "100914.875000", "100912.290000", "100914.080000", "100912.487500", "100914.277500", "100912.687500", "100914.477500", "100912.885000", "100914.675000", "100913.285000", "100915.075000", "100913.482500", "100915.272500", "100913.682500", "100915.472500", "100913.880000", "100915.670000", "100913.085000", "100918.475000", "100915.890000", "100917.680000", "100916.087500", "100917.877500", "100916.287500", "100918.077500", "100916.485000", "100918.275000", "100916.885000", "100918.675000", "100917.082500", "100918.872500", "100917.282500", "100919.072500", "100917.480000", "100919.270000", "100916.685000", "100918.475000", "100915.890000", "100917.680000", "100916.087500", "100917.877500", "100916.287500", "100918.077500", "100916.485000", "100918.275000", "100916.885000", "100918.675000", "100917.082500", "100918.872500", "100917.282500", "100919.072500", "100917.480000", "100919.270000", "100916.685000", "100918.475000", "100915.890000", "100917.680000", "100916.087500", "100917.877500", "100916.287500", "100918.077500", "100916.485000", "100918.275000", "100916.885000", "100918.675000", "100917.082500", "100918.872500", "100917.282500", "100919.072500", "100917.480000", "100919.270000", "100916.685000", "100918.475000", "100915.890000", "100917.680000", "100916.087500", "100917.877500", "100916.287500", "100918.077500", "100916.485000", "100918.275000", "100916.885000", "100918.675000", "100917.082500", "100918.872500", "100917.282500", "100919.072500", "100917.480000", "100919.270000", "100916.685000", "100922.075000", "100919.490000", "100921.280000", "100919.687500", "100921.477500", "100919.887500", "100921.677500", "100920.085000", "100921.875000", "100920.485000", "100922.275000", "100920.682500", "100922.472500", "100920.882500", "100922.672500", "100921.080000", "100922.870000", "100920.285000", "100922.075000", "100919.490000", "100921.280000", "100919.687500", "100921.477500", "100919.887500", "100921.677500", "100920.085000", "100921.875000", "100920.485000", "100922.275000", "100920.682500", "100922.472500", "100920.882500", "100922.672500", "100921.080000", "100922.870000", "100920.285000", "100922.075000", "100919.490000", "100921.280000", "100919.687500", "100921.477500", "100919.887500", "100921.677500", "100920.085000", "100921.875000", "100920.485000", "100922.275000", "100920.682500", "100922.472500", "100920.882500", "100922.672500", "100921.080000", "100922.870000", "100920.285000", "100922.075000", "100919.490000", "100921.280000", "100919.687500", "100921.477500", "100919.887500", "100921.677500", "100920.085000", "100921.875000", "100920.485000", "100922.275000", "100920.682500", "100922.472500", "100920.882500", "100922.672500", "100921.080000", "100922.870000", "100920.285000", "100925.675000", "100923.090000", "100924.880000", "100923.287500", "100925.077500", "100923.487500", "100925.277500", "100923.685000", "100925.475000", "100924.085000", "100925.875000", "100924.282500", "100926.072500", "100924.482500", "100926.272500", "100924.680000", "100926.470000", "100923.885000", "100925.675000", "100923.090000", "100924.880000", "100923.287500", "100925.077500", "100923.487500", "100925.277500", "100923.685000", "100925.475000", "100924.085000", "100925.875000", "100924.282500", "100926.072500", "100924.482500", "100926.272500", "100924.680000", "100926.470000", "100923.885000", "100925.675000", "100923.090000", "100924.880000", "100923.287500", "100925.077500", "100923.487500", "100925.277500", "100923.685000", "100925.475000", "100924.085000", "100925.875000", "100924.282500", "100926.072500", "100924.482500", "100926.272500", "100924.680000", "100926.470000", "100923.885000", "100925.675000", "100923.090000", "100924.880000", "100923.287500", "100925.077500", "100923.487500", "100925.277500", "100923.685000", "100925.475000", "100924.085000", "100925.875000", "100924.282500", "100926.072500", "100924.482500", "100926.272500", "100924.680000", "100926.470000", "100923.885000", "100929.275000", "100926.690000", "100928.480000", "100926.887500", "100928.677500", "100927.087500", "100928.877500", "100927.285000", "100929.075000", "100927.685000", "100929.475000", "100927.882500", "100929.672500", "100928.082500", "100929.872500", "100928.280000", "100930.070000", "100927.485000", "100929.275000", "100926.690000", "100928.480000", "100926.887500", "100928.677500", "100927.087500", "100928.877500", "100927.285000", "100929.075000", "100927.685000", "100929.475000", "100927.882500", "100929.672500", "100928.082500", "100929.872500", "100928.280000", "100930.070000", "100927.485000", "100929.275000", "100926.690000", "100928.480000", "100926.887500", "100928.677500", "100927.087500", "100928.877500", "100927.285000", "100929.075000", "100927.685000", "100929.475000", "100927.882500", "100929.672500", "100928.082500", "100929.872500", "100928.280000", "100930.070000", "100927.485000", "100929.275000", "100926.690000", "100928.480000", "100926.887500", "100928.677500", "100927.087500", "100928.877500", "100927.285000", "100929.075000", "100927.685000", "100929.475000", "100927.882500", "100929.672500", "100928.082500", "100929.872500", "100928.280000", "100930.070000", "100927.485000", "100932.875000", "100930.290000", "100932.080000", "100930.487500", "100932.277500", "100930.687500", "100932.477500", "100930.885000", "100932.675000", "100931.285000", "100933.075000", "100931.482500", "100933.272500", "100931.682500", "100933.472500", "100931.880000", "100933.670000", "100931.085000", "100932.875000", "100930.290000", "100932.080000", "100930.487500", "100932.277500", "100930.687500", "100932.477500", "100930.885000", "100932.675000", "100931.285000", "100933.075000", "100931.482500", "100933.272500", "100931.682500", "100933.472500", "100931.880000", "100933.670000", "100931.085000", "100932.875000", "100930.290000", "100932.080000", "100930.487500", "100932.277500", "100930.687500", "100932.477500", "100930.885000", "100932.675000", "100931.285000", "100933.075000", "100931.482500", "100933.272500", "100931.682500", "100933.472500", "100931.880000", "100933.670000", "100931.085000", "100932.875000", "100930.290000", "100932.080000", "100930.487500", "100932.277500", "100930.687500", "100932.477500", "100930.885000", "100932.675000", "100931.285000", "100933.075000", "1009