{
  "AcquisitionMatrixPE": 80,
  "AcquisitionNumber": 1,
  "AcquisitionTime": "08:37:0.115000",
  "BandwidthPerPixelPhaseEncode": 44.643,
  "BaseResolution": 80,
  "BodyPartExamined": "BRAIN",
  "CoilCombinationMethod": "Sum of Squares",
  "ConsistencyInfo": "N4_VE11C_LATEST_20160120",
  "ConversionSoftware": "dcm2niix",
  "ConversionSoftwareVersion": "v1.0.20220720",
  "DerivedVendorReportedEchoSpacing": 0.000559998,
  "DeviceSerialNumber": "66112",
  "DwellTime": 2.7e-06,
  "EchoTime": 0.035,
  "EchoTrainLength": 39,
  "EffectiveEchoSpacing": 0.000279999,
  "FlipAngle": 90,
  "HeudiconvVersion": "0.13.1",
  "ImageOrientationPatientDICOM": [0.988193, 0.152783, 0.0114717, -0.148921, 0.940219, 0.306287],
  "ImageOrientationText": "Tra>Cor(17.7)>Sag(-2.1)",
  "ImageType": [
    "ORIGINAL",
    "PRIMARY",
    "M",
    "ND",
    "NORM",
    "MOSAIC"
],
  "ImagingFrequency": 123.253,
  "InPlanePhaseEncodingDirectionDICOM": "COL",
  "InstitutionAddress": "Maynard 3,Hanover,NH,US,03755",
  "InstitutionName": "Dartmouth College - PBS",
  "InstitutionalDepartmentName": "Department",
  "MRAcquisitionType": "2D",
  "MagneticFieldStrength": 3,
  "Manufacturer": "Siemens",
  "ManufacturersModelName": "Prisma",
  "Modality": "MR",
  "MultibandAccelerationFactor": 4,
  "NonlinearGradientCorrection": false,
  "ParallelReductionFactorInPlane": 2,
  "PartialFourier": 1,
  "PatientPosition": "HFS",
  "PercentPhaseFOV": 100,
  "PercentSampling": 100,
  "PhaseEncodingDirection": "j-",
  "PhaseEncodingSteps": 79,
  "PhaseResolution": 1,
  "PixelBandwidth": 2315,
  "ProcedureStepDescription": "dbic^QA",
  "ProtocolName": "func-bold_task-rest_acq-p2-s4-3.5mm",
  "PulseSequenceDetails": "%SiemensSeq%\\ep2d_bold",
  "ReceiveCoilActiveElements": "HEA;HEP",
  "ReceiveCoilName": "Head_32",
  "ReconMatrixPE": 80,
  "RefLinesPE": 24,
  "RepetitionTime": 2,
  "SAR": 0.0209428,
  "ScanOptions": "FS",
  "ScanningSequence": "EP",
  "SequenceName": "*epfid2d1_80",
  "SequenceVariant": "SK",
  "SeriesDescription": "func-bold_task-rest_acq-p2-s4-3.5mm",
  "SeriesNumber": 7,
  "ShimSetting": [4158, -7704, -7520, 264, 33, -239, -13, 107],
  "SliceThickness": 3.5,
  "SliceTiming": [1.485, 0, 0.99, 0.2475, 1.2375, 0.7425, 1.7325, 0.495, 1.485, 0, 0.99, 0.2475, 1.2375, 0.7425, 1.7325, 0.495, 1.485, 0, 0.99, 0.2475, 1.2375, 0.7425, 1.7325, 0.495, 1.485, 0, 0.99, 0.2475, 1.2375, 0.7425, 1.7325, 0.495],
  "SoftwareVersions": "syngo MR E11",
  "SpacingBetweenSlices": 3.99,
  "StationName": "AWP66112",
  "TaskName": "rest",
  "TotalReadoutTime": 0.0221199,
  "TxRefAmp": 230.651,
  "dcmmeta_affine": [
    [-2.9645798206329346, -0.4467628598213196, -0.14367762207984924, 140.80218505859375],
    [-0.4583478569984436, 2.820655584335327, 1.214472770690918, -104.89363861083984],
    [0.0344151072204113, -0.9188610315322876, 3.797961711883545, -21.687633514404297],
    [0.0, 0.0, 0.0, 1.0]
],
  "dcmmeta_reorient_transform": [
    [0.0, -1.0, 0.0, 79.0],
    [1.0, 0.0, 0.0, 0.0],
    [0.0, 0.0, 1.0, 0.0],
    [0.0, 0.0, 0.0, 1.0]
],
  "dcmmeta_shape": [80, 80, 32, 200],
  "dcmmeta_slice_dim": 2,
  "dcmmeta_version": 0.6,
  "global": {
    "const": {
      "AccessionNumber": "qa",
      "AcquisitionMatrix": [80, 0, 0, 80],
      "AngioFlag": "N",
      "BitsAllocated": 16,
      "BitsStored": 12,
      "BodyPartExamined": "BRAIN",
      "Columns": 480,
      "EchoNumbers": 1,
      "EchoTime": 35.0,
      "EchoTrainLength": 39,
      "FlipAngle": 90.0,
      "HighBit": 11,
      "ImageOrientationPatient": [0.98819323537228, 0.15278262210633, 0.01147170200032, -0.1489209544791, 0.94021849096473, 0.30628701990952],
      "ImagePositionPatient": [-609.07128407584, -773.73880891849, -284.93289003509],
      "ImageType": [
        "ORIGINAL",
        "PRIMARY",
        "M",
        "ND",
        "NORM",
        "MOSAIC"
],
      "ImagedNucleus": "1H",
      "ImagingFrequency": 123.252534,
      "InPlanePhaseEncodingDirection": "COL",
      "MRAcquisitionType": "2D",
      "MagneticFieldStrength": 3.0,
      "Manufacturer": "SIEMENS",
      "ManufacturerModelName": "Prisma",
      "Modality": "MR",
      "NumberOfAverages": 1.0,
      "NumberOfPhaseEncodingSteps": 79,
      "PercentPhaseFieldOfView": 100.0,
      "PercentSampling": 100.0,
      "PerformedProcedureStepStartTime": "082547.714000",
      "PhotometricInterpretation": "MONOCHROME2",
      "PixelBandwidth": 2315.0,
      "PixelRepresentation": 0,
      "PixelSpacing": [3.0, 3.0],
      "ProtocolName": "func-bold_task-rest_acq-p2-s4-3.5mm",
      "RepetitionTime": 2000.0,
      "Rows": 480,
      "SAR": 0.02094281073784,
      "SamplesPerPixel": 1,
      "ScanOptions": "FS",
      "ScanningSequence": "EP",
      "SequenceName": "*epfid2d1_80",
      "SequenceVariant": "SK",
      "SeriesDescription": "func-bold_task-rest_acq-p2-s4-3.5mm",
      "SeriesNumber": 7,
      "SeriesTime": "083744.367000",
      "SliceLocation": -57.641451353466,
      "SliceThickness": 3.5,
      "SmallestImagePixelValue": 0,
      "SoftwareVersions": "syngo MR E11",
      "SpacingBetweenSlices": 3.9900000624976,
      "SpecificCharacterSet": "ISO_IR 100",
      "StudyID": "70",
      "StudyTime": "082547.645000",
      "TransmitCoilName": "Body",
      "VariableFlipAngleFlag": "N",
      "WindowCenter": 924.0,
      "WindowCenterWidthExplanation": "Algo1",
      "dBdt": 0.0},
    "slices": {}
  },
  "time": {
    "samples": {
      "AcquisitionNumber": [1, 2, 3, 4, 5, 6, 7, 8, 9, 10, 11, 12, 13, 14, 15, 16, 17, 18, 19, 20, 21, 22, 23, 24, 25, 26, 27, 28, 29, 30, 31, 32, 33, 34, 35, 36, 37, 38, 39, 40, 41, 42, 43, 44, 45, 46, 47, 48, 49, 50, 51, 52, 53, 54, 55, 56, 57, 58, 59, 60, 61, 62, 63, 64, 65, 66, 67, 68, 69, 70, 71, 72, 73, 74, 75, 76, 77, 78, 79, 80, 81, 82, 83, 84, 85, 86, 87, 88, 89, 90, 91, 92, 93, 94, 95, 96, 97, 98, 99, 100, 101, 102, 103, 104, 105, 106, 107, 108, 109, 110, 111, 112, 113, 114, 115, 116, 117, 118, 119, 120, 121, 122, 123, 124, 125, 126, 127, 128, 129, 130, 131, 132, 133, 134, 135, 136, 137, 138, 139, 140, 141, 142, 143, 144, 145, 146, 147, 148, 149, 150, 151, 152, 153, 154, 155, 156, 157, 158, 159, 160, 161, 162, 163, 164, 165, 166, 167, 168, 169, 170, 171, 172, 173, 174, 175, 176, 177, 178, 179, 180, 181, 182, 183, 184, 185, 186, 187, 188, 189, 190, 191, 192, 193, 194, 195, 196, 197, 198, 199, 200],
      "AcquisitionTime": ["083700.115000", "083702.115000", "083704.115000", "083706.115000", "083708.115000", "083710.115000", "083712.115000", "083714.115000", "083716.115000", "083718.115000", "083720.115000", "083722.115000", "083724.115000", "083726.115000", "083728.115000", "083730.115000", "083732.115000", "083734.115000", "083736.115000", "083738.115000", "083740.115000", "083742.115000", "083744.115000", "083746.115000", "083748.115000", "083750.115000", "083752.115000", "083754.115000", "083756.115000", "083758.115000", "083800.115000", "083802.115000", "083804.115000", "083806.115000", "083808.115000", "083810.115000", "083812.115000", "083814.115000", "083816.115000", "083818.115000", "083820.115000", "083822.115000", "083824.115000", "083826.115000", "083828.115000", "083830.115000", "083832.115000", "083834.115000", "083836.115000", "083838.115000", "083840.115000", "083842.115000", "083844.115000", "083846.115000", "083848.115000", "083850.115000", "083852.115000", "083854.115000", "083856.115000", "083858.115000", "083900.115000", "083902.115000", "083904.115000", "083906.115000", "083908.115000", "083910.115000", "083912.115000", "083914.115000", "083916.115000", "083918.115000", "083920.115000", "083922.115000", "083924.115000", "083926.115000", "083928.115000", "083930.115000", "083932.115000", "083934.115000", "083936.115000", "083938.115000", "083940.115000", "083942.115000", "083944.115000", "083946.115000", "083948.115000", "083950.115000", "083952.115000", "083954.115000", "083956.115000", "083958.115000", "084000.115000", "084002.115000", "084004.115000", "084006.115000", "084008.115000", "084010.115000", "084012.115000", "084014.115000", "084016.115000", "084018.115000", "084020.115000", "084022.115000", "084024.115000", "084026.115000", "084028.115000", "084030.115000", "084032.115000", "084034.115000", "084036.115000", "084038.115000", "084040.115000", "084042.115000", "084044.115000", "084046.115000", "084048.115000", "084050.115000", "084052.115000", "084054.115000", "084056.115000", "084058.115000", "084100.115000", "084102.115000", "084104.115000", "084106.115000", "084108.115000", "084110.115000", "084112.115000", "084114.115000", "084116.115000", "084118.115000", "084120.115000", "084122.115000", "084124.115000", "084126.115000", "084128.115000", "084130.115000", "084132.115000", "084134.115000", "084136.115000", "084138.115000", "084140.115000", "084142.115000", "084144.115000", "084146.115000", "084148.115000", "084150.115000", "084152.115000", "084154.115000", "084156.115000", "084158.115000", "084200.115000", "084202.115000", "084204.115000", "084206.115000", "084208.115000", "084210.115000", "084212.115000", "084214.115000", "084216.115000", "084218.115000", "084220.115000", "084222.115000", "084224.115000", "084226.115000", "084228.115000", "084230.115000", "084232.115000", "084234.115000", "084236.115000", "084238.115000", "084240.115000", "084242.115000", "084244.115000", "084246.115000", "084248.115000", "084250.115000", "084252.115000", "084254.115000", "084256.115000", "084258.115000", "084300.115000", "084302.115000", "084304.115000", "084306.115000", "084308.115000", "084310.115000", "084312.115000", "084314.115000", "084316.115000", "084318.115000", "084320.115000", "084322.115000", "084324.115000", "084326.115000", "084328.115000", "084330.115000", "084332.115000", "084334.115000", "084336.115000", "084338.115000"],
      "ContentTime": ["083744.370000", "083744.374000", "083744.376000", "083744.379000", "083744.381000", "083744.384000", "083744.386000", "083744.389000", "083744.396000", "083744.399000", "083744.402000", "083744.404000", "083744.407000", "083744.409000", "083744.412000", "083744.419000", "083744.425000", "083744.428000", "083744.430000", "083744.433000", "083744.435000", "083744.438000", "083824.365000", "083824.368000", "083824.371000", "083824.373000", "083824.376000", "083824.379000", "083824.381000", "083824.384000", "083824.386000", "083824.389000", "083824.392000", "083824.394000", "083824.397000", "083824.399000", "083824.402000", "083824.405000", "083824.407000", "083824.410000", "083824.412000", "083824.415000", "083904.366000", "083904.372000", "083904.375000", "083904.377000", "083904.380000", "083904.383000", "083904.386000", "083904.388000", "083904.391000", "083904.394000", "083904.396000", "083904.399000", "083904.401000", "083904.404000", "083904.418000", "083904.421000", "083904.424000", "083904.426000", "083904.429000", "083904.431000", "083944.365000", "083944.368000", "083944.371000", "083944.374000", "083944.376000", "083944.379000", "083944.382000", "083944.384000", "083944.387000", "083944.390000", "083944.392000", "083944.395000", "083944.397000", "083944.400000", "083944.403000", "083944.405000", "083944.408000", "083944.411000", "083944.413000", "083944.416000", "084024.366000", "084024.369000", "084024.371000", "084024.383000", "084024.386000", "084024.388000", "084024.391000", "084024.393000", "084024.396000", "084024.398000", "084024.401000", "084024.404000", "084024.406000", "084024.409000", "084024.412000", "084024.414000", "084024.417000", "084024.420000", "084024.422000", "084024.425000", "084104.366000", "084104.369000", "084104.371000", "084104.374000", "084104.377000", "084104.379000", "084104.382000", "084104.385000", "084104.387000", "084104.398000", "084104.401000", "084104.403000", "084104.406000", "084104.409000", "084104.411000", "084104.414000", "084104.416000", "084104.419000", "084104.422000", "084104.424000", "084144.365000", "084144.368000", "084144.371000", "084144.374000", "084144.376000", "084144.379000", "084144.382000", "084144.384000", "084144.387000", "084144.389000", "084144.392000", "084144.395000", "084144.400000", "084144.402000", "084144.405000", "084144.408000", "084144.410000", "084144.413000", "084144.418000", "084144.421000", "084224.365000", "084224.368000", "084224.371000", "084224.373000", "084224.376000", "084224.379000", "084224.381000", "084224.384000", "084224.387000", "084224.389000", "084224.392000", "084224.394000", "084224.397000", "084224.400000", "084224.403000", "084224.405000", "084224.408000", "084224.411000", "084224.414000", "084224.416000", "084304.365000", "084304.369000", "084304.371000", "084304.374000", "084304.376000", "084304.379000", "084304.382000", "084304.384000", "084304.387000", "084304.390000", "084304.392000", "084304.395000", "084304.397000", "084304.400000", "084304.403000", "084304.405000", "084304.408000", "084304.411000", "084304.413000", "084304.416000", "084339.211000", "084339.214000", "084339.217000", "084339.220000", "084339.222000", "084339.225000", "084339.228000", "084339.230000", "084339.233000", "084339.236000", "084339.239000", "084339.241000", "084339.245000", "084339.249000", "084339.252000", "084339.255000", "084339.258000", "084339.262000"],
      "InstanceCreationTime": ["083744.370000", "083744.374000", "083744.376000", "083744.379000", "083744.381000", "083744.384000", "083744.386000", "083744.389000", "083744.396000", "083744.399000", "083744.402000", "083744.404000", "083744.407000", "083744.409000", "083744.412000", "083744.419000", "083744.425000", "083744.428000", "083744.430000", "083744.433000", "083744.435000", "083744.438000", "083824.365000", "083824.368000", "083824.371000", "083824.373000", "083824.376000", "083824.379000", "083824.381000", "083824.384000", "083824.386000", "083824.389000", "083824.392000", "083824.394000", "083824.397000", "083824.399000", "083824.402000", "083824.405000", "083824.407000", "083824.410000", "083824.412000", "083824.415000", "083904.366000", "083904.372000", "083904.375000", "083904.377000", "083904.380000", "083904.383000", "083904.386000", "083904.388000", "083904.391000", "083904.394000", "083904.396000", "083904.399000", "083904.401000", "083904.404000", "083904.418000", "083904.421000", "083904.424000", "083904.426000", "083904.429000", "083904.431000", "083944.365000", "083944.368000", "083944.371000", "083944.374000", "083944.376000", "083944.379000", "083944.382000", "083944.384000", "083944.387000", "083944.390000", "083944.392000", "083944.395000", "083944.397000", "083944.400000", "083944.403000", "083944.405000", "083944.408000", "083944.411000", "083944.413000", "083944.416000", "084024.366000", "084024.369000", "084024.371000", "084024.383000", "084024.386000", "084024.388000", "084024.391000", "084024.393000", "084024.396000", "084024.398000", "084024.401000", "084024.404000", "084024.406000", "084024.409000", "084024.412000", "084024.414000", "084024.417000", "084024.420000", "084024.422000", "084024.425000", "084104.366000", "084104.369000", "084104.371000", "084104.374000", "084104.377000", "084104.379000", "084104.382000", "084104.385000", "084104.387000", "084104.398000", "084104.401000", "084104.403000", "084104.406000", "084104.409000", "084104.411000", "084104.414000", "084104.416000", "084104.419000", "084104.422000", "084104.424000", "084144.365000", "084144.368000", "084144.371000", "084144.374000", "084144.376000", "084144.379000", "084144.382000", "084144.384000", "084144.387000", "084144.389000", "084144.392000", "084144.395000", "084144.400000", "084144.402000", "084144.405000", "084144.408000", "084144.410000", "084144.413000", "084144.418000", "084144.421000", "084224.365000", "084224.368000", "084224.371000", "084224.373000", "084224.376000", "084224.379000", "084224.381000", "084224.384000", "084224.387000", "084224.389000", "084224.392000", "084224.394000", "084224.397000", "084224.400000", "084224.403000", "084224.405000", "084224.408000", "084224.411000", "084224.414000", "084224.416000", "084304.365000", "084304.369000", "084304.371000", "084304.374000", "084304.376000", "084304.379000", "084304.382000", "084304.384000", "084304.387000", "084304.390000", "084304.392000", "084304.395000", "084304.397000", "084304.400000", "084304.403000", "084304.405000", "084304.408000", "084304.411000", "084304.413000", "084304.416000", "084339.211000", "084339.214000", "084339.217000", "084339.220000", "084339.222000", "084339.225000", "084339.228000", "084339.230000", "084339.233000", "084339.236000", "084339.239000", "084339.241000", "084339.245000", "084339.249000", "084339.252000", "084339.255000", "084339.258000", "084339.262000"],
      "InstanceNumber": [1, 2, 3, 4, 5, 6, 7, 8, 9, 10, 11, 12, 13, 14, 15, 16, 17, 18, 19, 20, 21, 22, 23, 24, 25, 26, 27, 28, 29, 30, 31, 32, 33, 34, 35, 36, 37, 38, 39, 40, 41, 42, 43, 44, 45, 46, 47, 48, 49, 50, 51, 52, 53, 54, 55, 56, 57, 58, 59, 60, 61, 62, 63, 64, 65, 66, 67, 68, 69, 70, 71, 72, 73, 74, 75, 76, 77, 78, 79, 80, 81, 82, 83, 84, 85, 86, 87, 88, 89, 90, 91, 92, 93, 94, 95, 96, 97, 98, 99, 100, 101, 102, 103, 104, 105, 106, 107, 108, 109, 110, 111, 112, 113, 114, 115, 116, 117, 118, 119, 120, 121, 122, 123, 124, 125, 126, 127, 128, 129, 130, 131, 132, 133, 134, 135, 136, 137, 138, 139, 140, 141, 142, 143, 144, 145, 146, 147, 148, 149, 150, 151, 152, 153, 154, 155, 156, 157, 158, 159, 160, 161, 162, 163, 164, 165, 166, 167, 168, 169, 170, 171, 172, 173, 174, 175, 176, 177, 178, 179, 180, 181, 182, 183, 184, 185, 186, 187, 188, 189, 190, 191, 192, 193, 194, 195, 196, 197, 198, 199, 200],
      "LargestImagePixelValue": [2074, 2074, 2076, 2077, 2076, 2080, 2076, 2076, 2078, 2077, 2074, 2074, 2076, 2074, 2080, 2076, 2077, 2071, 2077, 2081, 2075, 2075, 2079, 2078, 2076, 2076, 2082, 2075, 2082, 2080, 2076, 2081, 2076, 2074, 2074, 2072, 2078, 2078, 2073, 2074, 2078, 2078, 2076, 2076, 2075, 2073, 2076, 2071, 2074, 2071, 2079, 2075, 2075, 2075, 2079, 2076, 2075, 2075, 2080, 2074, 2073, 2078, 2077, 2082, 2080, 2078, 2077, 2075, 2074, 2076, 2077, 2073, 2076, 2075, 2073, 2080, 2078, 2075, 2074, 2075, 2073, 2078, 2076, 2076, 2070, 2079, 2077, 2077, 2070, 2077, 2069, 2079, 2078, 2080, 2073, 2070, 2073, 2078, 2072, 2071, 2074, 2079, 2073, 2076, 2077, 2069, 2079, 2076, 2074, 2081, 2074, 2075, 2078, 2073, 2075, 2076, 2079, 2076, 2077, 2073, 2074, 2078, 2076, 2076, 2078, 2077, 2072, 2075, 2074, 2076, 2080, 2080, 2074, 2074, 2071, 2079, 2076, 2073, 2076, 2078, 2077, 2072, 2080, 2076, 2076, 2072, 2076, 2078, 2071, 2073, 2074, 2079, 2076, 2074, 2079, 2074, 2075, 2077, 2072, 2076, 2079, 2077, 2076, 2074, 2078, 2075, 2077, 2073, 2079, 2075, 2072, 2075, 2077, 2074, 2075, 2075, 2075, 2075, 2074, 2073, 2071, 2076, 2070, 2074, 2073, 2076, 2074, 2071, 2075, 2069, 2073, 2072, 2072, 2074, 2075, 2075, 2071, 2072, 2073, 2073],
      "WindowWidth": [2106.0, 2106.0, 2106.0, 2106.0, 2106.0, 2106.0, 2106.0, 2106.0, 2106.0, 2106.0, 2106.0, 2106.0, 2106.0, 2106.0, 2106.0, 2106.0, 2106.0, 2106.0, 2106.0, 2106.0, 2106.0, 2107.0, 2106.0, 2106.0, 2106.0, 2106.0, 2107.0, 2106.0, 2106.0, 2106.0, 2106.0, 2106.0, 2106.0, 2106.0, 2106.0, 2106.0, 2106.0, 2106.0, 2106.0, 2106.0, 2106.0, 2106.0, 2107.0, 2107.0, 2106.0, 2106.0, 2106.0, 2106.0, 2106.0, 2106.0, 2106.0, 2106.0, 2106.0, 2106.0, 2106.0, 2106.0, 2107.0, 2106.0, 2106.0, 2107.0, 2106.0, 2106.0, 2106.0, 2107.0, 2106.0, 2106.0, 2106.0, 2106.0, 2107.0, 2106.0, 2106.0, 2107.0, 2106.0, 2106.0, 2106.0, 2107.0, 2106.0, 2106.0, 2106.0, 2106.0, 2106.0, 2107.0, 2107.0, 2106.0, 2107.0, 2106.0, 2107.0, 2106.0, 2106.0, 2106.0, 2106.0, 2106.0, 2106.0, 2106.0, 2106.0, 2106.0, 2106.0, 2106.0, 2106.0, 2106.0, 2107.0, 2106.0, 2106.0, 2106.0, 2106.0, 2106.0, 2106.0, 2106.0, 2106.0, 2106.0, 2107.0, 2106.0, 2106.0, 2106.0, 2106.0, 2106.0, 2106.0, 2106.0, 2106.0, 2106.0, 2106.0, 2106.0, 2106.0, 2106.0, 2106.0, 2106.0, 2106.0, 2107.0, 2106.0, 2106.0, 2106.0, 2106.0, 2106.0, 2106.0, 2106.0, 2106.0, 2106.0, 2106.0, 2106.0, 2106.0, 2106.0, 2106.0, 2106.0, 2106.0, 2106.0, 2106.0, 2106.0, 2106.0, 2106.0, 2106.0, 2106.0, 2106.0, 2106.0, 2106.0, 2106.0, 2106.0, 2106.0, 2106.0, 2106.0, 2106.0, 2106.0, 2106.0, 2106.0, 2106.0, 2106.0, 2106.0, 2106.0, 2106.0, 2106.0, 2106.0, 2106.0, 2106.0, 2106.0, 2106.0, 2106.0, 2106.0, 2106.0, 2106.0, 2106.0, 2106.0, 2106.0, 2106.0, 2106.0, 2106.0, 2106.0, 2106.0, 2106.0, 2106.0, 2106.0, 2106.0, 2106.0, 2106.0, 2106.0, 2106.0, 2106.0, 2106.0, 2106.0, 2106.0, 2106.0, 2106.0]
    },
    "slices": {}
  }
}