{
  "AcquisitionMatrixPE": 80,
  "AcquisitionNumber": 1,
  "AcquisitionTime": "08:30:6.197500",
  "BandwidthPerPixelPhaseEncode": 48.077,
  "BaseResolution": 80,
  "BodyPartExamined": "BRAIN",
  "CoilCombinationMethod": "Sum of Squares",
  "ConsistencyInfo": "N4_VE11C_LATEST_20160120",
  "ConversionSoftware": "dcm2niix",
  "ConversionSoftwareVersion": "v1.0.20220720",
  "DerivedVendorReportedEchoSpacing": 0.000519999,
  "DeviceSerialNumber": "66112",
  "DwellTime": 2.7e-06,
  "EchoTime": 0.035,
  "EchoTrainLength": 39,
  "EffectiveEchoSpacing": 0.00026,
  "FlipAngle": 90,
  "HeudiconvVersion": "0.13.1",
  "ImageOrientationPatientDICOM": [0.988193, 0.152783, 0.0114717, -0.148921, 0.940219, 0.306287],
  "ImageOrientationText": "Tra>Cor(17.7)>Sag(-2.1)",
  "ImageType": [
    "ORIGINAL",
    "PRIMARY",
    "M",
    "ND",
    "NORM",
    "MOSAIC"
],
  "ImagingFrequency": 123.253,
  "InPlanePhaseEncodingDirectionDICOM": "COL",
  "InstitutionAddress": "Maynard 3,Hanover,NH,US,03755",
  "InstitutionName": "Dartmouth College - PBS",
  "InstitutionalDepartmentName": "Department",
  "MRAcquisitionType": "2D",
  "MagneticFieldStrength": 3,
  "Manufacturer": "Siemens",
  "ManufacturersModelName": "Prisma",
  "MatrixCoilMode": "GRAPPA",
  "Modality": "MR",
  "NonlinearGradientCorrection": false,
  "ParallelReductionFactorInPlane": 2,
  "PartialFourier": 1,
  "PatientPosition": "HFS",
  "PercentPhaseFOV": 100,
  "PercentSampling": 100,
  "PhaseEncodingDirection": "j-",
  "PhaseEncodingSteps": 79,
  "PhaseResolution": 1,
  "PixelBandwidth": 2315,
  "ProcedureStepDescription": "dbic^QA",
  "ProtocolName": "func-bold_task-rest_acq-p2",
  "PulseSequenceDetails": "%SiemensSeq%\\ep2d_bold",
  "ReceiveCoilActiveElements": "HEA;HEP",
  "ReceiveCoilName": "Head_32",
  "ReconMatrixPE": 80,
  "RefLinesPE": 24,
  "RepetitionTime": 2,
  "SAR": 0.0556947,
  "ScanOptions": "FS",
  "ScanningSequence": "EP",
  "SequenceName": "*epfid2d1_80",
  "SequenceVariant": "SK",
  "SeriesDescription": "func-bold_task-rest_acq-p2",
  "SeriesNumber": 5,
  "ShimSetting": [4158, -7703, -7520, 263, 31, -233, -13, 111],
  "SliceThickness": 3.5,
  "SliceTiming": [0.99, 0, 1.0575, 0.0675, 1.1225, 0.1325, 1.19, 0.2, 1.255, 0.265, 1.32, 0.33, 1.3875, 0.3975, 1.4525, 0.4625, 1.52, 0.53, 1.585, 0.595, 1.65, 0.66, 1.7175, 0.7275, 1.7825, 0.7925, 1.85, 0.86, 1.915, 0.925],
  "SoftwareVersions": "syngo MR E11",
  "SpacingBetweenSlices": 3.99,
  "StationName": "AWP66112",
  "TaskName": "rest",
  "TotalReadoutTime": 0.02054,
  "TxRefAmp": 230.651,
  "dcmmeta_affine": [
    [-2.9645798206329346, -0.4467628598213196, -0.14367762207984924, 140.65850830078125],
    [-0.4583478569984436, 2.820655584335327, 1.214472770690918, -103.67916870117188],
    [0.0344151072204113, -0.9188610315322876, 3.797961711883545, -17.889671325683594],
    [0.0, 0.0, 0.0, 1.0]
],
  "dcmmeta_reorient_transform": [
    [0.0, -1.0, 0.0, 79.0],
    [1.0, 0.0, 0.0, 0.0],
    [0.0, 0.0, 1.0, 0.0],
    [0.0, 0.0, 0.0, 1.0]
],
  "dcmmeta_shape": [80, 80, 30, 200],
  "dcmmeta_slice_dim": 2,
  "dcmmeta_version": 0.6,
  "global": {
    "const": {
      "AccessionNumber": "qa",
      "AcquisitionMatrix": [80, 0, 0, 80],
      "AngioFlag": "N",
      "BitsAllocated": 16,
      "BitsStored": 12,
      "BodyPartExamined": "BRAIN",
      "Columns": 480,
      "EchoNumbers": 1,
      "EchoTime": 35.0,
      "EchoTrainLength": 39,
      "FlipAngle": 90.0,
      "HighBit": 11,
      "ImageOrientationPatient": [0.98819323537228, 0.15278262210633, 0.01147170200032, -0.1489209544791, 0.94021849096473, 0.30628701990952],
      "ImagePositionPatient": [-608.92760636435, -774.95328168918, -281.13492784637],
      "ImageType": [
        "ORIGINAL",
        "PRIMARY",
        "M",
        "ND",
        "NORM",
        "MOSAIC"
],
      "ImagedNucleus": "1H",
      "ImagingFrequency": 123.252536,
      "InPlanePhaseEncodingDirection": "COL",
      "MRAcquisitionType": "2D",
      "MagneticFieldStrength": 3.0,
      "Manufacturer": "SIEMENS",
      "ManufacturerModelName": "Prisma",
      "Modality": "MR",
      "NumberOfAverages": 1.0,
      "NumberOfPhaseEncodingSteps": 79,
      "PercentPhaseFieldOfView": 100.0,
      "PercentSampling": 100.0,
      "PerformedProcedureStepStartTime": "082547.714000",
      "PhotometricInterpretation": "MONOCHROME2",
      "PixelBandwidth": 2315.0,
      "PixelRepresentation": 0,
      "PixelSpacing": [3.0, 3.0],
      "ProtocolName": "func-bold_task-rest_acq-p2",
      "RepetitionTime": 2000.0,
      "Rows": 480,
      "SAR": 0.05569464941656,
      "SamplesPerPixel": 1,
      "ScanOptions": "FS",
      "ScanningSequence": "EP",
      "SequenceName": "*epfid2d1_80",
      "SequenceVariant": "SK",
      "SeriesDescription": "func-bold_task-rest_acq-p2",
      "SeriesNumber": 5,
      "SeriesTime": "083104.278000",
      "SliceLocation": -53.651450829345,
      "SliceThickness": 3.5,
      "SmallestImagePixelValue": 0,
      "SoftwareVersions": "syngo MR E11",
      "SpacingBetweenSlices": 3.990000020726,
      "SpecificCharacterSet": "ISO_IR 100",
      "StudyID": "70",
      "StudyTime": "082547.645000",
      "TransmitCoilName": "Body",
      "VariableFlipAngleFlag": "N",
      "WindowCenterWidthExplanation": "Algo1",
      "dBdt": 0.0},
    "slices": {}
  },
  "time": {
    "samples": {
      "AcquisitionNumber": [1, 2, 3, 4, 5, 6, 7, 8, 9, 10, 11, 12, 13, 14, 15, 16, 17, 18, 19, 20, 21, 22, 23, 24, 25, 26, 27, 28, 29, 30, 31, 32, 33, 34, 35, 36, 37, 38, 39, 40, 41, 42, 43, 44, 45, 46, 47, 48, 49, 50, 51, 52, 53, 54, 55, 56, 57, 58, 59, 60, 61, 62, 63, 64, 65, 66, 67, 68, 69, 70, 71, 72, 73, 74, 75, 76, 77, 78, 79, 80, 81, 82, 83, 84, 85, 86, 87, 88, 89, 90, 91, 92, 93, 94, 95, 96, 97, 98, 99, 100, 101, 102, 103, 104, 105, 106, 107, 108, 109, 110, 111, 112, 113, 114, 115, 116, 117, 118, 119, 120, 121, 122, 123, 124, 125, 126, 127, 128, 129, 130, 131, 132, 133, 134, 135, 136, 137, 138, 139, 140, 141, 142, 143, 144, 145, 146, 147, 148, 149, 150, 151, 152, 153, 154, 155, 156, 157, 158, 159, 160, 161, 162, 163, 164, 165, 166, 167, 168, 169, 170, 171, 172, 173, 174, 175, 176, 177, 178, 179, 180, 181, 182, 183, 184, 185, 186, 187, 188, 189, 190, 191, 192, 193, 194, 195, 196, 197, 198, 199, 200],
      "AcquisitionTime": ["083006.197500", "083008.197500", "083010.197500", "083012.197500", "083014.197500", "083016.197500", "083018.197500", "083020.197500", "083022.197500", "083024.197500", "083026.197500", "083028.197500", "083030.197500", "083032.197500", "083034.197500", "083036.197500", "083038.197500", "083040.197500", "083042.197500", "083044.197500", "083046.197500", "083048.197500", "083050.197500", "083052.197500", "083054.197500", "083056.197500", "083058.197500", "083100.197500", "083102.197500", "083104.197500", "083106.197500", "083108.197500", "083110.197500", "083112.197500", "083114.197500", "083116.197500", "083118.197500", "083120.197500", "083122.197500", "083124.197500", "083126.197500", "083128.197500", "083130.197500", "083132.197500", "083134.197500", "083136.197500", "083138.197500", "083140.197500", "083142.197500", "083144.197500", "083146.197500", "083148.197500", "083150.197500", "083152.197500", "083154.197500", "083156.197500", "083158.197500", "083200.197500", "083202.197500", "083204.197500", "083206.197500", "083208.197500", "083210.197500", "083212.197500", "083214.197500", "083216.197500", "083218.197500", "083220.197500", "083222.197500", "083224.197500", "083226.197500", "083228.197500", "083230.197500", "083232.197500", "083234.197500", "083236.197500", "083238.197500", "083240.197500", "083242.197500", "083244.197500", "083246.197500", "083248.197500", "083250.197500", "083252.197500", "083254.197500", "083256.197500", "083258.197500", "083300.197500", "083302.197500", "083304.197500", "083306.197500", "083308.197500", "083310.197500", "083312.197500", "083314.197500", "083316.197500", "083318.197500", "083320.197500", "083322.197500", "083324.197500", "083326.197500", "083328.197500", "083330.197500", "083332.197500", "083334.197500", "083336.197500", "083338.197500", "083340.197500", "083342.197500", "083344.197500", "083346.197500", "083348.197500", "083350.197500", "083352.197500", "083354.197500", "083356.197500", "083358.197500", "083400.197500", "083402.197500", "083404.197500", "083406.197500", "083408.197500", "083410.197500", "083412.197500", "083414.197500", "083416.197500", "083418.197500", "083420.197500", "083422.197500", "083424.197500", "083426.197500", "083428.197500", "083430.197500", "083432.197500", "083434.197500", "083436.197500", "083438.197500", "083440.197500", "083442.197500", "083444.197500", "083446.197500", "083448.197500", "083450.197500", "083452.197500", "083454.197500", "083456.197500", "083458.197500", "083500.197500", "083502.197500", "083504.197500", "083506.197500", "083508.197500", "083510.197500", "083512.197500", "083514.197500", "083516.197500", "083518.197500", "083520.197500", "083522.197500", "083524.197500", "083526.197500", "083528.197500", "083530.197500", "083532.197500", "083534.197500", "083536.197500", "083538.197500", "083540.197500", "083542.197500", "083544.197500", "083546.197500", "083548.197500", "083550.197500", "083552.197500", "083554.197500", "083556.197500", "083558.197500", "083600.197500", "083602.197500", "083604.197500", "083606.197500", "083608.197500", "083610.197500", "083612.197500", "083614.197500", "083616.197500", "083618.197500", "083620.197500", "083622.197500", "083624.197500", "083626.197500", "083628.197500", "083630.197500", "083632.197500", "083634.197500", "083636.197500", "083638.197500", "083640.197500", "083642.197500", "083644.197500"],
      "ContentTime": ["083104.282000", "083104.285000", "083104.288000", "083104.290000", "083104.293000", "083104.295000", "083104.298000", "083104.300000", "083104.303000", "083104.306000", "083104.308000", "083104.311000", "083104.313000", "083104.316000", "083104.319000", "083104.321000", "083104.324000", "083104.326000", "083104.329000", "083104.332000", "083104.341000", "083104.343000", "083104.346000", "083104.348000", "083104.351000", "083104.354000", "083104.356000", "083104.359000", "083104.362000", "083144.277000", "083144.279000", "083144.282000", "083144.284000", "083144.287000", "083144.290000", "083144.292000", "083144.295000", "083144.298000", "083144.300000", "083144.303000", "083144.305000", "083144.308000", "083144.310000", "083144.313000", "083144.315000", "083144.318000", "083144.321000", "083144.323000", "083144.326000", "083224.277000", "083224.279000", "083224.282000", "083224.285000", "083224.287000", "083224.290000", "083224.293000", "083224.295000", "083224.298000", "083224.300000", "083224.303000", "083224.305000", "083224.308000", "083224.311000", "083224.313000", "083224.316000", "083224.318000", "083224.321000", "083224.323000", "083224.326000", "083304.277000", "083304.280000", "083304.282000", "083304.285000", "083304.287000", "083304.290000", "083304.292000", "083304.295000", "083304.298000", "083304.300000", "083304.303000", "083304.306000", "083304.308000", "083304.311000", "083304.314000", "083304.316000", "083304.319000", "083304.322000", "083304.324000", "083304.327000", "083344.277000", "083344.280000", "083344.283000", "083344.285000", "083344.288000", "083344.291000", "083344.293000", "083344.296000", "083344.298000", "083344.301000", "083344.304000", "083344.306000", "083344.309000", "083344.312000", "083344.314000", "083344.317000", "083344.319000", "083344.322000", "083344.324000", "083344.327000", "083424.277000", "083424.280000", "083424.282000", "083424.285000", "083424.288000", "083424.290000", "083424.293000", "083424.295000", "083424.298000", "083424.301000", "083424.303000", "083424.306000", "083424.308000", "083424.311000", "083424.313000", "083424.316000", "083424.318000", "083424.321000", "083424.324000", "083424.326000", "083504.277000", "083504.279000", "083504.282000", "083504.285000", "083504.287000", "083504.290000", "083504.305000", "083504.307000", "083504.310000", "083504.313000", "083504.315000", "083504.318000", "083504.320000", "083504.323000", "083504.325000", "083504.328000", "083504.331000", "083504.333000", "083504.336000", "083504.339000", "083544.277000", "083544.279000", "083544.282000", "083544.285000", "083544.287000", "083544.290000", "083544.292000", "083544.295000", "083544.298000", "083544.300000", "083544.303000", "083544.305000", "083544.308000", "083544.311000", "083544.313000", "083544.316000", "083544.318000", "083544.321000", "083544.324000", "083544.326000", "083624.277000", "083624.279000", "083624.282000", "083624.285000", "083624.287000", "083624.290000", "083624.293000", "083624.295000", "083624.298000", "083624.300000", "083624.303000", "083624.305000", "083624.308000", "083624.311000", "083624.313000", "083624.316000", "083624.318000", "083624.321000", "083624.324000", "083624.326000", "083645.239000", "083645.241000", "083645.244000", "083645.247000", "083645.250000", "083645.252000", "083645.255000", "083645.258000", "083645.260000", "083645.263000", "083645.266000"],
      "InstanceCreationTime": ["083104.282000", "083104.285000", "083104.288000", "083104.290000", "083104.293000", "083104.295000", "083104.298000", "083104.300000", "083104.303000", "083104.306000", "083104.308000", "083104.311000", "083104.313000", "083104.316000", "083104.319000", "083104.321000", "083104.324000", "083104.326000", "083104.329000", "083104.332000", "083104.341000", "083104.343000", "083104.346000", "083104.348000", "083104.351000", "083104.354000", "083104.356000", "083104.359000", "083104.362000", "083144.277000", "083144.279000", "083144.282000", "083144.284000", "083144.287000", "083144.290000", "083144.292000", "083144.295000", "083144.298000", "083144.300000", "083144.303000", "083144.305000", "083144.308000", "083144.310000", "083144.313000", "083144.315000", "083144.318000", "083144.321000", "083144.323000", "083144.326000", "083224.277000", "083224.279000", "083224.282000", "083224.285000", "083224.287000", "083224.290000", "083224.293000", "083224.295000", "083224.298000", "083224.300000", "083224.303000", "083224.305000", "083224.308000", "083224.311000", "083224.313000", "083224.316000", "083224.318000", "083224.321000", "083224.323000", "083224.326000", "083304.277000", "083304.280000", "083304.282000", "083304.285000", "083304.287000", "083304.290000", "083304.292000", "083304.295000", "083304.298000", "083304.300000", "083304.303000", "083304.306000", "083304.308000", "083304.311000", "083304.314000", "083304.316000", "083304.319000", "083304.322000", "083304.324000", "083304.327000", "083344.277000", "083344.280000", "083344.283000", "083344.285000", "083344.288000", "083344.291000", "083344.293000", "083344.296000", "083344.298000", "083344.301000", "083344.304000", "083344.306000", "083344.309000", "083344.312000", "083344.314000", "083344.317000", "083344.319000", "083344.322000", "083344.324000", "083344.327000", "083424.277000", "083424.280000", "083424.282000", "083424.285000", "083424.288000", "083424.290000", "083424.293000", "083424.295000", "083424.298000", "083424.301000", "083424.303000", "083424.306000", "083424.308000", "083424.311000", "083424.313000", "083424.316000", "083424.318000", "083424.321000", "083424.324000", "083424.326000", "083504.277000", "083504.279000", "083504.282000", "083504.285000", "083504.287000", "083504.290000", "083504.305000", "083504.307000", "083504.310000", "083504.313000", "083504.315000", "083504.318000", "083504.320000", "083504.323000", "083504.325000", "083504.328000", "083504.331000", "083504.333000", "083504.336000", "083504.339000", "083544.277000", "083544.279000", "083544.282000", "083544.285000", "083544.287000", "083544.290000", "083544.292000", "083544.295000", "083544.298000", "083544.300000", "083544.303000", "083544.305000", "083544.308000", "083544.311000", "083544.313000", "083544.316000", "083544.318000", "083544.321000", "083544.324000", "083544.326000", "083624.277000", "083624.279000", "083624.282000", "083624.285000", "083624.287000", "083624.290000", "083624.293000", "083624.295000", "083624.298000", "083624.300000", "083624.303000", "083624.305000", "083624.308000", "083624.311000", "083624.313000", "083624.316000", "083624.318000", "083624.321000", "083624.324000", "083624.326000", "083645.239000", "083645.241000", "083645.244000", "083645.247000", "083645.250000", "083645.252000", "083645.255000", "083645.258000", "083645.260000", "083645.263000", "083645.266000"],
      "InstanceNumber": [1, 2, 3, 4, 5, 6, 7, 8, 9, 10, 11, 12, 13, 14, 15, 16, 17, 18, 19, 20, 21, 22, 23, 24, 25, 26, 27, 28, 29, 30, 31, 32, 33, 34, 35, 36, 37, 38, 39, 40, 41, 42, 43, 44, 45, 46, 47, 48, 49, 50, 51, 52, 53, 54, 55, 56, 57, 58, 59, 60, 61, 62, 63, 64, 65, 66, 67, 68, 69, 70, 71, 72, 73, 74, 75, 76, 77, 78, 79, 80, 81, 82, 83, 84, 85, 86, 87, 88, 89, 90, 91, 92, 93, 94, 95, 96, 97, 98, 99, 100, 101, 102, 103, 104, 105, 106, 107, 108, 109, 110, 111, 112, 113, 114, 115, 116, 117, 118, 119, 120, 121, 122, 123, 124, 125, 126, 127, 128, 129, 130, 131, 132, 133, 134, 135, 136, 137, 138, 139, 140, 141, 142, 143, 144, 145, 146, 147, 148, 149, 150, 151, 152, 153, 154, 155, 156, 157, 158, 159, 160, 161, 162, 163, 164, 165, 166, 167, 168, 169, 170, 171, 172, 173, 174, 175, 176, 177, 178, 179, 180, 181, 182, 183, 184, 185, 186, 187, 188, 189, 190, 191, 192, 193, 194, 195, 196, 197, 198, 199, 200],
      "LargestImagePixelValue": [2064, 2059, 2058, 2063, 2065, 2069, 2064, 2061, 2059, 2061, 2062, 2066, 2065, 2064, 2064, 2064, 2059, 2059, 2060, 2066, 2075, 2058, 2063, 2062, 2059, 2065, 2065, 2064, 2071, 2068, 2068, 2063, 2069, 2064, 2070, 2062, 2066, 2067, 2069, 2065, 2067, 2061, 2062, 2067, 2069, 2064, 2065, 2071, 2063, 2068, 2062, 2069, 2072, 2067, 2061, 2068, 2067, 2064, 2059, 2071, 2062, 2064, 2067, 2065, 2069, 2069, 2065, 2059, 2064, 2071, 2063, 2063, 2071, 2064, 2069, 2060, 2068, 2071, 2064, 2061, 2073, 2071, 2060, 2062, 2064, 2062, 2071, 2067, 2065, 2070, 2061, 2066, 2070, 2063, 2068, 2070, 2067, 2061, 2066, 2070, 2069, 2068, 2070, 2071, 2065, 2076, 2070, 2060, 2073, 2069, 2056, 2065, 2066, 2066, 2069, 2072, 2070, 2064, 2058, 2067, 2058, 2072, 2069, 2061, 2070, 2070, 2073, 2065, 2072, 2066, 2071, 2063, 2062, 2067, 2074, 2068, 2064, 2079, 2062, 2071, 2072, 2070, 2067, 2067, 2069, 2067, 2065, 2074, 2075, 2073, 2066, 2062, 2065, 2072, 2072, 2072, 2071, 2071, 2066, 2070, 2068, 2073, 2072, 2064, 2074, 2077, 2071, 2071, 2069, 2080, 2064, 2068, 2070, 2061, 2069, 2075, 2070, 2063, 2065, 2072, 2073, 2071, 2069, 2074, 2064, 2070, 2071, 2068, 2074, 2068, 2066, 2074, 2074, 2074, 2073, 2070, 2070, 2071, 2065, 2072],
      "WindowCenter": [992.0, 992.0, 992.0, 991.0, 992.0, 991.0, 991.0, 991.0, 991.0, 992.0, 991.0, 992.0, 991.0, 992.0, 991.0, 992.0, 991.0, 991.0, 991.0, 991.0, 992.0, 991.0, 992.0, 991.0, 992.0, 991.0, 991.0, 991.0, 991.0, 992.0, 992.0, 992.0, 992.0, 992.0, 991.0, 992.0, 991.0, 992.0, 992.0, 991.0, 993.0, 992.0, 992.0, 991.0, 992.0, 991.0, 992.0, 993.0, 991.0, 992.0, 991.0, 991.0, 991.0, 991.0, 992.0, 992.0, 991.0, 991.0, 992.0, 991.0, 992.0, 992.0, 991.0, 991.0, 991.0, 991.0, 991.0, 991.0, 992.0, 992.0, 992.0, 991.0, 991.0, 991.0, 991.0, 991.0, 992.0, 991.0, 992.0, 992.0, 992.0, 991.0, 991.0, 992.0, 991.0, 992.0, 991.0, 991.0, 991.0, 991.0, 991.0, 992.0, 991.0, 991.0, 991.0, 991.0, 991.0, 991.0, 991.0, 991.0, 991.0, 991.0, 991.0, 991.0, 992.0, 991.0, 991.0, 991.0, 991.0, 991.0, 992.0, 990.0, 991.0, 990.0, 991.0, 990.0, 990.0, 990.0, 991.0, 991.0, 991.0, 991.0, 990.0, 991.0, 990.0, 990.0, 990.0, 990.0, 991.0, 990.0, 990.0, 991.0, 990.0, 990.0, 990.0, 991.0, 991.0, 991.0, 991.0, 990.0, 991.0, 991.0, 990.0, 990.0, 990.0, 990.0, 990.0, 990.0, 990.0, 991.0, 991.0, 991.0, 991.0, 990.0, 990.0, 990.0, 991.0, 990.0, 990.0, 990.0, 991.0, 990.0, 991.0, 990.0, 990.0, 991.0, 991.0, 991.0, 991.0, 991.0, 991.0, 991.0, 991.0, 990.0, 991.0, 990.0, 990.0, 990.0, 990.0, 991.0, 990.0, 992.0, 990.0, 990.0, 991.0, 991.0, 990.0, 990.0, 991.0, 990.0, 992.0, 991.0, 990.0, 991.0, 991.0, 990.0, 991.0, 990.0, 990.0, 991.0],
      "WindowWidth": [2173.0, 2174.0, 2173.0, 2173.0, 2174.0, 2173.0, 2173.0, 2173.0, 2173.0, 2174.0, 2173.0, 2174.0, 2173.0, 2174.0, 2173.0, 2174.0, 2173.0, 2173.0, 2173.0, 2173.0, 2174.0, 2173.0, 2174.0, 2173.0, 2174.0, 2173.0, 2173.0, 2173.0, 2173.0, 2173.0, 2173.0, 2173.0, 2173.0, 2173.0, 2173.0, 2173.0, 2172.0, 2173.0, 2173.0, 2173.0, 2174.0, 2173.0, 2173.0, 2173.0, 2173.0, 2172.0, 2173.0, 2174.0, 2172.0, 2173.0, 2172.0, 2172.0, 2172.0, 2172.0, 2173.0, 2173.0, 2172.0, 2172.0, 2173.0, 2172.0, 2172.0, 2172.0, 2172.0, 2172.0, 2172.0, 2172.0, 2172.0, 2172.0, 2172.0, 2172.0, 2172.0, 2172.0, 2172.0, 2172.0, 2172.0, 2172.0, 2172.0, 2172.0, 2172.0, 2172.0, 2172.0, 2171.0, 2171.0, 2172.0, 2171.0, 2172.0, 2171.0, 2171.0, 2171.0, 2171.0, 2172.0, 2172.0, 2171.0, 2172.0, 2171.0, 2172.0, 2171.0, 2171.0, 2171.0, 2171.0, 2171.0, 2171.0, 2171.0, 2171.0, 2172.0, 2171.0, 2171.0, 2171.0, 2171.0, 2171.0, 2172.0, 2171.0, 2171.0, 2171.0, 2171.0, 2170.0, 2170.0, 2170.0, 2171.0, 2171.0, 2171.0, 2171.0, 2170.0, 2171.0, 2170.0, 2170.0, 2170.0, 2170.0, 2171.0, 2170.0, 2170.0, 2170.0, 2170.0, 2170.0, 2170.0, 2170.0, 2170.0, 2170.0, 2170.0, 2170.0, 2170.0, 2170.0, 2170.0, 2170.0, 2170.0, 2170.0, 2170.0, 2170.0, 2170.0, 2170.0, 2170.0, 2170.0, 2170.0, 2170.0, 2170.0, 2169.0, 2170.0, 2169.0, 2170.0, 2169.0, 2170.0, 2169.0, 2170.0, 2169.0, 2169.0, 2170.0, 2170.0, 2170.0, 2170.0, 2170.0, 2170.0, 2170.0, 2170.0, 2169.0, 2170.0, 2169.0, 2169.0, 2169.0, 2169.0, 2170.0, 2169.0, 2171.0, 2169.0, 2169.0, 2169.0, 2169.0, 2169.0, 2169.0, 2169.0, 2169.0, 2170.0, 2169.0, 2169.0, 2169.0, 2169.0, 2169.0, 2169.0, 2169.0, 2169.0, 2169.0]
    },
    "slices": {}
  }
}