{
  "AcquisitionMatrixPE": 80,
  "AcquisitionNumber": 1,
  "AcquisitionTime": "10:29:45.197500",
  "BandwidthPerPixelPhaseEncode": 48.077,
  "BaseResolution": 80,
  "BodyPartExamined": "BRAIN",
  "ConsistencyInfo": "N4_VE11C_LATEST_20160120",
  "ConversionSoftware": "dcm2niix",
  "ConversionSoftwareVersion": "v1.0.20170923 (OpenJPEG build) GCC6.3.0",
  "DerivedVendorReportedEchoSpacing": 0.000519999,
  "DeviceSerialNumber": "66112",
  "DwellTime": 2.7e-06,
  "EchoTime": 0.035,
  "EchoTrainLength": 39,
  "EffectiveEchoSpacing": 0.00026,
  "FlipAngle": 90,
  "ImageType": [
    "ORIGINAL",
    "PRIMARY",
    "M",
    "ND",
    "NORM",
    "MOSAIC"
],
  "InstitutionAddress": "Maynard_3_Hanover_NH_US_03755",
  "InstitutionName": "Dartmouth_College_-_PBS",
  "MagneticFieldStrength": 3,
  "Manufacturer": "Siemens",
  "ManufacturersModelName": "Prisma",
  "Modality": "MR",
  "ParallelReductionFactorInPlane": 2,
  "PartialFourier": 1,
  "PercentPhaseFOV": 100,
  "PhaseEncodingDirection": "j-",
  "PhaseEncodingSteps": 79,
  "PhaseResolution": 1,
  "ProcedureStepDescription": "dbic_QA",
  "ProtocolName": "func-bold_task-rest_acq-p2",
  "PulseSequenceDetails": "%SiemensSeq%_ep2d_bold",
  "ReceiveCoilActiveElements": "HEA;HEP",
  "ReceiveCoilName": "Head_32",
  "ReconMatrixPE": 80,
  "RepetitionTime": 2,
  "ScanOptions": "FS",
  "ScanningSequence": "EP",
  "SequenceName": "_epfid2d1_80",
  "SequenceVariant": "SK",
  "SeriesDescription": "func-bold_task-rest_acq-p2",
  "SliceTiming": [0.99, 0, 1.055, 0.065, 1.12, 0.13, 1.1875, 0.1975, 1.2525, 0.2625, 1.3175, 0.33, 1.385, 0.395, 1.45, 0.46, 1.5175, 0.5275, 1.5825, 0.5925, 1.6475, 0.66, 1.715, 0.725, 1.78, 0.79, 1.8475, 0.8575, 1.9125, 0.9225],
  "SoftwareVersions": "syngo_MR_E11",
  "StationName": "AWP66112",
  "TaskName": "rest",
  "TotalReadoutTime": 0.02054,
  "dcmmeta_affine": [
    [-2.9293222427368164, -0.6301316022872925, -0.19729304313659668, 154.9665985107422],
    [-0.6453357338905334, 2.7881979942321777, 1.1966261863708496, -95.64591979980469],
    [0.05111274868249893, -0.9104321002960205, 3.801218271255493, -20.99980926513672],
    [0.0, 0.0, 0.0, 1.0]
],
  "dcmmeta_reorient_transform": [
    [0.0, -1.0, 0.0, 79.0],
    [1.0, 0.0, 0.0, 0.0],
    [0.0, 0.0, 1.0, 0.0],
    [0.0, 0.0, 0.0, 1.0]
],
  "dcmmeta_shape": [80, 80, 30, 200],
  "dcmmeta_slice_dim": 2,
  "dcmmeta_version": 0.6,
  "global": {
    "const": {
      "AccessionNumber": "qa",
      "AcquisitionMatrix": [80, 0, 0, 80],
      "AngioFlag": "N",
      "BitsAllocated": 16,
      "BitsStored": 12,
      "BodyPartExamined": "BRAIN",
      "Columns": 480,
      "EchoNumbers": 1,
      "EchoTime": 35.0,
      "EchoTrainLength": 39,
      "FlipAngle": 90.0,
      "HighBit": 11,
      "ImageOrientationPatient": [0.97644077260329, 0.21511192058225, 0.01703758261352, -0.210043861311, 0.92939930583463, 0.30347735770508],
      "ImagePositionPatient": [-565.02434397863, -811.32845373243, -285.23290760312],
      "ImageType": [
        "ORIGINAL",
        "PRIMARY",
        "M",
        "ND",
        "NORM",
        "MOSAIC"
],
      "ImagedNucleus": "1H",
      "ImagingFrequency": 123.252491,
      "InPlanePhaseEncodingDirection": "COL",
      "MRAcquisitionType": "2D",
      "MagneticFieldStrength": 3.0,
      "Manufacturer": "SIEMENS",
      "ManufacturerModelName": "Prisma",
      "Modality": "MR",
      "NumberOfAverages": 1.0,
      "NumberOfPhaseEncodingSteps": 79,
      "PercentPhaseFieldOfView": 100.0,
      "PercentSampling": 100.0,
      "PerformedProcedureStepStartTime": "102522.669000",
      "PhotometricInterpretation": "MONOCHROME2",
      "PixelBandwidth": 2315.0,
      "PixelRepresentation": 0,
      "PixelSpacing": [3.0, 3.0],
      "PositionReferenceIndicator": "",
      "ProtocolName": "func-bold_task-rest_acq-p2",
      "RepetitionTime": 2000.0,
      "Rows": 480,
      "SAR": 0.05549522471193,
      "SamplesPerPixel": 1,
      "ScanOptions": "FS",
      "ScanningSequence": "EP",
      "SequenceName": "*epfid2d1_80",
      "SequenceVariant": "SK",
      "SeriesDescription": "func-bold_task-rest_acq-p2",
      "SeriesNumber": 5,
      "SeriesTime": "103029.845000",
      "SliceLocation": -56.353659478239,
      "SliceThickness": 3.5,
      "SmallestImagePixelValue": 0,
      "SoftwareVersions": "syngo MR E11",
      "SpacingBetweenSlices": 3.9899999607432,
      "SpecificCharacterSet": "ISO_IR 100",
      "StudyID": "9",
      "StudyTime": "102522.555000",
      "TransmitCoilName": "Body",
      "VariableFlipAngleFlag": "N",
      "WindowCenterWidthExplanation": "Algo1",
      "dBdt": 0.0},
    "slices": {}
  },
  "time": {
    "samples": {
      "AcquisitionNumber": [1, 2, 3, 4, 5, 6, 7, 8, 9, 10, 11, 12, 13, 14, 15, 16, 17, 18, 19, 20, 21, 22, 23, 24, 25, 26, 27, 28, 29, 30, 31, 32, 33, 34, 35, 36, 37, 38, 39, 40, 41, 42, 43, 44, 45, 46, 47, 48, 49, 50, 51, 52, 53, 54, 55, 56, 57, 58, 59, 60, 61, 62, 63, 64, 65, 66, 67, 68, 69, 70, 71, 72, 73, 74, 75, 76, 77, 78, 79, 80, 81, 82, 83, 84, 85, 86, 87, 88, 89, 90, 91, 92, 93, 94, 95, 96, 97, 98, 99, 100, 101, 102, 103, 104, 105, 106, 107, 108, 109, 110, 111, 112, 113, 114, 115, 116, 117, 118, 119, 120, 121, 122, 123, 124, 125, 126, 127, 128, 129, 130, 131, 132, 133, 134, 135, 136, 137, 138, 139, 140, 141, 142, 143, 144, 145, 146, 147, 148, 149, 150, 151, 152, 153, 154, 155, 156, 157, 158, 159, 160, 161, 162, 163, 164, 165, 166, 167, 168, 169, 170, 171, 172, 173, 174, 175, 176, 177, 178, 179, 180, 181, 182, 183, 184, 185, 186, 187, 188, 189, 190, 191, 192, 193, 194, 195, 196, 197, 198, 199, 200],
      "AcquisitionTime": ["102945.197500", "102947.197500", "102949.197500", "102951.197500", "102953.197500", "102955.197500", "102957.197500", "102959.197500", "103001.197500", "103003.197500", "103005.197500", "103007.197500", "103009.197500", "103011.197500", "103013.197500", "103015.197500", "103017.197500", "103019.197500", "103021.197500", "103023.197500", "103025.197500", "103027.197500", "103029.197500", "103031.197500", "103033.197500", "103035.197500", "103037.197500", "103039.197500", "103041.197500", "103043.197500", "103045.197500", "103047.197500", "103049.197500", "103051.197500", "103053.197500", "103055.197500", "103057.197500", "103059.197500", "103101.197500", "103103.197500", "103105.197500", "103107.197500", "103109.197500", "103111.197500", "103113.197500", "103115.197500", "103117.197500", "103119.197500", "103121.197500", "103123.197500", "103125.197500", "103127.197500", "103129.197500", "103131.197500", "103133.197500", "103135.197500", "103137.197500", "103139.197500", "103141.197500", "103143.197500", "103145.197500", "103147.197500", "103149.197500", "103151.197500", "103153.197500", "103155.197500", "103157.197500", "103159.197500", "103201.197500", "103203.197500", "103205.197500", "103207.197500", "103209.197500", "103211.197500", "103213.197500", "103215.197500", "103217.197500", "103219.197500", "103221.197500", "103223.197500", "103225.197500", "103227.197500", "103229.197500", "103231.197500", "103233.197500", "103235.197500", "103237.197500", "103239.197500", "103241.197500", "103243.197500", "103245.197500", "103247.197500", "103249.197500", "103251.197500", "103253.197500", "103255.197500", "103257.197500", "103259.197500", "103301.197500", "103303.197500", "103305.197500", "103307.197500", "103309.197500", "103311.197500", "103313.197500", "103315.197500", "103317.197500", "103319.197500", "103321.197500", "103323.197500", "103325.197500", "103327.197500", "103329.197500", "103331.197500", "103333.197500", "103335.197500", "103337.197500", "103339.197500", "103341.197500", "103343.197500", "103345.197500", "103347.197500", "103349.197500", "103351.197500", "103353.197500", "103355.197500", "103357.197500", "103359.197500", "103401.197500", "103403.197500", "103405.197500", "103407.197500", "103409.197500", "103411.197500", "103413.197500", "103415.197500", "103417.197500", "103419.197500", "103421.197500", "103423.197500", "103425.197500", "103427.197500", "103429.197500", "103431.197500", "103433.197500", "103435.197500", "103437.197500", "103439.197500", "103441.197500", "103443.197500", "103445.197500", "103447.197500", "103449.197500", "103451.197500", "103453.197500", "103455.197500", "103457.197500", "103459.197500", "103501.197500", "103503.197500", "103505.197500", "103507.197500", "103509.197500", "103511.197500", "103513.197500", "103515.197500", "103517.197500", "103519.197500", "103521.197500", "103523.197500", "103525.197500", "103527.197500", "103529.197500", "103531.197500", "103533.197500", "103535.197500", "103537.197500", "103539.197500", "103541.197500", "103543.197500", "103545.197500", "103547.197500", "103549.197500", "103551.197500", "103553.197500", "103555.197500", "103557.197500", "103559.197500", "103601.197500", "103603.197500", "103605.197500", "103607.197500", "103609.197500", "103611.197500", "103613.197500", "103615.197500", "103617.197500", "103619.197500", "103621.197500", "103623.197500"],
      "ContentTime": ["103029.850000", "103029.853000", "103029.856000", "103029.858000", "103029.861000", "103029.864000", "103029.866000", "103029.869000", "103029.871000", "103029.874000", "103029.877000", "103029.879000", "103029.882000", "103029.884000", "103029.887000", "103029.889000", "103029.892000", "103029.894000", "103029.904000", "103029.906000", "103029.909000", "103029.912000", "103109.842000", "103109.845000", "103109.847000", "103109.850000", "103109.860000", "103109.863000", "103109.865000", "103109.868000", "103109.870000", "103109.873000", "103109.875000", "103109.878000", "103109.880000", "103109.883000", "103109.885000", "103109.888000", "103109.890000", "103109.893000", "103109.896000", "103109.899000", "103149.842000", "103149.845000", "103149.848000", "103149.850000", "103149.852000", "103149.855000", "103149.858000", "103149.860000", "103149.863000", "103149.865000", "103149.868000", "103149.870000", "103149.872000", "103149.875000", "103149.877000", "103149.880000", "103149.882000", "103149.885000", "103149.887000", "103149.890000", "103229.843000", "103229.846000", "103229.849000", "103229.851000", "103229.854000", "103229.856000", "103229.859000", "103229.861000", "103229.864000", "103229.866000", "103229.869000", "103229.871000", "103229.874000", "103229.877000", "103229.879000", "103229.882000", "103229.884000", "103229.887000", "103229.889000", "103229.892000", "103309.842000", "103309.845000", "103309.848000", "103309.850000", "103309.853000", "103309.856000", "103309.858000", "103309.861000", "103309.863000", "103309.866000", "103309.868000", "103309.871000", "103309.873000", "103309.876000", "103309.879000", "103309.881000", "103309.884000", "103309.886000", "103309.889000", "103309.891000", "103349.842000", "103349.845000", "103349.847000", "103349.850000", "103349.852000", "103349.855000", "103349.857000", "103349.860000", "103349.874000", "103349.877000", "103349.879000", "103349.882000", "103349.884000", "103349.893000", "103349.896000", "103349.898000", "103349.901000", "103349.903000", "103349.906000", "103349.908000", "103429.842000", "103429.845000", "103429.848000", "103429.850000", "103429.853000", "103429.855000", "103429.858000", "103429.860000", "103429.863000", "103429.865000", "103429.868000", "103429.871000", "103429.873000", "103429.875000", "103429.878000", "103429.880000", "103429.883000", "103429.885000", "103429.888000", "103429.890000", "103509.843000", "103509.846000", "103509.848000", "103509.851000", "103509.854000", "103509.856000", "103509.859000", "103509.861000", "103509.863000", "103509.866000", "103509.868000", "103509.871000", "103509.873000", "103509.876000", "103509.879000", "103509.881000", "103509.884000", "103509.886000", "103509.889000", "103509.891000", "103549.842000", "103549.845000", "103549.847000", "103549.850000", "103549.852000", "103549.855000", "103549.857000", "103549.860000", "103549.862000", "103549.865000", "103549.867000", "103549.870000", "103549.872000", "103549.875000", "103549.877000", "103549.880000", "103549.882000", "103549.885000", "103549.888000", "103549.890000", "103624.251000", "103624.254000", "103624.256000", "103624.259000", "103624.261000", "103624.264000", "103624.266000", "103624.269000", "103624.271000", "103624.274000", "103624.277000", "103624.289000", "103624.292000", "103624.296000", "103624.299000", "103624.304000", "103624.307000", "103624.309000"],
      "InstanceCreationTime": ["103029.850000", "103029.853000", "103029.856000", "103029.858000", "103029.861000", "103029.864000", "103029.866000", "103029.869000", "103029.871000", "103029.874000", "103029.877000", "103029.879000", "103029.882000", "103029.884000", "103029.887000", "103029.889000", "103029.892000", "103029.894000", "103029.904000", "103029.906000", "103029.909000", "103029.912000", "103109.842000", "103109.845000", "103109.847000", "103109.850000", "103109.860000", "103109.863000", "103109.865000", "103109.868000", "103109.870000", "103109.873000", "103109.875000", "103109.878000", "103109.880000", "103109.883000", "103109.885000", "103109.888000", "103109.890000", "103109.893000", "103109.896000", "103109.899000", "103149.842000", "103149.845000", "103149.848000", "103149.850000", "103149.852000", "103149.855000", "103149.858000", "103149.860000", "103149.863000", "103149.865000", "103149.868000", "103149.870000", "103149.872000", "103149.875000", "103149.877000", "103149.880000", "103149.882000", "103149.885000", "103149.887000", "103149.890000", "103229.843000", "103229.846000", "103229.849000", "103229.851000", "103229.854000", "103229.856000", "103229.859000", "103229.861000", "103229.864000", "103229.866000", "103229.869000", "103229.871000", "103229.874000", "103229.877000", "103229.879000", "103229.882000", "103229.884000", "103229.887000", "103229.889000", "103229.892000", "103309.842000", "103309.845000", "103309.848000", "103309.850000", "103309.853000", "103309.856000", "103309.858000", "103309.861000", "103309.863000", "103309.866000", "103309.868000", "103309.871000", "103309.873000", "103309.876000", "103309.879000", "103309.881000", "103309.884000", "103309.886000", "103309.889000", "103309.891000", "103349.842000", "103349.845000", "103349.847000", "103349.850000", "103349.852000", "103349.855000", "103349.857000", "103349.860000", "103349.874000", "103349.877000", "103349.879000", "103349.882000", "103349.884000", "103349.893000", "103349.896000", "103349.898000", "103349.901000", "103349.903000", "103349.906000", "103349.908000", "103429.842000", "103429.845000", "103429.848000", "103429.850000", "103429.853000", "103429.855000", "103429.858000", "103429.860000", "103429.863000", "103429.865000", "103429.868000", "103429.871000", "103429.873000", "103429.875000", "103429.878000", "103429.880000", "103429.883000", "103429.885000", "103429.888000", "103429.890000", "103509.843000", "103509.846000", "103509.848000", "103509.851000", "103509.854000", "103509.856000", "103509.859000", "103509.861000", "103509.863000", "103509.866000", "103509.868000", "103509.871000", "103509.873000", "103509.876000", "103509.879000", "103509.881000", "103509.884000", "103509.886000", "103509.889000", "103509.891000", "103549.842000", "103549.845000", "103549.847000", "103549.850000", "103549.852000", "103549.855000", "103549.857000", "103549.860000", "103549.862000", "103549.865000", "103549.867000", "103549.870000", "103549.872000", "103549.875000", "103549.877000", "103549.880000", "103549.882000", "103549.885000", "103549.888000", "103549.890000", "103624.251000", "103624.254000", "103624.256000", "103624.259000", "103624.261000", "103624.264000", "103624.266000", "103624.269000", "103624.271000", "103624.274000", "103624.277000", "103624.289000", "103624.292000", "103624.296000", "103624.299000", "103624.304000", "103624.307000", "103624.309000"],
      "InstanceNumber": [1, 2, 3, 4, 5, 6, 7, 8, 9, 10, 11, 12, 13, 14, 15, 16, 17, 18, 19, 20, 21, 22, 23, 24, 25, 26, 27, 28, 29, 30, 31, 32, 33, 34, 35, 36, 37, 38, 39, 40, 41, 42, 43, 44, 45, 46, 47, 48, 49, 50, 51, 52, 53, 54, 55, 56, 57, 58, 59, 60, 61, 62, 63, 64, 65, 66, 67, 68, 69, 70, 71, 72, 73, 74, 75, 76, 77, 78, 79, 80, 81, 82, 83, 84, 85, 86, 87, 88, 89, 90, 91, 92, 93, 94, 95, 96, 97, 98, 99, 100, 101, 102, 103, 104, 105, 106, 107, 108, 109, 110, 111, 112, 113, 114, 115, 116, 117, 118, 119, 120, 121, 122, 123, 124, 125, 126, 127, 128, 129, 130, 131, 132, 133, 134, 135, 136, 137, 138, 139, 140, 141, 142, 143, 144, 145, 146, 147, 148, 149, 150, 151, 152, 153, 154, 155, 156, 157, 158, 159, 160, 161, 162, 163, 164, 165, 166, 167, 168, 169, 170, 171, 172, 173, 174, 175, 176, 177, 178, 179, 180, 181, 182, 183, 184, 185, 186, 187, 188, 189, 190, 191, 192, 193, 194, 195, 196, 197, 198, 199, 200],
      "LargestImagePixelValue": [2184, 2191, 2194, 2181, 2190, 2187, 2184, 2189, 2189, 2190, 2184, 2185, 2189, 2181, 2189, 2195, 2185, 2197, 2194, 2189, 2189, 2189, 2194, 2192, 2187, 2192, 2182, 2188, 2191, 2185, 2183, 2199, 2185, 2187, 2186, 2191, 2190, 2182, 2185, 2190, 2194, 2189, 2190, 2191, 2187, 2189, 2182, 2189, 2192, 2184, 2185, 2190, 2183, 2191, 2195, 2186, 2184, 2186, 2191, 2189, 2185, 2191, 2188, 2190, 2187, 2187, 2185, 2189, 2192, 2189, 2186, 2190, 2186, 2184, 2182, 2190, 2189, 2191, 2189, 2188, 2191, 2186, 2184, 2185, 2185, 2192, 2190, 2188, 2195, 2191, 2190, 2187, 2181, 2190, 2191, 2194, 2194, 2187, 2188, 2194, 2186, 2196, 2191, 2184, 2186, 2199, 2190, 2188, 2186, 2188, 2191, 2189, 2184, 2190, 2189, 2191, 2188, 2185, 2189, 2187, 2183, 2190, 2194, 2187, 2190, 2184, 2186, 2180, 2190, 2191, 2188, 2190, 2190, 2186, 2187, 2195, 2186, 2189, 2185, 2194, 2184, 2188, 2193, 2183, 2189, 2184, 2187, 2186, 2186, 2185, 2188, 2195, 2194, 2193, 2192, 2193, 2187, 2184, 2188, 2187, 2183, 2190, 2188, 2191, 2190, 2183, 2185, 2185, 2189, 2188, 2191, 2192, 2194, 2186, 2186, 2190, 2185, 2191, 2186, 2186, 2184, 2183, 2186, 2186, 2195, 2188, 2187, 2184, 2184, 2184, 2196, 2193, 2182, 2186, 2186, 2182, 2182, 2183, 2191, 2182],
      "WindowCenter": [991.0, 991.0, 991.0, 991.0, 991.0, 992.0, 991.0, 991.0, 991.0, 991.0, 991.0, 992.0, 991.0, 991.0, 991.0, 991.0, 991.0, 991.0, 991.0, 992.0, 991.0, 991.0, 992.0, 991.0, 991.0, 991.0, 991.0, 991.0, 991.0, 991.0, 991.0, 991.0, 991.0, 991.0, 991.0, 991.0, 991.0, 991.0, 992.0, 991.0, 991.0, 991.0, 991.0, 991.0, 991.0, 991.0, 991.0, 991.0, 991.0, 991.0, 991.0, 991.0, 991.0, 991.0, 991.0, 991.0, 991.0, 992.0, 991.0, 991.0, 991.0, 991.0, 991.0, 991.0, 991.0, 991.0, 991.0, 991.0, 991.0, 991.0, 991.0, 991.0, 991.0, 991.0, 991.0, 991.0, 992.0, 992.0, 991.0, 991.0, 991.0, 991.0, 991.0, 991.0, 992.0, 991.0, 992.0, 991.0, 991.0, 991.0, 991.0, 991.0, 991.0, 991.0, 991.0, 992.0, 991.0, 991.0, 991.0, 991.0, 991.0, 991.0, 991.0, 992.0, 991.0, 991.0, 991.0, 991.0, 991.0, 992.0, 991.0, 991.0, 991.0, 991.0, 991.0, 992.0, 991.0, 991.0, 991.0, 991.0, 991.0, 991.0, 991.0, 991.0, 991.0, 991.0, 991.0, 992.0, 991.0, 991.0, 991.0, 991.0, 991.0, 991.0, 992.0, 991.0, 991.0, 991.0, 991.0, 991.0, 991.0, 991.0, 991.0, 991.0, 991.0, 991.0, 991.0, 991.0, 991.0, 991.0, 991.0, 991.0, 991.0, 991.0, 991.0, 991.0, 991.0, 991.0, 991.0, 991.0, 991.0, 991.0, 991.0, 991.0, 991.0, 990.0, 991.0, 991.0, 991.0, 991.0, 991.0, 991.0, 991.0, 991.0, 991.0, 991.0, 991.0, 991.0, 991.0, 991.0, 991.0, 991.0, 991.0, 991.0, 991.0, 991.0, 990.0, 991.0, 990.0, 991.0, 990.0, 990.0, 990.0, 991.0, 991.0, 990.0, 991.0, 991.0, 990.0, 991.0],
      "WindowWidth": [2170.0, 2170.0, 2170.0, 2170.0, 2170.0, 2170.0, 2170.0, 2170.0, 2170.0, 2170.0, 2170.0, 2170.0, 2170.0, 2170.0, 2170.0, 2170.0, 2170.0, 2170.0, 2170.0, 2170.0, 2170.0, 2170.0, 2170.0, 2170.0, 2170.0, 2170.0, 2170.0, 2170.0, 2170.0, 2170.0, 2169.0, 2170.0, 2169.0, 2170.0, 2170.0, 2170.0, 2170.0, 2170.0, 2170.0, 2169.0, 2170.0, 2170.0, 2170.0, 2170.0, 2170.0, 2170.0, 2170.0, 2170.0, 2169.0, 2169.0, 2169.0, 2169.0, 2169.0, 2169.0, 2169.0, 2170.0, 2169.0, 2170.0, 2169.0, 2169.0, 2169.0, 2170.0, 2169.0, 2169.0, 2169.0, 2169.0, 2169.0, 2169.0, 2169.0, 2169.0, 2169.0, 2170.0, 2169.0, 2170.0, 2170.0, 2170.0, 2170.0, 2170.0, 2169.0, 2169.0, 2169.0, 2170.0, 2169.0, 2169.0, 2170.0, 2170.0, 2170.0, 2169.0, 2170.0, 2170.0, 2169.0, 2169.0, 2169.0, 2169.0, 2169.0, 2170.0, 2170.0, 2169.0, 2169.0, 2169.0, 2170.0, 2169.0, 2169.0, 2170.0, 2170.0, 2169.0, 2169.0, 2169.0, 2169.0, 2171.0, 2170.0, 2169.0, 2169.0, 2170.0, 2169.0, 2170.0, 2169.0, 2169.0, 2169.0, 2169.0, 2169.0, 2169.0, 2169.0, 2169.0, 2169.0, 2169.0, 2169.0, 2170.0, 2169.0, 2169.0, 2169.0, 2169.0, 2169.0, 2169.0, 2170.0, 2169.0, 2169.0, 2169.0, 2169.0, 2169.0, 2170.0, 2169.0, 2169.0, 2169.0, 2169.0, 2169.0, 2169.0, 2169.0, 2169.0, 2169.0, 2169.0, 2169.0, 2169.0, 2169.0, 2169.0, 2169.0, 2169.0, 2169.0, 2169.0, 2169.0, 2169.0, 2169.0, 2169.0, 2169.0, 2169.0, 2169.0, 2169.0, 2169.0, 2169.0, 2169.0, 2169.0, 2169.0, 2169.0, 2169.0, 2169.0, 2169.0, 2169.0, 2169.0, 2169.0, 2169.0, 2169.0, 2169.0, 2169.0, 2169.0, 2169.0, 2169.0, 2169.0, 2169.0, 2169.0, 2169.0, 2169.0, 2169.0, 2169.0, 2169.0, 2169.0, 2169.0, 2169.0, 2170.0, 2169.0, 2169.0]
    },
    "slices": {}
  }
}