{
  "AcquisitionMatrixPE": 80,
  "AcquisitionNumber": 1,
  "AcquisitionTime": "10:36:39.157500",
  "BandwidthPerPixelPhaseEncode": 44.643,
  "BaseResolution": 80,
  "BodyPartExamined": "BRAIN",
  "ConsistencyInfo": "N4_VE11C_LATEST_20160120",
  "ConversionSoftware": "dcm2niix",
  "ConversionSoftwareVersion": "v1.0.20170923 (OpenJPEG build) GCC6.3.0",
  "DerivedVendorReportedEchoSpacing": 0.000559998,
  "DeviceSerialNumber": "66112",
  "DwellTime": 2.7e-06,
  "EchoTime": 0.035,
  "EchoTrainLength": 39,
  "EffectiveEchoSpacing": 0.000279999,
  "FlipAngle": 90,
  "ImageType": [
    "ORIGINAL",
    "PRIMARY",
    "M",
    "ND",
    "NORM",
    "MOSAIC"
],
  "InstitutionAddress": "Maynard_3_Hanover_NH_US_03755",
  "InstitutionName": "Dartmouth_College_-_PBS",
  "MagneticFieldStrength": 3,
  "Manufacturer": "Siemens",
  "ManufacturersModelName": "Prisma",
  "Modality": "MR",
  "MultibandAccelerationFactor": 4,
  "ParallelReductionFactorInPlane": 2,
  "PartialFourier": 1,
  "PercentPhaseFOV": 100,
  "PhaseEncodingDirection": "j-",
  "PhaseEncodingSteps": 79,
  "PhaseResolution": 1,
  "ProcedureStepDescription": "dbic_QA",
  "ProtocolName": "func-bold_task-rest_acq-p2-s4-3.5mm",
  "PulseSequenceDetails": "%SiemensSeq%_ep2d_bold",
  "ReceiveCoilActiveElements": "HEA;HEP",
  "ReceiveCoilName": "Head_32",
  "ReconMatrixPE": 80,
  "RepetitionTime": 2,
  "ScanOptions": "FS",
  "ScanningSequence": "EP",
  "SequenceName": "_epfid2d1_80",
  "SequenceVariant": "SK",
  "SeriesDescription": "func-bold_task-rest_acq-p2-s4-3.5mm",
  "SliceTiming": [1.485, 0, 0.99, 0.2475, 1.2375, 0.7425, 1.7325, 0.495, 1.485, 0, 0.99, 0.2475, 1.2375, 0.7425, 1.7325, 0.495, 1.485, 0, 0.99, 0.2475, 1.2375, 0.7425, 1.7325, 0.495, 1.485, 0, 0.99, 0.2475, 1.2375, 0.7425, 1.7325, 0.495],
  "SoftwareVersions": "syngo_MR_E11",
  "StationName": "AWP66112",
  "TaskName": "rest",
  "TotalReadoutTime": 0.0221199,
  "dcmmeta_affine": [
    [-2.9293222427368164, -0.6301316022872925, -0.19729304313659668, 155.16387939453125],
    [-0.6453357338905334, 2.7881979942321777, 1.1966261863708496, -96.84254455566406],
    [0.05111274868249893, -0.9104321002960205, 3.801218271255493, -24.801025390625],
    [0.0, 0.0, 0.0, 1.0]
],
  "dcmmeta_reorient_transform": [
    [0.0, -1.0, 0.0, 79.0],
    [1.0, 0.0, 0.0, 0.0],
    [0.0, 0.0, 1.0, 0.0],
    [0.0, 0.0, 0.0, 1.0]
],
  "dcmmeta_shape": [80, 80, 32, 200],
  "dcmmeta_slice_dim": 2,
  "dcmmeta_version": 0.6,
  "global": {
    "const": {
      "AccessionNumber": "qa",
      "AcquisitionMatrix": [80, 0, 0, 80],
      "AngioFlag": "N",
      "BitsAllocated": 16,
      "BitsStored": 12,
      "BodyPartExamined": "BRAIN",
      "Columns": 480,
      "EchoNumbers": 1,
      "EchoTime": 35.0,
      "EchoTrainLength": 39,
      "FlipAngle": 90.0,
      "HighBit": 11,
      "ImageOrientationPatient": [0.97644077260329, 0.21511192058225, 0.01703758261352, -0.210043861311, 0.92939930583463, 0.30347735770508],
      "ImagePositionPatient": [-565.22163726018, -810.13182706923, -289.03412372861],
      "ImageType": [
        "ORIGINAL",
        "PRIMARY",
        "M",
        "ND",
        "NORM",
        "MOSAIC"
],
      "ImagedNucleus": "1H",
      "ImagingFrequency": 123.252489,
      "InPlanePhaseEncodingDirection": "COL",
      "MRAcquisitionType": "2D",
      "MagneticFieldStrength": 3.0,
      "Manufacturer": "SIEMENS",
      "ManufacturerModelName": "Prisma",
      "Modality": "MR",
      "NumberOfAverages": 1.0,
      "NumberOfPhaseEncodingSteps": 79,
      "PercentPhaseFieldOfView": 100.0,
      "PercentSampling": 100.0,
      "PerformedProcedureStepStartTime": "102522.669000",
      "PhotometricInterpretation": "MONOCHROME2",
      "PixelBandwidth": 2315.0,
      "PixelRepresentation": 0,
      "PixelSpacing": [3.0, 3.0],
      "PositionReferenceIndicator": "",
      "ProtocolName": "func-bold_task-rest_acq-p2-s4-3.5mm",
      "RepetitionTime": 2000.0,
      "Rows": 480,
      "SAR": 0.02086782220096,
      "SamplesPerPixel": 1,
      "ScanOptions": "FS",
      "ScanningSequence": "EP",
      "SequenceName": "*epfid2d1_80",
      "SequenceVariant": "SK",
      "SeriesDescription": "func-bold_task-rest_acq-p2-s4-3.5mm",
      "SeriesNumber": 7,
      "SeriesTime": "103729.925000",
      "SliceLocation": -60.343657478579,
      "SliceThickness": 3.5,
      "SmallestImagePixelValue": 0,
      "SoftwareVersions": "syngo MR E11",
      "SpacingBetweenSlices": 3.9899999514981,
      "SpecificCharacterSet": "ISO_IR 100",
      "StudyID": "9",
      "StudyTime": "102522.555000",
      "TransmitCoilName": "Body",
      "VariableFlipAngleFlag": "N",
      "WindowCenterWidthExplanation": "Algo1",
      "dBdt": 0.0},
    "slices": {}
  },
  "time": {
    "samples": {
      "AcquisitionNumber": [1, 2, 3, 4, 5, 6, 7, 8, 9, 10, 11, 12, 13, 14, 15, 16, 17, 18, 19, 20, 21, 22, 23, 24, 25, 26, 27, 28, 29, 30, 31, 32, 33, 34, 35, 36, 37, 38, 39, 40, 41, 42, 43, 44, 45, 46, 47, 48, 49, 50, 51, 52, 53, 54, 55, 56, 57, 58, 59, 60, 61, 62, 63, 64, 65, 66, 67, 68, 69, 70, 71, 72, 73, 74, 75, 76, 77, 78, 79, 80, 81, 82, 83, 84, 85, 86, 87, 88, 89, 90, 91, 92, 93, 94, 95, 96, 97, 98, 99, 100, 101, 102, 103, 104, 105, 106, 107, 108, 109, 110, 111, 112, 113, 114, 115, 116, 117, 118, 119, 120, 121, 122, 123, 124, 125, 126, 127, 128, 129, 130, 131, 132, 133, 134, 135, 136, 137, 138, 139, 140, 141, 142, 143, 144, 145, 146, 147, 148, 149, 150, 151, 152, 153, 154, 155, 156, 157, 158, 159, 160, 161, 162, 163, 164, 165, 166, 167, 168, 169, 170, 171, 172, 173, 174, 175, 176, 177, 178, 179, 180, 181, 182, 183, 184, 185, 186, 187, 188, 189, 190, 191, 192, 193, 194, 195, 196, 197, 198, 199, 200],
      "AcquisitionTime": ["103639.157500", "103641.157500", "103643.157500", "103645.157500", "103647.157500", "103649.157500", "103651.157500", "103653.157500", "103655.157500", "103657.157500", "103659.157500", "103701.157500", "103703.157500", "103705.157500", "103707.157500", "103709.157500", "103711.157500", "103713.157500", "103715.157500", "103717.157500", "103719.157500", "103721.157500", "103723.157500", "103725.157500", "103727.157500", "103729.157500", "103731.157500", "103733.157500", "103735.157500", "103737.157500", "103739.157500", "103741.157500", "103743.157500", "103745.157500", "103747.157500", "103749.157500", "103751.157500", "103753.157500", "103755.157500", "103757.157500", "103759.157500", "103801.157500", "103803.157500", "103805.157500", "103807.157500", "103809.157500", "103811.157500", "103813.157500", "103815.157500", "103817.157500", "103819.157500", "103821.157500", "103823.157500", "103825.157500", "103827.157500", "103829.157500", "103831.157500", "103833.157500", "103835.157500", "103837.157500", "103839.157500", "103841.157500", "103843.157500", "103845.157500", "103847.157500", "103849.157500", "103851.157500", "103853.157500", "103855.157500", "103857.157500", "103859.157500", "103901.157500", "103903.157500", "103905.157500", "103907.157500", "103909.157500", "103911.157500", "103913.157500", "103915.157500", "103917.157500", "103919.157500", "103921.157500", "103923.157500", "103925.157500", "103927.157500", "103929.157500", "103931.157500", "103933.157500", "103935.157500", "103937.157500", "103939.157500", "103941.157500", "103943.157500", "103945.157500", "103947.157500", "103949.157500", "103951.157500", "103953.157500", "103955.157500", "103957.157500", "103959.157500", "104001.157500", "104003.157500", "104005.157500", "104007.157500", "104009.157500", "104011.157500", "104013.157500", "104015.157500", "104017.157500", "104019.157500", "104021.157500", "104023.157500", "104025.157500", "104027.157500", "104029.157500", "104031.157500", "104033.157500", "104035.157500", "104037.157500", "104039.157500", "104041.157500", "104043.157500", "104045.157500", "104047.157500", "104049.157500", "104051.157500", "104053.157500", "104055.157500", "104057.157500", "104059.157500", "104101.157500", "104103.157500", "104105.157500", "104107.157500", "104109.157500", "104111.157500", "104113.157500", "104115.157500", "104117.157500", "104119.157500", "104121.157500", "104123.157500", "104125.157500", "104127.157500", "104129.157500", "104131.157500", "104133.157500", "104135.157500", "104137.157500", "104139.157500", "104141.157500", "104143.157500", "104145.157500", "104147.157500", "104149.157500", "104151.157500", "104153.157500", "104155.157500", "104157.157500", "104159.157500", "104201.157500", "104203.157500", "104205.157500", "104207.157500", "104209.157500", "104211.157500", "104213.157500", "104215.157500", "104217.157500", "104219.157500", "104221.157500", "104223.157500", "104225.157500", "104227.157500", "104229.157500", "104231.157500", "104233.157500", "104235.157500", "104237.157500", "104239.157500", "104241.157500", "104243.157500", "104245.157500", "104247.157500", "104249.157500", "104251.157500", "104253.157500", "104255.157500", "104257.157500", "104259.157500", "104301.157500", "104303.157500", "104305.157500", "104307.157500", "104309.157500", "104311.157500", "104313.157500", "104315.157500", "104317.157500"],
      "ContentTime": ["103729.929000", "103729.933000", "103729.936000", "103729.938000", "103729.947000", "103729.950000", "103729.952000", "103729.955000", "103729.957000", "103729.960000", "103729.962000", "103729.965000", "103729.967000", "103729.970000", "103729.972000", "103729.975000", "103729.977000", "103729.985000", "103729.988000", "103729.990000", "103729.993000", "103729.996000", "103729.998000", "103730.002000", "103730.004000", "103809.911000", "103809.914000", "103809.916000", "103809.919000", "103809.921000", "103809.924000", "103809.926000", "103809.929000", "103809.931000", "103809.934000", "103809.936000", "103809.947000", "103809.949000", "103809.952000", "103809.954000", "103809.957000", "103809.960000", "103809.962000", "103809.965000", "103809.967000", "103849.911000", "103849.914000", "103849.916000", "103849.919000", "103849.921000", "103849.924000", "103849.930000", "103849.933000", "103849.935000", "103849.938000", "103849.947000", "103849.950000", "103849.952000", "103849.954000", "103849.957000", "103849.959000", "103849.962000", "103849.965000", "103849.967000", "103849.970000", "103929.912000", "103929.915000", "103929.918000", "103929.920000", "103929.923000", "103929.925000", "103929.928000", "103929.930000", "103929.933000", "103929.935000", "103929.938000", "103929.940000", "103929.943000", "103929.945000", "103929.948000", "103929.950000", "103929.959000", "103929.961000", "103929.964000", "103929.966000", "104009.911000", "104009.914000", "104009.916000", "104009.919000", "104009.921000", "104009.924000", "104009.926000", "104009.929000", "104009.931000", "104009.934000", "104009.936000", "104009.939000", "104009.941000", "104009.944000", "104009.946000", "104009.949000", "104009.957000", "104009.959000", "104009.962000", "104009.964000", "104049.911000", "104049.914000", "104049.916000", "104049.919000", "104049.921000", "104049.924000", "104049.926000", "104049.929000", "104049.931000", "104049.934000", "104049.943000", "104049.946000", "104049.948000", "104049.951000", "104049.953000", "104049.956000", "104049.958000", "104049.961000", "104049.963000", "104049.966000", "104129.911000", "104129.914000", "104129.916000", "104129.919000", "104129.922000", "104129.924000", "104129.927000", "104129.929000", "104129.932000", "104129.934000", "104129.937000", "104129.939000", "104129.942000", "104129.944000", "104129.947000", "104129.949000", "104129.952000", "104129.954000", "104129.957000", "104129.959000", "104209.912000", "104209.915000", "104209.923000", "104209.926000", "104209.928000", "104209.931000", "104209.933000", "104209.936000", "104209.938000", "104209.941000", "104209.943000", "104209.946000", "104209.948000", "104209.951000", "104209.953000", "104209.956000", "104209.958000", "104209.961000", "104209.963000", "104209.966000", "104249.911000", "104249.914000", "104249.916000", "104249.919000", "104249.921000", "104249.924000", "104249.926000", "104249.929000", "104249.931000", "104249.934000", "104249.936000", "104249.939000", "104249.941000", "104249.944000", "104249.946000", "104249.949000", "104249.951000", "104249.954000", "104249.956000", "104249.959000", "104318.335000", "104318.337000", "104318.340000", "104318.343000", "104318.345000", "104318.348000", "104318.350000", "104318.353000", "104318.355000", "104318.358000", "104318.361000", "104318.363000", "104318.367000", "104318.370000", "104318.373000"],
      "InstanceCreationTime": ["103729.929000", "103729.933000", "103729.936000", "103729.938000", "103729.947000", "103729.950000", "103729.952000", "103729.955000", "103729.957000", "103729.960000", "103729.962000", "103729.965000", "103729.967000", "103729.970000", "103729.972000", "103729.975000", "103729.977000", "103729.985000", "103729.988000", "103729.990000", "103729.993000", "103729.996000", "103729.998000", "103730.002000", "103730.004000", "103809.911000", "103809.914000", "103809.916000", "103809.919000", "103809.921000", "103809.924000", "103809.926000", "103809.929000", "103809.931000", "103809.934000", "103809.936000", "103809.947000", "103809.949000", "103809.952000", "103809.954000", "103809.957000", "103809.960000", "103809.962000", "103809.965000", "103809.967000", "103849.911000", "103849.914000", "103849.916000", "103849.919000", "103849.921000", "103849.924000", "103849.930000", "103849.933000", "103849.935000", "103849.938000", "103849.947000", "103849.950000", "103849.952000", "103849.954000", "103849.957000", "103849.959000", "103849.962000", "103849.965000", "103849.967000", "103849.970000", "103929.912000", "103929.915000", "103929.918000", "103929.920000", "103929.923000", "103929.925000", "103929.928000", "103929.930000", "103929.933000", "103929.935000", "103929.938000", "103929.940000", "103929.943000", "103929.945000", "103929.948000", "103929.950000", "103929.959000", "103929.961000", "103929.964000", "103929.966000", "104009.911000", "104009.914000", "104009.916000", "104009.919000", "104009.921000", "104009.924000", "104009.926000", "104009.929000", "104009.931000", "104009.934000", "104009.936000", "104009.939000", "104009.941000", "104009.944000", "104009.946000", "104009.949000", "104009.957000", "104009.959000", "104009.962000", "104009.964000", "104049.911000", "104049.914000", "104049.916000", "104049.919000", "104049.921000", "104049.924000", "104049.926000", "104049.929000", "104049.931000", "104049.934000", "104049.943000", "104049.946000", "104049.948000", "104049.951000", "104049.953000", "104049.956000", "104049.958000", "104049.961000", "104049.963000", "104049.966000", "104129.911000", "104129.914000", "104129.916000", "104129.919000", "104129.922000", "104129.924000", "104129.927000", "104129.929000", "104129.932000", "104129.934000", "104129.937000", "104129.939000", "104129.942000", "104129.944000", "104129.947000", "104129.949000", "104129.952000", "104129.954000", "104129.957000", "104129.959000", "104209.912000", "104209.915000", "104209.923000", "104209.926000", "104209.928000", "104209.931000", "104209.933000", "104209.936000", "104209.938000", "104209.941000", "104209.943000", "104209.946000", "104209.948000", "104209.951000", "104209.953000", "104209.956000", "104209.958000", "104209.961000", "104209.963000", "104209.966000", "104249.911000", "104249.914000", "104249.916000", "104249.919000", "104249.921000", "104249.924000", "104249.926000", "104249.929000", "104249.931000", "104249.934000", "104249.936000", "104249.939000", "104249.941000", "104249.944000", "104249.946000", "104249.949000", "104249.951000", "104249.954000", "104249.956000", "104249.959000", "104318.335000", "104318.337000", "104318.340000", "104318.343000", "104318.345000", "104318.348000", "104318.350000", "104318.353000", "104318.355000", "104318.358000", "104318.361000", "104318.363000", "104318.367000", "104318.370000", "104318.373000"],
      "InstanceNumber": [1, 2, 3, 4, 5, 6, 7, 8, 9, 10, 11, 12, 13, 14, 15, 16, 17, 18, 19, 20, 21, 22, 23, 24, 25, 26, 27, 28, 29, 30, 31, 32, 33, 34, 35, 36, 37, 38, 39, 40, 41, 42, 43, 44, 45, 46, 47, 48, 49, 50, 51, 52, 53, 54, 55, 56, 57, 58, 59, 60, 61, 62, 63, 64, 65, 66, 67, 68, 69, 70, 71, 72, 73, 74, 75, 76, 77, 78, 79, 80, 81, 82, 83, 84, 85, 86, 87, 88, 89, 90, 91, 92, 93, 94, 95, 96, 97, 98, 99, 100, 101, 102, 103, 104, 105, 106, 107, 108, 109, 110, 111, 112, 113, 114, 115, 116, 117, 118, 119, 120, 121, 122, 123, 124, 125, 126, 127, 128, 129, 130, 131, 132, 133, 134, 135, 136, 137, 138, 139, 140, 141, 142, 143, 144, 145, 146, 147, 148, 149, 150, 151, 152, 153, 154, 155, 156, 157, 158, 159, 160, 161, 162, 163, 164, 165, 166, 167, 168, 169, 170, 171, 172, 173, 174, 175, 176, 177, 178, 179, 180, 181, 182, 183, 184, 185, 186, 187, 188, 189, 190, 191, 192, 193, 194, 195, 196, 197, 198, 199, 200],
      "LargestImagePixelValue": [2195, 2195, 2193, 2197, 2195, 2197, 2195, 2197, 2193, 2194, 2191, 2198, 2189, 2190, 2185, 2190, 2192, 2191, 2195, 2197, 2191, 2188, 2194, 2196, 2192, 2200, 2197, 2189, 2199, 2195, 2194, 2189, 2197, 2191, 2190, 2189, 2197, 2191, 2197, 2195, 2193, 2192, 2198, 2191, 2194, 2190, 2193, 2196, 2193, 2189, 2195, 2195, 2193, 2192, 2194, 2188, 2194, 2195, 2197, 2192, 2193, 2193, 2188, 2194, 2192, 2192, 2188, 2192, 2187, 2190, 2192, 2193, 2197, 2189, 2183, 2197, 2196, 2195, 2184, 2188, 2204, 2193, 2188, 2185, 2190, 2190, 2193, 2184, 2190, 2188, 2187, 2189, 2180, 2185, 2183, 2174, 2174, 2179, 2179, 2178, 2180, 2179, 2186, 2181, 2180, 2185, 2182, 2187, 2184, 2176, 2184, 2185, 2181, 2187, 2185, 2185, 2187, 2185, 2191, 2191, 2184, 2195, 2193, 2195, 2195, 2193, 2193, 2189, 2190, 2196, 2196, 2196, 2187, 2191, 2191, 2194, 2195, 2195, 2195, 2190, 2197, 2196, 2198, 2202, 2195, 2196, 2191, 2195, 2192, 2193, 2192, 2194, 2188, 2186, 2195, 2194, 2194, 2194, 2186, 2192, 2192, 2186, 2190, 2195, 2191, 2195, 2190, 2189, 2191, 2201, 2189, 2195, 2194, 2191, 2191, 2200, 2193, 2191, 2187, 2197, 2193, 2192, 2192, 2192, 2196, 2195, 2194, 2206, 2197, 2199, 2195, 2193, 2200, 2194, 2197, 2195, 2197, 2194, 2196, 2191],
      "WindowCenter": [925.0, 925.0, 925.0, 925.0, 925.0, 925.0, 925.0, 925.0, 925.0, 925.0, 925.0, 925.0, 925.0, 925.0, 925.0, 925.0, 925.0, 925.0, 925.0, 925.0, 925.0, 925.0, 925.0, 925.0, 925.0, 925.0, 925.0, 925.0, 925.0, 925.0, 925.0, 925.0, 925.0, 925.0, 925.0, 925.0, 925.0, 925.0, 925.0, 925.0, 925.0, 925.0, 925.0, 925.0, 925.0, 925.0, 925.0, 925.0, 925.0, 925.0, 925.0, 925.0, 925.0, 925.0, 925.0, 925.0, 925.0, 925.0, 925.0, 925.0, 925.0, 925.0, 925.0, 925.0, 925.0, 925.0, 925.0, 925.0, 925.0, 925.0, 925.0, 925.0, 925.0, 925.0, 925.0, 925.0, 925.0, 925.0, 925.0, 925.0, 925.0, 925.0, 925.0, 925.0, 925.0, 925.0, 925.0, 925.0, 925.0, 925.0, 925.0, 925.0, 925.0, 925.0, 925.0, 925.0, 925.0, 925.0, 925.0, 925.0, 925.0, 925.0, 925.0, 925.0, 925.0, 925.0, 925.0, 925.0, 925.0, 925.0, 925.0, 925.0, 925.0, 925.0, 925.0, 925.0, 925.0, 925.0, 925.0, 925.0, 925.0, 925.0, 925.0, 925.0, 925.0, 925.0, 925.0, 925.0, 925.0, 925.0, 925.0, 925.0, 925.0, 925.0, 925.0, 925.0, 925.0, 925.0, 926.0, 926.0, 925.0, 925.0, 925.0, 925.0, 925.0, 925.0, 926.0, 925.0, 925.0, 925.0, 925.0, 925.0, 925.0, 926.0, 926.0, 925.0, 926.0, 925.0, 925.0, 926.0, 926.0, 925.0, 926.0, 925.0, 925.0, 925.0, 925.0, 926.0, 925.0, 925.0, 925.0, 926.0, 925.0, 925.0, 925.0, 925.0, 925.0, 925.0, 925.0, 925.0, 925.0, 925.0, 925.0, 925.0, 925.0, 925.0, 925.0, 925.0, 925.0, 925.0, 926.0, 926.0, 926.0, 925.0, 925.0, 925.0, 926.0, 925.0, 925.0, 925.0],
      "WindowWidth": [2108.0, 2108.0, 2108.0, 2108.0, 2108.0, 2108.0, 2108.0, 2108.0, 2108.0, 2108.0, 2108.0, 2108.0, 2108.0, 2108.0, 2108.0, 2108.0, 2108.0, 2108.0, 2108.0, 2108.0, 2108.0, 2108.0, 2108.0, 2108.0, 2108.0, 2108.0, 2108.0, 2108.0, 2108.0, 2108.0, 2108.0, 2108.0, 2108.0, 2108.0, 2108.0, 2108.0, 2108.0, 2108.0, 2108.0, 2108.0, 2108.0, 2108.0, 2108.0, 2108.0, 2108.0, 2108.0, 2108.0, 2108.0, 2108.0, 2108.0, 2108.0, 2109.0, 2108.0, 2109.0, 2108.0, 2108.0, 2109.0, 2108.0, 2109.0, 2109.0, 2108.0, 2109.0, 2109.0, 2108.0, 2109.0, 2109.0, 2109.0, 2109.0, 2109.0, 2109.0, 2109.0, 2109.0, 2109.0, 2109.0, 2109.0, 2109.0, 2109.0, 2109.0, 2109.0, 2109.0, 2109.0, 2109.0, 2109.0, 2109.0, 2109.0, 2109.0, 2109.0, 2109.0, 2109.0, 2109.0, 2109.0, 2109.0, 2109.0, 2109.0, 2109.0, 2109.0, 2109.0, 2109.0, 2109.0, 2109.0, 2109.0, 2109.0, 2109.0, 2109.0, 2109.0, 2109.0, 2109.0, 2109.0, 2109.0, 2109.0, 2109.0, 2109.0, 2109.0, 2109.0, 2109.0, 2109.0, 2109.0, 2109.0, 2109.0, 2109.0, 2109.0, 2109.0, 2109.0, 2109.0, 2109.0, 2109.0, 2109.0, 2109.0, 2109.0, 2109.0, 2109.0, 2110.0, 2110.0, 2110.0, 2110.0, 2109.0, 2109.0, 2109.0, 2110.0, 2110.0, 2109.0, 2110.0, 2109.0, 2109.0, 2110.0, 2110.0, 2110.0, 2110.0, 2110.0, 2110.0, 2110.0, 2110.0, 2110.0, 2110.0, 2110.0, 2110.0, 2110.0, 2110.0, 2110.0, 2110.0, 2110.0, 2110.0, 2110.0, 2110.0, 2110.0, 2110.0, 2110.0, 2110.0, 2110.0, 2110.0, 2110.0, 2110.0, 2110.0, 2110.0, 2110.0, 2110.0, 2110.0, 2110.0, 2110.0, 2110.0, 2110.0, 2109.0, 2110.0, 2109.0, 2109.0, 2110.0, 2109.0, 2109.0, 2110.0, 2110.0, 2110.0, 2110.0, 2110.0, 2110.0, 2110.0, 2110.0, 2110.0, 2110.0, 2110.0, 2110.0]
    },
    "slices": {}
  }
}