{
  "AcquisitionMatrixPE": 80,
  "AcquisitionNumber": 1,
  "AcquisitionTime": "12:14:27.575000",
  "BandwidthPerPixelPhaseEncode": 25,
  "BaseResolution": 80,
  "BodyPartExamined": "BRAIN",
  "CoilCombinationMethod": "Sum of Squares",
  "ConsistencyInfo": "N4_VE11C_LATEST_20160120",
  "ConversionSoftware": "dcm2niix",
  "ConversionSoftwareVersion": "v1.0.20220720",
  "DerivedVendorReportedEchoSpacing": 0.0005,
  "DeviceSerialNumber": "66112",
  "DwellTime": 2.7e-06,
  "EchoTime": 0.03,
  "EchoTrainLength": 80,
  "EffectiveEchoSpacing": 0.0005,
  "FlipAngle": 77,
  "HeudiconvVersion": "0.13.1",
  "ImageOrientationPatientDICOM": [0.98501, 0.172179, 0.0104776, -0.166602, 0.933841, 0.316519],
  "ImageOrientationText": "Tra>Cor(18.3)>Sag(-2.6)",
  "ImageType": [
    "ORIGINAL",
    "PRIMARY",
    "M",
    "ND",
    "NORM",
    "MOSAIC"
],
  "ImagingFrequency": 123.252,
  "InPlanePhaseEncodingDirectionDICOM": "COL",
  "InstitutionAddress": "Maynard 3,Hanover,NH,US,03755",
  "InstitutionName": "Dartmouth College - PBS",
  "InstitutionalDepartmentName": "Department",
  "MRAcquisitionType": "2D",
  "MagneticFieldStrength": 3,
  "Manufacturer": "Siemens",
  "ManufacturersModelName": "Prisma",
  "MatrixCoilMode": "SENSE",
  "Modality": "MR",
  "NonlinearGradientCorrection": false,
  "PartialFourier": 1,
  "PatientPosition": "HFS",
  "PercentPhaseFOV": 100,
  "PercentSampling": 100,
  "PhaseEncodingDirection": "j-",
  "PhaseEncodingSteps": 80,
  "PhaseResolution": 1,
  "PixelBandwidth": 2315,
  "ProcedureStepDescription": "dbic^QA",
  "ProtocolName": "func-bold_fa-77",
  "PulseSequenceDetails": "%SiemensSeq%\\ep2d_bold",
  "ReceiveCoilActiveElements": "HC1-7;NC1,2",
  "ReceiveCoilName": "HeadNeck_64",
  "ReconMatrixPE": 80,
  "RepetitionTime": 2,
  "SAR": 0.0283279,
  "ScanOptions": "FS",
  "ScanningSequence": "EP",
  "SequenceName": "*epfid2d1_80",
  "SequenceVariant": "SK",
  "SeriesDescription": "func-bold_fa-77",
  "SeriesNumber": 7,
  "ShimSetting": [4140, -7699, -7505, 171, -80, -323, -57, 61],
  "SliceThickness": 3.5,
  "SliceTiming": [0.99, 0, 1.055, 0.065, 1.12, 0.13, 1.1875, 0.1975, 1.2525, 0.2625, 1.32, 0.33, 1.385, 0.395, 1.45, 0.46, 1.5175, 0.5275, 1.5825, 0.5925, 1.65, 0.66, 1.715, 0.725, 1.78, 0.79, 1.8475, 0.8575, 1.9125, 0.9225],
  "SoftwareVersions": "syngo MR E11",
  "SpacingBetweenSlices": 3.99,
  "StationName": "AWP66112",
  "TotalReadoutTime": 0.0395,
  "TxRefAmp": 214.32,
  "dcmmeta_affine": [
    [-2.9550297260284424, -0.4998059868812561, -0.17840741574764252, 140.56488037109375],
    [-0.5165382623672485, 2.8015241622924805, 1.2509434223175049, -91.40775299072266],
    [0.03143266960978508, -0.9495561718940735, 3.784628391265869, -21.74666404724121],
    [0.0, 0.0, 0.0, 1.0]
],
  "dcmmeta_reorient_transform": [
    [0.0, -1.0, 0.0, 79.0],
    [1.0, 0.0, 0.0, 0.0],
    [0.0, 0.0, 1.0, 0.0],
    [0.0, 0.0, 0.0, 1.0]
],
  "dcmmeta_shape": [80, 80, 30, 200],
  "dcmmeta_slice_dim": 2,
  "dcmmeta_version": 0.6,
  "global": {
    "const": {
      "AccessionNumber": "qa64",
      "AcquisitionMatrix": [80, 0, 0, 80],
      "AngioFlag": "N",
      "BitsAllocated": 16,
      "BitsStored": 12,
      "BodyPartExamined": "BRAIN",
      "Columns": 480,
      "EchoNumbers": 1,
      "EchoTime": 30.0,
      "EchoTrainLength": 80,
      "FlipAngle": 77.0,
      "HighBit": 11,
      "ImageOrientationPatient": [0.98500988138454, 0.17217942493475, 0.01047755715589, -0.1666019938056, 0.93384135291556, 0.31651872495136],
      "ImagePositionPatient": [-592.12494351455, -793.52511150524, -292.95937206741],
      "ImageType": [
        "ORIGINAL",
        "PRIMARY",
        "M",
        "ND",
        "NORM",
        "MOSAIC"
],
      "ImagedNucleus": "1H",
      "ImagingFrequency": 123.252298,
      "InPlanePhaseEncodingDirection": "COL",
      "MRAcquisitionType": "2D",
      "MagneticFieldStrength": 3.0,
      "Manufacturer": "SIEMENS",
      "ManufacturerModelName": "Prisma",
      "Modality": "MR",
      "NumberOfAverages": 1.0,
      "NumberOfPhaseEncodingSteps": 80,
      "PercentPhaseFieldOfView": 100.0,
      "PercentSampling": 100.0,
      "PerformedProcedureStepStartTime": "120602.655000",
      "PhotometricInterpretation": "MONOCHROME2",
      "PixelBandwidth": 2315.0,
      "PixelRepresentation": 0,
      "PixelSpacing": [3.0, 3.0],
      "ProtocolName": "func-bold_fa-77",
      "RepetitionTime": 2000.0,
      "Rows": 480,
      "SAR": 0.02832790676154,
      "SamplesPerPixel": 1,
      "ScanOptions": "FS",
      "ScanningSequence": "EP",
      "SequenceName": "*epfid2d1_80",
      "SequenceVariant": "SK",
      "SeriesDescription": "func-bold_fa-77",
      "SeriesNumber": 7,
      "SeriesTime": "121524.314000",
      "SliceLocation": -55.570624227924,
      "SliceThickness": 3.5,
      "SmallestImagePixelValue": 0,
      "SoftwareVersions": "syngo MR E11",
      "SpacingBetweenSlices": 3.9900000650703,
      "SpecificCharacterSet": "ISO_IR 100",
      "StudyID": "1",
      "StudyTime": "120602.567000",
      "TransmitCoilName": "Body",
      "VariableFlipAngleFlag": "N",
      "WindowCenterWidthExplanation": "Algo1",
      "dBdt": 0.0},
    "slices": {}
  },
  "time": {
    "samples": {
      "AcquisitionNumber": [1, 2, 3, 4, 5, 6, 7, 8, 9, 10, 11, 12, 13, 14, 15, 16, 17, 18, 19, 20, 21, 22, 23, 24, 25, 26, 27, 28, 29, 30, 31, 32, 33, 34, 35, 36, 37, 38, 39, 40, 41, 42, 43, 44, 45, 46, 47, 48, 49, 50, 51, 52, 53, 54, 55, 56, 57, 58, 59, 60, 61, 62, 63, 64, 65, 66, 67, 68, 69, 70, 71, 72, 73, 74, 75, 76, 77, 78, 79, 80, 81, 82, 83, 84, 85, 86, 87, 88, 89, 90, 91, 92, 93, 94, 95, 96, 97, 98, 99, 100, 101, 102, 103, 104, 105, 106, 107, 108, 109, 110, 111, 112, 113, 114, 115, 116, 117, 118, 119, 120, 121, 122, 123, 124, 125, 126, 127, 128, 129, 130, 131, 132, 133, 134, 135, 136, 137, 138, 139, 140, 141, 142, 143, 144, 145, 146, 147, 148, 149, 150, 151, 152, 153, 154, 155, 156, 157, 158, 159, 160, 161, 162, 163, 164, 165, 166, 167, 168, 169, 170, 171, 172, 173, 174, 175, 176, 177, 178, 179, 180, 181, 182, 183, 184, 185, 186, 187, 188, 189, 190, 191, 192, 193, 194, 195, 196, 197, 198, 199, 200],
      "AcquisitionTime": ["121427.575000", "121429.575000", "121431.575000", "121433.575000", "121435.575000", "121437.575000", "121439.575000", "121441.575000", "121443.575000", "121445.575000", "121447.575000", "121449.575000", "121451.575000", "121453.575000", "121455.575000", "121457.575000", "121459.575000", "121501.575000", "121503.575000", "121505.575000", "121507.575000", "121509.575000", "121511.575000", "121513.575000", "121515.575000", "121517.575000", "121519.575000", "121521.575000", "121523.575000", "121525.575000", "121527.575000", "121529.575000", "121531.575000", "121533.575000", "121535.575000", "121537.575000", "121539.575000", "121541.575000", "121543.575000", "121545.575000", "121547.575000", "121549.575000", "121551.575000", "121553.575000", "121555.575000", "121557.575000", "121559.575000", "121601.575000", "121603.575000", "121605.575000", "121607.575000", "121609.575000", "121611.575000", "121613.575000", "121615.575000", "121617.575000", "121619.575000", "121621.575000", "121623.575000", "121625.575000", "121627.575000", "121629.575000", "121631.575000", "121633.575000", "121635.575000", "121637.575000", "121639.575000", "121641.575000", "121643.575000", "121645.575000", "121647.575000", "121649.575000", "121651.575000", "121653.575000", "121655.575000", "121657.575000", "121659.575000", "121701.575000", "121703.575000", "121705.575000", "121707.575000", "121709.575000", "121711.575000", "121713.575000", "121715.575000", "121717.575000", "121719.575000", "121721.575000", "121723.575000", "121725.575000", "121727.575000", "121729.575000", "121731.575000", "121733.575000", "121735.575000", "121737.575000", "121739.575000", "121741.575000", "121743.575000", "121745.575000", "121747.575000", "121749.575000", "121751.575000", "121753.575000", "121755.575000", "121757.575000", "121759.575000", "121801.575000", "121803.575000", "121805.575000", "121807.575000", "121809.575000", "121811.575000", "121813.575000", "121815.575000", "121817.575000", "121819.575000", "121821.575000", "121823.575000", "121825.575000", "121827.575000", "121829.575000", "121831.575000", "121833.575000", "121835.575000", "121837.575000", "121839.575000", "121841.575000", "121843.575000", "121845.575000", "121847.575000", "121849.575000", "121851.575000", "121853.575000", "121855.575000", "121857.575000", "121859.575000", "121901.575000", "121903.575000", "121905.575000", "121907.575000", "121909.575000", "121911.575000", "121913.575000", "121915.575000", "121917.575000", "121919.575000", "121921.575000", "121923.575000", "121925.575000", "121927.575000", "121929.575000", "121931.575000", "121933.575000", "121935.575000", "121937.575000", "121939.575000", "121941.575000", "121943.575000", "121945.575000", "121947.575000", "121949.575000", "121951.575000", "121953.575000", "121955.575000", "121957.575000", "121959.575000", "122001.575000", "122003.575000", "122005.575000", "122007.575000", "122009.575000", "122011.575000", "122013.575000", "122015.575000", "122017.575000", "122019.575000", "122021.575000", "122023.575000", "122025.575000", "122027.575000", "122029.575000", "122031.575000", "122033.575000", "122035.575000", "122037.575000", "122039.575000", "122041.575000", "122043.575000", "122045.575000", "122047.575000", "122049.575000", "122051.575000", "122053.575000", "122055.575000", "122057.575000", "122059.575000", "122101.575000", "122103.575000", "122105.575000"],
      "ContentTime": ["121524.319000", "121524.322000", "121524.325000", "121524.327000", "121524.330000", "121524.332000", "121524.335000", "121524.337000", "121524.340000", "121524.342000", "121524.345000", "121524.357000", "121524.360000", "121524.362000", "121524.365000", "121524.367000", "121524.370000", "121524.372000", "121524.375000", "121524.377000", "121524.380000", "121524.382000", "121524.385000", "121524.387000", "121524.390000", "121524.392000", "121524.395000", "121524.397000", "121604.311000", "121604.314000", "121604.317000", "121604.319000", "121604.322000", "121604.324000", "121604.327000", "121604.329000", "121604.332000", "121604.335000", "121604.337000", "121604.346000", "121604.349000", "121604.351000", "121604.354000", "121604.356000", "121604.359000", "121604.361000", "121604.364000", "121604.366000", "121644.311000", "121644.314000", "121644.317000", "121644.319000", "121644.321000", "121644.324000", "121644.326000", "121644.329000", "121644.331000", "121644.334000", "121644.348000", "121644.350000", "121644.353000", "121644.355000", "121644.358000", "121644.360000", "121644.363000", "121644.365000", "121644.368000", "121644.370000", "121724.312000", "121724.315000", "121724.318000", "121724.320000", "121724.323000", "121724.325000", "121724.327000", "121724.330000", "121724.332000", "121724.335000", "121724.337000", "121724.340000", "121724.342000", "121724.345000", "121724.347000", "121724.350000", "121724.352000", "121724.355000", "121724.357000", "121724.360000", "121804.311000", "121804.314000", "121804.317000", "121804.319000", "121804.321000", "121804.324000", "121804.326000", "121804.329000", "121804.331000", "121804.334000", "121804.336000", "121804.339000", "121804.341000", "121804.344000", "121804.346000", "121804.349000", "121804.352000", "121804.354000", "121804.356000", "121804.359000", "121844.311000", "121844.314000", "121844.317000", "121844.319000", "121844.321000", "121844.324000", "121844.326000", "121844.329000", "121844.331000", "121844.334000", "121844.336000", "121844.339000", "121844.341000", "121844.344000", "121844.346000", "121844.349000", "121844.352000", "121844.354000", "121844.357000", "121844.359000", "121924.312000", "121924.315000", "121924.317000", "121924.320000", "121924.322000", "121924.325000", "121924.327000", "121924.330000", "121924.332000", "121924.335000", "121924.337000", "121924.340000", "121924.342000", "121924.345000", "121924.347000", "121924.350000", "121924.352000", "121924.355000", "121924.357000", "121924.360000", "122004.312000", "122004.315000", "122004.317000", "122004.320000", "122004.322000", "122004.325000", "122004.327000", "122004.330000", "122004.332000", "122004.335000", "122004.338000", "122004.340000", "122004.343000", "122004.345000", "122004.348000", "122004.350000", "122004.353000", "122004.355000", "122004.358000", "122004.360000", "122044.311000", "122044.314000", "122044.317000", "122044.319000", "122044.322000", "122044.324000", "122044.327000", "122044.329000", "122044.332000", "122044.334000", "122044.337000", "122044.339000", "122044.342000", "122044.344000", "122044.347000", "122044.349000", "122044.352000", "122044.354000", "122044.356000", "122044.359000", "122107.031000", "122107.034000", "122107.036000", "122107.039000", "122107.041000", "122107.044000", "122107.047000", "122107.049000", "122107.052000", "122107.054000", "122107.057000", "122107.063000"],
      "InstanceCreationTime": ["121524.319000", "121524.322000", "121524.325000", "121524.327000", "121524.330000", "121524.332000", "121524.335000", "121524.337000", "121524.340000", "121524.342000", "121524.345000", "121524.357000", "121524.360000", "121524.362000", "121524.365000", "121524.367000", "121524.370000", "121524.372000", "121524.375000", "121524.377000", "121524.380000", "121524.382000", "121524.385000", "121524.387000", "121524.390000", "121524.392000", "121524.395000", "121524.397000", "121604.311000", "121604.314000", "121604.317000", "121604.319000", "121604.322000", "121604.324000", "121604.327000", "121604.329000", "121604.332000", "121604.335000", "121604.337000", "121604.346000", "121604.349000", "121604.351000", "121604.354000", "121604.356000", "121604.359000", "121604.361000", "121604.364000", "121604.366000", "121644.311000", "121644.314000", "121644.317000", "121644.319000", "121644.321000", "121644.324000", "121644.326000", "121644.329000", "121644.331000", "121644.334000", "121644.348000", "121644.350000", "121644.353000", "121644.355000", "121644.358000", "121644.360000", "121644.363000", "121644.365000", "121644.368000", "121644.370000", "121724.312000", "121724.315000", "121724.318000", "121724.320000", "121724.323000", "121724.325000", "121724.327000", "121724.330000", "121724.332000", "121724.335000", "121724.337000", "121724.340000", "121724.342000", "121724.345000", "121724.347000", "121724.350000", "121724.352000", "121724.355000", "121724.357000", "121724.360000", "121804.311000", "121804.314000", "121804.317000", "121804.319000", "121804.321000", "121804.324000", "121804.326000", "121804.329000", "121804.331000", "121804.334000", "121804.336000", "121804.339000", "121804.341000", "121804.344000", "121804.346000", "121804.349000", "121804.352000", "121804.354000", "121804.356000", "121804.359000", "121844.311000", "121844.314000", "121844.317000", "121844.319000", "121844.321000", "121844.324000", "121844.326000", "121844.329000", "121844.331000", "121844.334000", "121844.336000", "121844.339000", "121844.341000", "121844.344000", "121844.346000", "121844.349000", "121844.352000", "121844.354000", "121844.357000", "121844.359000", "121924.312000", "121924.315000", "121924.317000", "121924.320000", "121924.322000", "121924.325000", "121924.327000", "121924.330000", "121924.332000", "121924.335000", "121924.337000", "121924.340000", "121924.342000", "121924.345000", "121924.347000", "121924.350000", "121924.352000", "121924.355000", "121924.357000", "121924.360000", "122004.312000", "122004.315000", "122004.317000", "122004.320000", "122004.322000", "122004.325000", "122004.327000", "122004.330000", "122004.332000", "122004.335000", "122004.338000", "122004.340000", "122004.343000", "122004.345000", "122004.348000", "122004.350000", "122004.353000", "122004.355000", "122004.358000", "122004.360000", "122044.311000", "122044.314000", "122044.317000", "122044.319000", "122044.322000", "122044.324000", "122044.327000", "122044.329000", "122044.332000", "122044.334000", "122044.337000", "122044.339000", "122044.342000", "122044.344000", "122044.347000", "122044.349000", "122044.352000", "122044.354000", "122044.356000", "122044.359000", "122107.031000", "122107.034000", "122107.036000", "122107.039000", "122107.041000", "122107.044000", "122107.047000", "122107.049000", "122107.052000", "122107.054000", "122107.057000", "122107.063000"],
      "InstanceNumber": [1, 2, 3, 4, 5, 6, 7, 8, 9, 10, 11, 12, 13, 14, 15, 16, 17, 18, 19, 20, 21, 22, 23, 24, 25, 26, 27, 28, 29, 30, 31, 32, 33, 34, 35, 36, 37, 38, 39, 40, 41, 42, 43, 44, 45, 46, 47, 48, 49, 50, 51, 52, 53, 54, 55, 56, 57, 58, 59, 60, 61, 62, 63, 64, 65, 66, 67, 68, 69, 70, 71, 72, 73, 74, 75, 76, 77, 78, 79, 80, 81, 82, 83, 84, 85, 86, 87, 88, 89, 90, 91, 92, 93, 94, 95, 96, 97, 98, 99, 100, 101, 102, 103, 104, 105, 106, 107, 108, 109, 110, 111, 112, 113, 114, 115, 116, 117, 118, 119, 120, 121, 122, 123, 124, 125, 126, 127, 128, 129, 130, 131, 132, 133, 134, 135, 136, 137, 138, 139, 140, 141, 142, 143, 144, 145, 146, 147, 148, 149, 150, 151, 152, 153, 154, 155, 156, 157, 158, 159, 160, 161, 162, 163, 164, 165, 166, 167, 168, 169, 170, 171, 172, 173, 174, 175, 176, 177, 178, 179, 180, 181, 182, 183, 184, 185, 186, 187, 188, 189, 190, 191, 192, 193, 194, 195, 196, 197, 198, 199, 200],
      "LargestImagePixelValue": [3756, 3755, 3755, 3758, 3754, 3759, 3758, 3758, 3761, 3756, 3757, 3755, 3754, 3753, 3755, 3755, 3757, 3753, 3755, 3756, 3756, 3755, 3759, 3762, 3754, 3760, 3757, 3759, 3759, 3758, 3762, 3758, 3757, 3756, 3759, 3758, 3756, 3757, 3758, 3754, 3764, 3758, 3755, 3757, 3753, 3757, 3752, 3759, 3752, 3753, 3757, 3756, 3757, 3755, 3756, 3760, 3757, 3757, 3758, 3757, 3757, 3761, 3759, 3754, 3759, 3757, 3759, 3760, 3762, 3758, 3756, 3758, 3763, 3760, 3760, 3759, 3763, 3761, 3758, 3760, 3760, 3759, 3759, 3756, 3760, 3761, 3758, 3758, 3759, 3756, 3759, 3758, 3759, 3758, 3762, 3762, 3758, 3760, 3758, 3756, 3758, 3760, 3762, 3760, 3758, 3759, 3767, 3761, 3760, 3763, 3757, 3759, 3757, 3759, 3761, 3763, 3763, 3760, 3763, 3758, 3763, 3763, 3759, 3758, 3761, 3763, 3765, 3761, 3762, 3761, 3763, 3758, 3761, 3759, 3757, 3759, 3759, 3757, 3759, 3758, 3759, 3758, 3759, 3762, 3763, 3762, 3763, 3760, 3759, 3757, 3761, 3761, 3759, 3762, 3760, 3759, 3759, 3759, 3759, 3759, 3764, 3757, 3765, 3763, 3761, 3760, 3758, 3757, 3762, 3761, 3762, 3766, 3760, 3761, 3758, 3763, 3762, 3761, 3758, 3762, 3764, 3762, 3759, 3760, 3759, 3760, 3759, 3759, 3755, 3762, 3759, 3758, 3757, 3759, 3760, 3755, 3759, 3766, 3759, 3762],
      "WindowCenter": [1355.0, 1355.0, 1355.0, 1355.0, 1355.0, 1355.0, 1355.0, 1355.0, 1356.0, 1355.0, 1355.0, 1356.0, 1355.0, 1355.0, 1355.0, 1355.0, 1355.0, 1355.0, 1355.0, 1355.0, 1355.0, 1355.0, 1355.0, 1355.0, 1354.0, 1355.0, 1355.0, 1354.0, 1354.0, 1354.0, 1355.0, 1355.0, 1355.0, 1354.0, 1354.0, 1354.0, 1355.0, 1355.0, 1354.0, 1355.0, 1355.0, 1355.0, 1354.0, 1355.0, 1354.0, 1354.0, 1354.0, 1354.0, 1355.0, 1355.0, 1354.0, 1354.0, 1354.0, 1355.0, 1355.0, 1355.0, 1355.0, 1354.0, 1354.0, 1355.0, 1354.0, 1355.0, 1354.0, 1354.0, 1355.0, 1354.0, 1354.0, 1354.0, 1354.0, 1354.0, 1355.0, 1355.0, 1355.0, 1355.0, 1355.0, 1355.0, 1355.0, 1355.0, 1354.0, 1355.0, 1355.0, 1354.0, 1355.0, 1355.0, 1354.0, 1354.0, 1354.0, 1354.0, 1355.0, 1354.0, 1355.0, 1354.0, 1354.0, 1354.0, 1354.0, 1355.0, 1354.0, 1355.0, 1355.0, 1354.0, 1355.0, 1354.0, 1355.0, 1354.0, 1354.0, 1354.0, 1354.0, 1354.0, 1355.0, 1354.0, 1354.0, 1354.0, 1354.0, 1354.0, 1354.0, 1354.0, 1354.0, 1354.0, 1354.0, 1354.0, 1354.0, 1354.0, 1354.0, 1354.0, 1354.0, 1354.0, 1353.0, 1354.0, 1354.0, 1354.0, 1354.0, 1354.0, 1353.0, 1354.0, 1354.0, 1354.0, 1354.0, 1354.0, 1354.0, 1354.0, 1354.0, 1354.0, 1354.0, 1354.0, 1354.0, 1354.0, 1354.0, 1354.0, 1354.0, 1354.0, 1354.0, 1354.0, 1354.0, 1354.0, 1354.0, 1353.0, 1354.0, 1354.0, 1354.0, 1354.0, 1354.0, 1354.0, 1354.0, 1353.0, 1355.0, 1354.0, 1354.0, 1353.0, 1354.0, 1354.0, 1354.0, 1354.0, 1354.0, 1354.0, 1354.0, 1354.0, 1354.0, 1353.0, 1353.0, 1353.0, 1353.0, 1353.0, 1353.0, 1353.0, 1354.0, 1353.0, 1354.0, 1353.0, 1353.0, 1354.0, 1354.0, 1353.0, 1353.0, 1353.0, 1353.0, 1353.0, 1353.0, 1353.0, 1353.0, 1353.0],
      "WindowWidth": [3250.0, 3250.0, 3250.0, 3250.0, 3250.0, 3250.0, 3250.0, 3250.0, 3250.0, 3250.0, 3250.0, 3250.0, 3250.0, 3250.0, 3250.0, 3250.0, 3250.0, 3250.0, 3250.0, 3250.0, 3250.0, 3250.0, 3250.0, 3250.0, 3250.0, 3250.0, 3250.0, 3250.0, 3250.0, 3250.0, 3250.0, 3250.0, 3250.0, 3250.0, 3250.0, 3250.0, 3250.0, 3250.0, 3251.0, 3250.0, 3250.0, 3250.0, 3250.0, 3250.0, 3250.0, 3250.0, 3250.0, 3250.0, 3250.0, 3250.0, 3251.0, 3251.0, 3251.0, 3250.0, 3250.0, 3250.0, 3250.0, 3250.0, 3250.0, 3250.0, 3251.0, 3250.0, 3251.0, 3251.0, 3250.0, 3251.0, 3250.0, 3250.0, 3251.0, 3251.0, 3250.0, 3250.0, 3250.0, 3250.0, 3251.0, 3250.0, 3250.0, 3250.0, 3251.0, 3250.0, 3250.0, 3251.0, 3250.0, 3250.0, 3251.0, 3250.0, 3251.0, 3251.0, 3250.0, 3251.0, 3250.0, 3250.0, 3250.0, 3250.0, 3251.0, 3250.0, 3250.0, 3250.0, 3250.0, 3250.0, 3250.0, 3250.0, 3250.0, 3251.0, 3250.0, 3251.0, 3251.0, 3251.0, 3250.0, 3251.0, 3251.0, 3251.0, 3250.0, 3251.0, 3251.0, 3251.0, 3251.0, 3251.0, 3251.0, 3250.0, 3250.0, 3250.0, 3251.0, 3251.0, 3251.0, 3250.0, 3251.0, 3250.0, 3251.0, 3251.0, 3250.0, 3250.0, 3251.0, 3250.0, 3250.0, 3250.0, 3250.0, 3250.0, 3250.0, 3250.0, 3250.0, 3250.0, 3250.0, 3250.0, 3250.0, 3250.0, 3250.0, 3250.0, 3250.0, 3250.0, 3250.0, 3250.0, 3250.0, 3250.0, 3250.0, 3250.0, 3250.0, 3250.0, 3250.0, 3250.0, 3250.0, 3250.0, 3250.0, 3250.0, 3250.0, 3250.0, 3250.0, 3251.0, 3250.0, 3249.0, 3250.0, 3250.0, 3250.0, 3250.0, 3250.0, 3250.0, 3250.0, 3250.0, 3250.0, 3250.0, 3250.0, 3250.0, 3250.0, 3250.0, 3250.0, 3250.0, 3249.0, 3250.0, 3250.0, 3249.0, 3249.0, 3250.0, 3250.0, 3250.0, 3250.0, 3250.0, 3250.0, 3250.0, 3250.0, 3250.0]
    },
    "slices": {}
  }
}