{
  "AcquisitionMatrixPE": 122,
  "AcquisitionNumber": 1,
  "AcquisitionTime": "10:12:14.472500",
  "BandwidthPerPixelPhaseEncode": 27.785,
  "BaseResolution": 122,
  "BodyPartExamined": "BRAIN",
  "CoilCombinationMethod": "Adaptive Combine",
  "ConsistencyInfo": "N4_VE11C_LATEST_20160120",
  "ConversionSoftware": "dcm2niix",
  "ConversionSoftwareVersion": "v1.0.20220720",
  "DerivedVendorReportedEchoSpacing": 0.000590011,
  "DeviceSerialNumber": "66112",
  "DiffusionScheme": "Monopolar",
  "DwellTime": 2e-06,
  "EchoTime": 0.068,
  "EchoTrainLength": 61,
  "EffectiveEchoSpacing": 0.000295005,
  "FlipAngle": 90,
  "HeudiconvVersion": "0.13.1",
  "ImageOrientationPatientDICOM": [0.999947, 0.0076913, 0.00682206, -0.00942454, 0.950903, 0.309344],
  "ImageOrientationText": "Tra>Cor(18.0)>Sag(0.2)",
  "ImageType": [
    "ORIGINAL",
    "PRIMARY",
    "DIFFUSION",
    "NONE",
    "ND",
    "NORM"
],
  "ImagingFrequency": 123.252,
  "InPlanePhaseEncodingDirectionDICOM": "COL",
  "InstitutionAddress": "Maynard 3,Hanover,NH,US,03755",
  "InstitutionName": "Dartmouth College - PBS",
  "InstitutionalDepartmentName": "Department",
  "MRAcquisitionType": "2D",
  "MagneticFieldStrength": 3,
  "Manufacturer": "Siemens",
  "ManufacturersModelName": "Prisma",
  "Modality": "MR",
  "MultibandAccelerationFactor": 4,
  "NonlinearGradientCorrection": false,
  "ParallelReductionFactorInPlane": 2,
  "PartialFourier": 1,
  "PatientPosition": "HFS",
  "PercentPhaseFOV": 100,
  "PercentSampling": 100,
  "PhaseEncodingDirection": "j-",
  "PhaseEncodingSteps": 122,
  "PhaseResolution": 1,
  "PixelBandwidth": 2050,
  "ProcedureStepDescription": "dbic^QA",
  "ProtocolName": "dwi_acq-DTI-30-p2-s4",
  "PulseSequenceDetails": "%SiemensSeq%\\ep2d_diff",
  "ReceiveCoilActiveElements": "HEA;HEP",
  "ReceiveCoilName": "Head_32",
  "ReconMatrixPE": 122,
  "RefLinesPE": 38,
  "RepetitionTime": 3.6,
  "SAR": 0.162128,
  "ScanOptions": "FS",
  "ScanningSequence": "EP",
  "SequenceName": "*ep_b0",
  "SequenceVariant": "SK\\SP",
  "SeriesDescription": "dwi_acq-DTI-30-p2-s4",
  "SeriesNumber": 13,
  "ShimSetting": [4145, -7693, -7515, 237, -70, -134, -27, 48],
  "SliceThickness": 2,
  "SliceTiming": [2.57812, 0, 1.78125, 0.19531, 1.98438, 0.39062, 2.1875, 0.59375, 2.38281, 0.99219, 2.78125, 1.1875, 2.97656, 1.39062, 3.17969, 1.58594, 3.375, 0.78906, 2.57812, 0, 1.78125, 0.19531, 1.98438, 0.39062, 2.1875, 0.59375, 2.38281, 0.99219, 2.78125, 1.1875, 2.97656, 1.39062, 3.17969, 1.58594, 3.375, 0.78906, 2.57812, 0, 1.78125, 0.19531, 1.98438, 0.39062, 2.1875, 0.59375, 2.38281, 0.99219, 2.78125, 1.1875, 2.97656, 1.39062, 3.17969, 1.58594, 3.375, 0.78906, 2.57812, 0, 1.78125, 0.19531, 1.98438, 0.39062, 2.1875, 0.59375, 2.38281, 0.99219, 2.78125, 1.1875, 2.97656, 1.39062, 3.17969, 1.58594, 3.375, 0.78906],
  "SoftwareVersions": "syngo MR E11",
  "SpacingBetweenSlices": 2,
  "SpoilingState": true,
  "StationName": "AWP66112",
  "TotalReadoutTime": 0.0356956,
  "TxRefAmp": 238.357,
  "dcmmeta_affine": [
    [-1.967109203338623, -0.018540089949965477, 0.008215725421905518, 120.78840637207031],
    [-0.015130420215427876, 1.8706295490264893, 0.6187820434570312, -120.4274673461914],
    [0.013420451432466507, -0.6085464358329773, 1.9018478393554688, -25.32953453063965],
    [0.0, 0.0, 0.0, 1.0]
],
  "dcmmeta_reorient_transform": [
    [0.0, -1.0, 0.0, 121.0],
    [1.0, 0.0, 0.0, 0.0],
    [0.0, 0.0, -1.0, 71.0],
    [0.0, 0.0, 0.0, 1.0]
],
  "dcmmeta_shape": [122, 122, 72, 31],
  "dcmmeta_slice_dim": 2,
  "dcmmeta_version": 0.6,
  "global": {
    "const": {
      "AccessionNumber": "qa",
      "AcquisitionMatrix": [122, 0, 0, 122],
      "AngioFlag": "N",
      "BitsAllocated": 16,
      "BitsStored": 12,
      "BodyPartExamined": "BRAIN",
      "Columns": 122,
      "EchoNumbers": 1,
      "EchoTime": 68.0,
      "EchoTrainLength": 61,
      "FlipAngle": 90.0,
      "HighBit": 11,
      "ImageOrientationPatient": [0.99994715031096, 0.00769129680014, 0.00682206263019, -0.0094245451985, 0.95090335610739, 0.30934444441674],
      "ImageType": [
        "ORIGINAL",
        "PRIMARY",
        "DIFFUSION",
        "NONE",
        "ND",
        "NORM"
],
      "ImagedNucleus": "1H",
      "ImagingFrequency": 123.252431,
      "InPlanePhaseEncodingDirection": "COL",
      "MRAcquisitionType": "2D",
      "MagneticFieldStrength": 3.0,
      "Manufacturer": "SIEMENS",
      "ManufacturerModelName": "Prisma",
      "Modality": "MR",
      "NumberOfAverages": 1.0,
      "NumberOfPhaseEncodingSteps": 122,
      "PercentPhaseFieldOfView": 100.0,
      "PercentSampling": 100.0,
      "PerformedProcedureStepStartTime": "093138.724000",
      "PhotometricInterpretation": "MONOCHROME2",
      "PixelBandwidth": 2050.0,
      "PixelRepresentation": 0,
      "PixelSpacing": [1.9672131538391, 1.9672131538391],
      "ProtocolName": "dwi_acq-DTI-30-p2-s4",
      "RepetitionTime": 3600.0,
      "Rows": 122,
      "SAR": 0.16212849662988,
      "SamplesPerPixel": 1,
      "ScanOptions": "FS",
      "ScanningSequence": "EP",
      "SequenceVariant": [
        "SK",
        "SP"
],
      "SeriesDescription": "dwi_acq-DTI-30-p2-s4",
      "SeriesNumber": 13,
      "SeriesTime": "101223.758000",
      "SliceThickness": 2.0,
      "SmallestImagePixelValue": 0,
      "SoftwareVersions": "syngo MR E11",
      "SpacingBetweenSlices": 2.0,
      "SpecificCharacterSet": "ISO_IR 100",
      "StudyID": "4",
      "StudyTime": "093138.633000",
      "TransmitCoilName": "Body",
      "VariableFlipAngleFlag": "N",
      "WindowCenterWidthExplanation": "Algo1",
      "dBdt": 0.0},
    "slices": {
      "AcquisitionTime": ["101214.472500", "101211.887500", "101213.675000", "101212.085000", "101213.875000", "101212.285000", "101214.075000", "101212.482500", "101214.272500", "101212.880000", "101214.670000", "101213.080000", "101214.870000", "101213.277500", "101215.067500", "101213.477500", "101215.267500", "101212.682500", "101214.472500", "101211.887500", "101213.675000", "101212.085000", "101213.875000", "101212.285000", "101214.075000", "101212.482500", "101214.272500", "101212.880000", "101214.670000", "101213.080000", "101214.870000", "101213.277500", "101215.067500", "101213.477500", "101215.267500", "101212.682500", "101214.472500", "101211.887500", "101213.675000", "101212.085000", "101213.875000", "101212.285000", "101214.075000", "101212.482500", "101214.272500", "101212.880000", "101214.670000", "101213.080000", "101214.870000", "101213.277500", "101215.067500", "101213.477500", "101215.267500", "101212.682500", "101214.472500", "101211.887500", "101213.675000", "101212.085000", "101213.875000", "101212.285000", "101214.075000", "101212.482500", "101214.272500", "101212.880000", "101214.670000", "101213.080000", "101214.870000", "101213.277500", "101215.067500", "101213.477500", "101215.267500", "101212.682500", "101218.072500", "101215.487500", "101217.275000", "101215.685000", "101217.475000", "101215.885000", "101217.675000", "101216.082500", "101217.872500", "101216.480000", "101218.270000", "101216.680000", "101218.470000", "101216.877500", "101218.667500", "101217.077500", "101218.867500", "101216.282500", "101218.072500", "101215.487500", "101217.275000", "101215.685000", "101217.475000", "101215.885000", "101217.675000", "101216.082500", "101217.872500", "101216.480000", "101218.270000", "101216.680000", "101218.470000", "101216.877500", "101218.667500", "101217.077500", "101218.867500", "101216.282500", "101218.072500", "101215.487500", "101217.275000", "101215.685000", "101217.475000", "101215.885000", "101217.675000", "101216.082500", "101217.872500", "101216.480000", "101218.270000", "101216.680000", "101218.470000", "101216.877500", "101218.667500", "101217.077500", "101218.867500", "101216.282500", "101218.072500", "101215.487500", "101217.275000", "101215.685000", "101217.475000", "101215.885000", "101217.675000", "101216.082500", "101217.872500", "101216.480000", "101218.270000", "101216.680000", "101218.470000", "101216.877500", "101218.667500", "101217.077500", "101218.867500", "101216.282500", "101221.672500", "101219.087500", "101220.875000", "101219.285000", "101221.075000", "101219.485000", "101221.275000", "101219.682500", "101221.472500", "101220.080000", "101221.870000", "101220.280000", "101222.070000", "101220.477500", "101222.267500", "101220.677500", "101222.467500", "101219.882500", "101221.672500", "101219.087500", "101220.875000", "101219.285000", "101221.075000", "101219.485000", "101221.275000", "101219.682500", "101221.472500", "101220.080000", "101221.870000", "101220.280000", "101222.070000", "101220.477500", "101222.267500", "101220.677500", "101222.467500", "101219.882500", "101221.672500", "101219.087500", "101220.875000", "101219.285000", "101221.075000", "101219.485000", "101221.275000", "101219.682500", "101221.472500", "101220.080000", "101221.870000", "101220.280000", "101222.070000", "101220.477500", "101222.267500", "101220.677500", "101222.467500", "101219.882500", "101221.672500", "101219.087500", "101220.875000", "101219.285000", "101221.075000", "101219.485000", "101221.275000", "101219.682500", "101221.472500", "101220.080000", "101221.870000", "101220.280000", "101222.070000", "101220.477500", "101222.267500", "101220.677500", "101222.467500", "101219.882500", "101225.272500", "101222.687500", "101224.475000", "101222.885000", "101224.675000", "101223.085000", "101224.875000", "101223.282500", "101225.072500", "101223.680000", "101225.470000", "101223.880000", "101225.670000", "101224.077500", "101225.867500", "101224.277500", "101226.067500", "101223.482500", "101225.272500", "101222.687500", "101224.475000", "101222.885000", "101224.675000", "101223.085000", "101224.875000", "101223.282500", "101225.072500", "101223.680000", "101225.470000", "101223.880000", "101225.670000", "101224.077500", "101225.867500", "101224.277500", "101226.067500", "101223.482500", "101225.272500", "101222.687500", "101224.475000", "101222.885000", "101224.675000", "101223.085000", "101224.875000", "101223.282500", "101225.072500", "101223.680000", "101225.470000", "101223.880000", "101225.670000", "101224.077500", "101225.867500", "101224.277500", "101226.067500", "101223.482500", "101225.272500", "101222.687500", "101224.475000", "101222.885000", "101224.675000", "101223.085000", "101224.875000", "101223.282500", "101225.072500", "101223.680000", "101225.470000", "101223.880000", "101225.670000", "101224.077500", "101225.867500", "101224.277500", "101226.067500", "101223.482500", "101228.872500", "101226.287500", "101228.075000", "101226.485000", "101228.275000", "101226.685000", "101228.475000", "101226.882500", "101228.672500", "101227.280000", "101229.070000", "101227.480000", "101229.270000", "101227.677500", "101229.467500", "101227.877500", "101229.667500", "101227.082500", "101228.872500", "101226.287500", "101228.075000", "101226.485000", "101228.275000", "101226.685000", "101228.475000", "101226.882500", "101228.672500", "101227.280000", "101229.070000", "101227.480000", "101229.270000", "101227.677500", "101229.467500", "101227.877500", "101229.667500", "101227.082500", "101228.872500", "101226.287500", "101228.075000", "101226.485000", "101228.275000", "101226.685000", "101228.475000", "101226.882500", "101228.672500", "101227.280000", "101229.070000", "101227.480000", "101229.270000", "101227.677500", "101229.467500", "101227.877500", "101229.667500", "101227.082500", "101228.872500", "101226.287500", "101228.075000", "101226.485000", "101228.275000", "101226.685000", "101228.475000", "101226.882500", "101228.672500", "101227.280000", "101229.070000", "101227.480000", "101229.270000", "101227.677500", "101229.467500", "101227.877500", "101229.667500", "101227.082500", "101232.472500", "101229.887500", "101231.675000", "101230.085000", "101231.875000", "101230.285000", "101232.075000", "101230.482500", "101232.272500", "101230.880000", "101232.670000", "101231.080000", "101232.870000", "101231.277500", "101233.067500", "101231.477500", "101233.267500", "101230.682500", "101232.472500", "101229.887500", "101231.675000", "101230.085000", "101231.875000", "101230.285000", "101232.075000", "101230.482500", "101232.272500", "101230.880000", "101232.670000", "101231.080000", "101232.870000", "101231.277500", "101233.067500", "101231.477500", "101233.267500", "101230.682500", "101232.472500", "101229.887500", "101231.675000", "101230.085000", "101231.875000", "101230.285000", "101232.075000", "101230.482500", "101232.272500", "101230.880000", "101232.670000", "101231.080000", "101232.870000", "101231.277500", "101233.067500", "101231.477500", "101233.267500", "101230.682500", "101232.472500", "101229.887500", "101231.675000", "101230.085000", "101231.875000", "101230.285000", "101232.075000", "101230.482500", "101232.272500", "101230.880000", "101232.670000", "101231.080000", "101232.870000", "101231.277500", "101233.067500", "101231.477500", "101233.267500", "101230.682500", "101236.072500", "101233.487500", "101235.275000", "101233.685000", "101235.475000", "101233.885000", "101235.675000", "101234.082500", "101235.872500", "101234.480000", "101236.270000", "101234.680000", "101236.470000", "101234.877500", "101236.667500", "101235.077500", "101236.867500", "101234.282500", "101236.072500", "101233.487500", "101235.275000", "101233.685000", "101235.475000", "101233.885000", "101235.675000", "101234.082500", "101235.872500", "101234.480000", "101236.270000", "101234.680000", "101236.470000", "101234.877500", "101236.667500", "101235.077500", "101236.867500", "101234.282500", "101236.072500", "101233.487500", "101235.275000", "101233.685000", "101235.475000", "101233.885000", "101235.675000", "101234.082500", "101235.872500", "101234.480000", "101236.270000", "101234.680000", "101236.470000", "101234.877500", "101236.667500", "101235.077500", "101236.867500", "101234.282500", "101236.072500", "101233.487500", "101235.275000", "101233.685000", "101235.475000", "101233.885000", "101235.675000", "101234.082500", "101235.872500", "101234.480000", "101236.270000", "101234.680000", "101236.470000", "101234.877500", "101236.667500", "101235.077500", "101236.867500", "101234.282500", "101239.672500", "101237.087500", "101238.875000", "101237.285000", "101239.075000", "101237.485000", "101239.275000", "101237.682500", "101239.472500", "101238.080000", "101239.870000", "101238.280000", "101240.070000", "101238.477500", "101240.267500", "101238.677500", "101240.467500", "101237.882500", "101239.672500", "101237.087500", "101238.875000", "101237.285000", "101239.075000", "101237.485000", "101239.275000", "101237.682500", "101239.472500", "101238.080000", "101239.870000", "101238.280000", "101240.070000", "101238.477500", "101240.267500", "101238.677500", "101240.467500", "101237.882500", "101239.672500", "101237.087500", "101238.875000", "101237.285000", "101239.075000", "101237.485000", "101239.275000", "101237.682500", "101239.472500", "101238.080000", "101239.870000", "101238.280000", "101240.070000", "101238.477500", "101240.267500", "101238.677500", "101240.467500", "101237.882500", "101239.672500", "101237.087500", "101238.875000", "101237.285000", "101239.075000", "101237.485000", "101239.275000", "101237.682500", "101239.472500", "101238.080000", "101239.870000", "101238.280000", "101240.070000", "101238.477500", "101240.267500", "101238.677500", "101240.467500", "101237.882500", "101243.272500", "101240.687500", "101242.475000", "101240.885000", "101242.675000", "101241.085000", "101242.875000", "101241.282500", "101243.072500", "101241.680000", "101243.470000", "101241.880000", "101243.670000", "101242.077500", "101243.867500", "101242.277500", "101244.067500", "101241.482500", "101243.272500", "101240.687500", "101242.475000", "101240.885000", "101242.675000", "101241.085000", "101242.875000", "101241.282500", "101243.072500", "101241.680000", "101243.470000", "101241.880000", "101243.670000", "101242.077500", "101243.867500", "101242.277500", "101244.067500", "101241.482500", "101243.272500", "101240.687500", "101242.475000", "101240.885000", "101242.675000", "101241.085000", "101242.875000", "101241.282500", "101243.072500", "101241.680000", "101243.470000", "101241.880000", "101243.670000", "101242.077500", "101243.867500", "101242.277500", "101244.067500", "101241.482500", "101243.272500", "101240.687500", "101242.475000", "101240.885000", "101242.675000", "101241.085000", "101242.875000", "101241.282500", "101243.072500", "101241.680000", "101243.470000", "101241.880000", "101243.670000", "101242.077500", "101243.867500", "101242.277500", "101244.067500", "101241.482500", "101246.872500", "101244.287500", "101246.075000", "101244.485000", "101246.275000", "101244.685000", "101246.475000", "101244.882500", "101246.672500", "101245.280000", "101247.070000", "101245.480000", "101247.270000", "101245.677500", "101247.467500", "101245.877500", "101247.667500", "101245.082500", "101246.872500", "101244.287500", "101246.075000", "101244.485000", "101246.275000", "101244.685000", "101246.475000", "101244.882500", "101246.672500", "101245.280000", "101247.070000", "101245.480000", "101247.270000", "101245.677500", "101247.467500", "101245.877500", "101247.667500", "101245.082500", "101246.872500", "101244.287500", "101246.075000", "101244.485000", "101246.275000", "101244.685000", "101246.475000", "101244.882500", "101246.672500", "101245.280000", "101247.070000", "101245.480000", "101247.270000", "101245.677500", "101247.467500", "101245.877500", "101247.667500", "101245.082500", "101246.872500", "101244.287500", "101246.075000", "101244.485000", "101246.275000", "101244.685000", "101246.475000", "101244.882500", "101246.672500", "101245.280000", "101247.070000", "101245.480000", "101247.270000", "101245.677500", "101247.467500", "101245.877500", "101247.667500", "101245.082500", "101250.472500", "101247.887500", "101249.675000", "101248.085000", "101249.875000", "101248.285000", "101250.075000", "101248.482500", "101250.272500", "101248.880000", "101250.670000", "101249.080000", "101250.870000", "101249.277500", "101251.067500", "101249.477500", "101251.267500", "101248.682500", "101250.472500", "101247.887500", "101249.675000", "101248.085000", "101249.875000", "101248.285000", "101250.075000", "101248.482500", "101250.272500", "101248.880000", "101250.670000", "101249.080000", "101250.870000", "101249.277500", "101251.067500", "101249.477500", "101251.267500", "101248.682500", "101250.472500", "101247.887500", "101249.675000", "101248.085000", "101249.875000", "101248.285000", "101250.075000", "101248.482500", "101250.272500", "101248.880000", "101250.670000", "101249.080000", "101250.870000", "101249.277500", "101251.067500", "101249.477500", "101251.267500", "101248.682500", "101250.472500", "101247.887500", "101249.675000", "101248.085000", "101249.875000", "101248.285000", "101250.075000", "101248.482500", "101250.272500", "101248.880000", "101250.670000", "101249.080000", "101250.870000", "101249.277500", "101251.067500", "101249.477500", "101251.267500", "101248.682500", "101254.072500", "101251.487500", "101253.275000", "101251.685000", "101253.475000", "101251.885000", "101253.675000", "101252.082500", "101253.872500", "101252.480000", "101254.270000", "101252.680000", "101254.470000", "101252.877500", "101254.667500", "101253.077500", "101254.867500", "101252.282500", "101254.072500", "101251.487500", "101253.275000", "101251.685000", "101253.475000", "101251.885000", "101253.675000", "101252.082500", "101253.872500", "101252.480000", "101254.270000", "101252.680000", "101254.470000", "101252.877500", "101254.667500", "101253.077500", "101254.867500", "101252.282500", "101254.072500", "101251.487500", "101253.275000", "101251.685000", "101253.475000", "101251.885000", "101253.675000", "101252.082500", "101253.872500", "101252.480000", "101254.270000", "101252.680000", "101254.470000", "101252.877500", "101254.667500", "101253.077500", "101254.867500", "101252.282500", "101254.072500", "101251.487500", "101253.275000", "101251.685000", "101253.475000", "101251.885000", "101253.675000", "101252.082500", "101253.872500", "101252.480000", "101254.270000", "101252.680000", "101254.470000", "101252.877500", "101254.667500", "101253.077500", "101254.867500", "101252.282500", "101257.672500", "101255.087500", "101256.875000", "101255.285000", "101257.075000", "101255.485000", "101257.275000", "101255.682500", "101257.472500", "101256.080000", "101257.870000", "101256.280000", "101258.070000", "101256.477500", "101258.267500", "101256.677500", "101258.467500", "101255.882500", "101257.672500", "101255.087500", "101256.875000", "101255.285000", "101257.075000", "101255.485000", "101257.275000", "101255.682500", "101257.472500", "101256.080000", "101257.870000", "101256.280000", "101258.070000", "101256.477500", "101258.267500", "101256.677500", "101258.467500", "101255.882500", "101257.672500", "101255.087500", "101256.875000", "101255.285000", "101257.075000", "101255.485000", "101257.275000", "101255.682500", "101257.472500", "101256.080000", "101257.870000", "101256.280000", "101258.070000", "101256.477500", "101258.267500", "101256.677500", "101258.467500", "101255.882500", "101257.672500", "101255.087500", "101256.875000", "101255.285000", "101257.075000", "101255.485000", "101257.275000", "101255.682500", "101257.472500", "101256.080000", "101257.870000", "101256.280000", "101258.070000", "101256.477500", "101258.267500", "101256.677500", "101258.467500", "101255.882500", "101301.272500", "101258.687500", "101300.475000", "101258.885000", "101300.675000", "101259.085000", "101300.875000", "101259.282500", "101301.072500", "101259.680000", "101301.470000", "101259.880000", "101301.670000", "101300.077500", "101301.867500", "101300.277500", "101302.067500", "101259.482500", "101301.272500", "101258.687500", "101300.475000", "101258.885000", "101300.675000", "101259.085000", "101300.875000", "101259.282500", "101301.072500", "101259.680000", "101301.470000", "101259.880000", "101301.670000", "101300.077500", "101301.867500", "101300.277500", "101302.067500", "101259.482500", "101301.272500", "101258.687500", "101300.475000", "101258.885000", "101300.675000", "101259.085000", "101300.875000", "101259.282500", "101301.072500", "101259.680000", "101301.470000", "101259.880000", "101301.670000", "101300.077500", "101301.867500", "101300.277500", "101302.067500", "101259.482500", "101301.272500", "101258.687500", "101300.475000", "101258.885000", "101300.675000", "101259.085000", "101300.875000", "101259.282500", "101301.072500", "101259.680000", "101301.470000", "101259.880000", "101301.670000", "101300.077500", "101301.867500", "101300.277500", "101302.067500", "101259.482500", "101304.872500", "101302.287500", "101304.075000", "101302.485000", "101304.275000", "101302.685000", "101304.475000", "101302.882500", "101304.672500", "101303.280000", "101305.070000", "101303.480000", "101305.270000", "101303.677500", "101305.467500", "101303.877500", "101305.667500", "101303.082500", "101304.872500", "101302.287500", "101304.075000", "101302.485000", "101304.275000", "101302.685000", "101304.475000", "101302.882500", "101304.672500", "101303.280000", "101305.070000", "101303.480000", "101305.270000", "101303.677500", "101305.467500", "101303.877500", "101305.667500", "101303.082500", "101304.872500", "101302.287500", "101304.075000", "101302.485000", "101304.275000", "101302.685000", "101304.475000", "101302.882500", "101304.672500", "101303.280000", "101305.070000", "101303.480000", "101305.270000", "101303.677500", "101305.467500", "101303.877500", "101305.667500", "101303.082500", "101304.872500", "101302.287500", "101304.075000", "101302.485000", "101304.275000", "101302.685000", "101304.475000", "101302.882500", "101304.672500", "101303.280000", "101305.070000", "101303.480000", "101305.270000", "101303.677500", "101305.467500", "101303.877500", "101305.667500", "101303.082500", "101308.472500", "101305.887500", "101307.675000", "101306.085000", "101307.875000", "101306.285000", "101308.075000", "101306.482500", "101308.272500", "101306.880000", "101308.670000", "101307.080000", "101308.870000", "101307.277500", "101309.067500", "101307.477500", "101309.267500", "101306.682500", "101308.472500", "101305.887500", "101307.675000", "101306.085000", "101307.875000", "101306.285000", "101308.075000", "101306.482500", "101308.272500", "101306.880000", "101308.670000", "101307.080000", "101308.870000", "101307.277500", "101309.067500", "101307.477500", "101309.267500", "101306.682500", "101308.472500", "101305.887500", "101307.675000", "101306.085000", "101307.875000", "101306.285000", "101308.075000", "101306.482500", "101308.272500", "101306.880000", "101308.670000", "101307.080000", "101308.870000", "101307.277500", "101309.067500", "101307.477500", "101309.267500", "101306.682500", "101308.472500", "101305.887500", "101307.675000", "101306.085000", "101307.875000", "101306.285000", "101308.075000", "101306.482500", "101308.272500", "101306.880000", "101308.670000", "101307.080000", "101308.870000", "101307.277500", "101309.067500", "101307.477500", "101309.267500", "101306.682500", "101312.072500", "101309.487500", "101311.275000", "101309.685000", "101311.475000", "101309.885000", "101311.675000", "101310.082500", "101311.872500", "101310.480000", "101312.270000", "101310.680000", "101312.470000", "101310.877500", "101312.667500", "101311.077500", "101312.867500", "101310.282500", "101312.072500", "101309.487500", "101311.275000", "101309.685000", "101311.475000", "101309.885000", "101311.675000", "101310.082500", "101311.872500", "101310.480000", "101312.270000", "101310.680000", "101312.470000", "101310.877500", "101312.667500", "101311.077500", "101312.867500", "101310.282500", "101312.072500", "101309.487500", "101311.275000", "101309.685000", "101311.475000", "101309.885000", "101311.675000", "101310.082500", "101311.872500", "101310.480000", "101312.270000", "101310.680000", "101312.470000", "101310.877500", "101312.667500", "101311.077500", "101312.867500", "101310.282500", "101312.072500", "101309.487500", "101311.275000", "101309.685000", "101311.475000", "101309.885000", "101311.675000", "101310.082500", "101311.872500", "101310.480000", "101312.270000", "101310.680000", "101312.470000", "101310.877500", "101312.667500", "101311.077500", "101312.867500", "101310.282500", "101315.672500", "101313.087500", "101314.875000", "101313.285000", "101315.075000", "101313.485000", "101315.275000", "101313.682500", "101315.472500", "101314.080000", "101315.870000", "101314.280000", "101316.070000", "101314.477500", "101316.267500", "101314.677500", "101316.467500", "101313.882500", "101315.672500", "101313.087500", "101314.875000", "101313.285000", "101315.075000", "101313.485000", "101315.275000", "101313.682500", "101315.472500", "101314.080000", "101315.870000", "101314.280000", "101316.070000", "101314.477500", "101316.267500", "101314.677500", "101316.467500", "101313.882500", "101315.672500", "101313.087500", "101314.875000", "101313.285000", "101315.075000", "101313.485000", "101315.275000", "101313.682500", "101315.472500", "101314.080000", "101315.870000", "101314.280000", "101316.070000", "101314.477500", "101316.267500", "101314.677500", "101316.467500", "101313.882500", "101315.672500", "101313.087500", "101314.875000", "101313.285000", "101315.075000", "101313.485000", "101315.275000", "101313.682500", "101315.472500", "101314.080000", "101315.870000", "101314.280000", "101316.070000", "101314.477500", "101316.267500", "101314.677500", "101316.467500", "101313.882500", "101319.272500", "101316.687500", "101318.475000", "101316.885000", "101318.675000", "101317.085000", "101318.875000", "101317.282500", "101319.072500", "101317.680000", "101319.470000", "101317.880000", "101319.670000", "101318.077500", "101319.867500", "101318.277500", "101320.067500", "101317.482500", "101319.272500", "101316.687500", "101318.475000", "101316.885000", "101318.675000", "101317.085000", "101318.875000", "101317.282500", "101319.072500", "101317.680000", "101319.470000", "101317.880000", "101319.670000", "101318.077500", "101319.867500", "101318.277500", "101320.067500", "101317.482500", "101319.272500", "101316.687500", "101318.475000", "101316.885000", "101318.675000", "101317.085000", "101318.875000", "101317.282500", "101319.072500", "101317.680000", "101319.470000", "101317.880000", "101319.670000", "101318.077500", "101319.867500", "101318.277500", "101320.067500", "101317.482500", "101319.272500", "101316.687500", "101318.475000", "101316.885000", "101318.675000", "101317.085000", "101318.875000", "101317.282500", "101319.072500", "101317.680000", "101319.470000", "101317.880000", "101319.670000", "101318.077500", "101319.867500", "101318.277500", "101320.067500", "101317.482500", "101322.872500", "101320.287500", "101322.075000", "101320.485000", "101322.275000", "101320.685000", "101322.475000", "101320.882500", "101322.672500", "101321.280000", "101323.070000", "101321.480000", "101323.270000", "101321.677500", "101323.467500", "101321.877500", "101323.667500", "101321.082500", "101322.872500", "101320.287500", "101322.075000", "101320.485000", "101322.275000", "101320.685000", "101322.475000", "101320.882500", "101322.672500", "101321.280000", "101323.070000", "101321.480000", "101323.270000", "101321.677500", "101323.467500", "101321.877500", "101323.667500", "101321.082500", "101322.872500", "101320.287500", "101322.075000", "101320.485000", "101322.275000", "101320.685000", "101322.475000", "101320.882500", "101322.672500", "101321.280000", "101323.070000", "101321.480000", "101323.270000", "101321.677500", "101323.467500", "101321.877500", "101323.667500", "101321.082500", "101322.872500", "101320.287500", "101322.075000", "101320.485000", "101322.275000", "101320.685000", "101322.475000", "101320.882500", "101322.672500", "101321.280000", "101323.070000", "101321