{
  "AcquisitionDateTime": "2017-04-03T95:95:9.203125", 
  "ConversionSoftware": "dcm2niix", 
  "ConversionSoftwareVersion": "v1.0.20170130", 
  "EchoTime": 0.035, 
  "EffectiveEchoSpacing": 0.00026, 
  "FlipAngle": 90, 
  "ImageType": [
    "ORIGINAL", 
    "PRIMARY", 
    "M", 
    "ND", 
    "NORM", 
    "MOSAIC"
], 
  "MagneticFieldStrength": 3, 
  "Manufacturer": "Siemens", 
  "ManufacturersModelName": "Prisma", 
  "PhaseEncodingDirection": "j-", 
  "ProcedureStepDescription": "dbic_QA", 
  "ProtocolName": "func-bold_task-rest_acq-p2", 
  "RepetitionTime": 2, 
  "SliceTiming": [0.9875, 0, 1.055, 0.065, 1.12, 0.13, 1.1875, 0.1975, 1.2525, 0.2625, 1.3175, 0.33, 1.385, 0.395, 1.45, 0.46, 1.5175, 0.5275, 1.5825, 0.5925, 1.6475, 0.6575, 1.715, 0.725, 1.78, 0.79, 1.8475, 0.8575, 1.9125, 0.9225], 
  "dcmmeta_affine": [
    [-2.9980363845825195, 0.00889536552131176, -0.14385099709033966, 124.50250244140625], 
    [-0.02173278108239174, 2.8801276683807373, 1.1162432432174683, -124.63130950927734], 
    [-0.10632547736167908, -0.8395148515701294, 3.827976942062378, -27.89535140991211], 
    [0.0, 0.0, 0.0, 1.0]
], 
  "dcmmeta_reorient_transform": [
    [0.0, -1.0, 0.0, 79.0], 
    [1.0, 0.0, 0.0, 0.0], 
    [0.0, 0.0, 1.0, 0.0], 
    [0.0, 0.0, 0.0, 1.0]
], 
  "dcmmeta_shape": [80, 80, 30, 200], 
  "dcmmeta_slice_dim": 2, 
  "dcmmeta_version": 0.6, 
  "global": {
    "const": {
      "AccessionNumber": "qa", 
      "AcquisitionMatrix": [80, 0, 0, 80], 
      "AngioFlag": "N", 
      "BitsAllocated": 16, 
      "BitsStored": 12, 
      "BodyPartExamined": "BRAIN", 
      "Columns": 480, 
      "EchoNumbers": 1, 
      "EchoTime": 35.0, 
      "EchoTrainLength": 39, 
      "FlipAngle": 90.0, 
      "HighBit": 11, 
      "ImageOrientationPatient": [0.99934548467358, 0.00724426039302, -0.0354418249232, 0.00296512187719, 0.96004257282836, 0.27983828617501], 
      "ImagePositionPatient": [-726.5915975892, -683.27087790585, -240.85490217453], 
      "ImageType": [
        "ORIGINAL", 
        "PRIMARY", 
        "M", 
        "ND", 
        "NORM", 
        "MOSAIC"
], 
      "ImagedNucleus": "1H", 
      "ImagingFrequency": 123.252508, 
      "InPlanePhaseEncodingDirection": "COL", 
      "MRAcquisitionType": "2D", 
      "MagneticFieldStrength": 3.0, 
      "Manufacturer": "SIEMENS", 
      "ManufacturerModelName": "Prisma", 
      "Modality": "MR", 
      "NumberOfAverages": 1.0, 
      "NumberOfPhaseEncodingSteps": 79, 
      "PercentPhaseFieldOfView": 100.0, 
      "PercentSampling": 100.0, 
      "PerformedProcedureStepStartTime": "095746.055000", 
      "PhotometricInterpretation": "MONOCHROME2", 
      "PixelBandwidth": 2315.0, 
      "PixelRepresentation": 0, 
      "PixelSpacing": [3.0, 3.0], 
      "PositionReferenceIndicator": "", 
      "ProtocolName": "func-bold_task-rest_acq-p2", 
      "RepetitionTime": 2000.0, 
      "Rows": 480, 
      "SAR": 0.05570474263375, 
      "SamplesPerPixel": 1, 
      "ScanOptions": "FS", 
      "ScanningSequence": "EP", 
      "SequenceName": "*epfid2d1_80", 
      "SequenceVariant": "SK", 
      "SeriesDescription": "func-bold_task-rest_acq-p2", 
      "SeriesNumber": 5, 
      "SeriesTime": "100055.823000", 
      "SliceLocation": -66.118154325166, 
      "SliceThickness": 3.5, 
      "SmallestImagePixelValue": 0, 
      "SoftwareVersions": "syngo MR E11", 
      "SpacingBetweenSlices": 3.9899999044207, 
      "SpecificCharacterSet": "ISO_IR 100", 
      "StudyID": "48", 
      "StudyTime": "095745.943000", 
      "TransmitCoilName": "Body", 
      "VariableFlipAngleFlag": "N", 
      "WindowCenterWidthExplanation": "Algo1", 
      "dBdt": 0.0}, 
    "slices": {}
  }, 
  "time": {
    "samples": {
      "AcquisitionNumber": [1, 2, 3, 4, 5, 6, 7, 8, 9, 10, 11, 12, 13, 14, 15, 16, 17, 18, 19, 20, 21, 22, 23, 24, 25, 26, 27, 28, 29, 30, 31, 32, 33, 34, 35, 36, 37, 38, 39, 40, 41, 42, 43, 44, 45, 46, 47, 48, 49, 50, 51, 52, 53, 54, 55, 56, 57, 58, 59, 60, 61, 62, 63, 64, 65, 66, 67, 68, 69, 70, 71, 72, 73, 74, 75, 76, 77, 78, 79, 80, 81, 82, 83, 84, 85, 86, 87, 88, 89, 90, 91, 92, 93, 94, 95, 96, 97, 98, 99, 100, 101, 102, 103, 104, 105, 106, 107, 108, 109, 110, 111, 112, 113, 114, 115, 116, 117, 118, 119, 120, 121, 122, 123, 124, 125, 126, 127, 128, 129, 130, 131, 132, 133, 134, 135, 136, 137, 138, 139, 140, 141, 142, 143, 144, 145, 146, 147, 148, 149, 150, 151, 152, 153, 154, 155, 156, 157, 158, 159, 160, 161, 162, 163, 164, 165, 166, 167, 168, 169, 170, 171, 172, 173, 174, 175, 176, 177, 178, 179, 180, 181, 182, 183, 184, 185, 186, 187, 188, 189, 190, 191, 192, 193, 194, 195, 196, 197, 198, 199, 200], 
      "AcquisitionTime": ["095959.200000", "100001.200000", "100003.200000", "100005.200000", "100007.200000", "100009.200000", "100011.200000", "100013.200000", "100015.200000", "100017.200000", "100019.200000", "100021.200000", "100023.200000", "100025.200000", "100027.200000", "100029.200000", "100031.200000", "100033.200000", "100035.200000", "100037.200000", "100039.200000", "100041.200000", "100043.200000", "100045.200000", "100047.200000", "100049.200000", "100051.200000", "100053.200000", "100055.200000", "100057.200000", "100059.200000", "100101.200000", "100103.200000", "100105.200000", "100107.200000", "100109.200000", "100111.200000", "100113.200000", "100115.200000", "100117.200000", "100119.200000", "100121.200000", "100123.200000", "100125.200000", "100127.200000", "100129.200000", "100131.200000", "100133.200000", "100135.200000", "100137.200000", "100139.200000", "100141.200000", "100143.200000", "100145.200000", "100147.200000", "100149.200000", "100151.200000", "100153.200000", "100155.200000", "100157.200000", "100159.200000", "100201.200000", "100203.200000", "100205.200000", "100207.200000", "100209.200000", "100211.200000", "100213.200000", "100215.200000", "100217.200000", "100219.200000", "100221.200000", "100223.200000", "100225.200000", "100227.200000", "100229.200000", "100231.200000", "100233.200000", "100235.200000", "100237.200000", "100239.200000", "100241.200000", "100243.200000", "100245.200000", "100247.200000", "100249.200000", "100251.200000", "100253.200000", "100255.200000", "100257.200000", "100259.200000", "100301.200000", "100303.200000", "100305.200000", "100307.200000", "100309.200000", "100311.200000", "100313.200000", "100315.200000", "100317.200000", "100319.200000", "100321.200000", "100323.200000", "100325.200000", "100327.200000", "100329.200000", "100331.200000", "100333.200000", "100335.200000", "100337.200000", "100339.200000", "100341.200000", "100343.200000", "100345.200000", "100347.200000", "100349.200000", "100351.200000", "100353.200000", "100355.200000", "100357.200000", "100359.200000", "100401.200000", "100403.200000", "100405.200000", "100407.200000", "100409.200000", "100411.200000", "100413.200000", "100415.200000", "100417.200000", "100419.200000", "100421.200000", "100423.200000", "100425.200000", "100427.200000", "100429.200000", "100431.200000", "100433.200000", "100435.200000", "100437.200000", "100439.200000", "100441.200000", "100443.200000", "100445.200000", "100447.200000", "100449.200000", "100451.200000", "100453.200000", "100455.200000", "100457.200000", "100459.200000", "100501.200000", "100503.200000", "100505.200000", "100507.200000", "100509.200000", "100511.200000", "100513.200000", "100515.200000", "100517.200000", "100519.200000", "100521.200000", "100523.200000", "100525.200000", "100527.200000", "100529.200000", "100531.200000", "100533.200000", "100535.200000", "100537.200000", "100539.200000", "100541.200000", "100543.200000", "100545.200000", "100547.200000", "100549.200000", "100551.200000", "100553.200000", "100555.200000", "100557.200000", "100559.200000", "100601.200000", "100603.200000", "100605.200000", "100607.200000", "100609.200000", "100611.200000", "100613.200000", "100615.200000", "100617.200000", "100619.200000", "100621.200000", "100623.200000", "100625.200000", "100627.200000", "100629.200000", "100631.200000", "100633.200000", "100635.200000", "100637.200000"], 
      "ContentTime": ["100055.826000", "100055.830000", "100055.833000", "100055.835000", "100055.838000", "100055.840000", "100055.843000", "100055.846000", "100055.848000", "100055.851000", "100055.853000", "100055.856000", "100055.858000", "100055.861000", "100055.863000", "100055.866000", "100055.868000", "100055.878000", "100055.881000", "100055.883000", "100055.886000", "100055.889000", "100055.891000", "100055.894000", "100055.896000", "100055.899000", "100055.902000", "100055.904000", "100135.821000", "100135.824000", "100135.826000", "100135.829000", "100135.840000", "100135.843000", "100135.845000", "100135.848000", "100135.851000", "100135.853000", "100135.856000", "100135.859000", "100135.861000", "100135.864000", "100135.866000", "100135.869000", "100135.871000", "100135.874000", "100135.877000", "100135.879000", "100215.820000", "100215.823000", "100215.826000", "100215.829000", "100215.831000", "100215.834000", "100215.836000", "100215.839000", "100215.842000", "100215.844000", "100215.847000", "100215.849000", "100215.852000", "100215.855000", "100215.858000", "100215.860000", "100215.863000", "100215.866000", "100215.868000", "100215.871000", "100255.821000", "100255.824000", "100255.827000", "100255.829000", "100255.832000", "100255.835000", "100255.837000", "100255.840000", "100255.843000", "100255.845000", "100255.848000", "100255.850000", "100255.853000", "100255.856000", "100255.858000", "100255.871000", "100255.883000", "100255.885000", "100255.888000", "100255.890000", "100335.820000", "100335.823000", "100335.826000", "100335.829000", "100335.831000", "100335.834000", "100335.837000", "100335.839000", "100335.842000", "100335.845000", "100335.848000", "100335.850000", "100335.853000", "100335.855000", "100335.858000", "100335.867000", "100335.870000", "100335.873000", "100335.876000", "100335.879000", "100355.821000", "100355.824000", "100355.826000", "100355.829000", "100355.831000", "100355.834000", "100355.837000", "100355.839000", "100355.842000", "100355.845000", "100435.820000", "100435.823000", "100435.826000", "100435.828000", "100435.831000", "100435.834000", "100435.836000", "100435.839000", "100435.842000", "100435.844000", "100435.847000", "100435.849000", "100435.852000", "100435.854000", "100435.857000", "100435.859000", "100435.862000", "100435.865000", "100435.867000", "100435.870000", "100515.821000", "100515.824000", "100515.827000", "100515.829000", "100515.832000", "100515.835000", "100515.837000", "100515.840000", "100515.842000", "100515.845000", "100515.847000", "100515.850000", "100515.853000", "100515.855000", "100515.858000", "100515.860000", "100515.863000", "100515.866000", "100515.868000", "100515.871000", "100555.820000", "100555.823000", "100555.826000", "100555.828000", "100555.831000", "100555.833000", "100555.836000", "100555.839000", "100555.841000", "100555.848000", "100555.851000", "100555.854000", "100555.856000", "100555.859000", "100555.862000", "100555.864000", "100555.867000", "100555.869000", "100555.872000", "100555.874000", "100635.820000", "100635.823000", "100635.826000", "100635.829000", "100635.831000", "100635.834000", "100635.836000", "100635.839000", "100635.842000", "100635.844000", "100635.847000", "100635.849000", "100635.852000", "100635.855000", "100635.857000", "100635.860000", "100635.863000", "100635.865000", "100635.868000", "100635.870000", "100639.161000", "100639.164000"], 
      "InstanceCreationTime": ["100055.826000", "100055.830000", "100055.833000", "100055.835000", "100055.838000", "100055.840000", "100055.843000", "100055.846000", "100055.848000", "100055.851000", "100055.853000", "100055.856000", "100055.858000", "100055.861000", "100055.863000", "100055.866000", "100055.868000", "100055.878000", "100055.881000", "100055.883000", "100055.886000", "100055.889000", "100055.891000", "100055.894000", "100055.896000", "100055.899000", "100055.902000", "100055.904000", "100135.821000", "100135.824000", "100135.826000", "100135.829000", "100135.840000", "100135.843000", "100135.845000", "100135.848000", "100135.851000", "100135.853000", "100135.856000", "100135.859000", "100135.861000", "100135.864000", "100135.866000", "100135.869000", "100135.871000", "100135.874000", "100135.877000", "100135.879000", "100215.820000", "100215.823000", "100215.826000", "100215.829000", "100215.831000", "100215.834000", "100215.836000", "100215.839000", "100215.842000", "100215.844000", "100215.847000", "100215.849000", "100215.852000", "100215.855000", "100215.858000", "100215.860000", "100215.863000", "100215.866000", "100215.868000", "100215.871000", "100255.821000", "100255.824000", "100255.827000", "100255.829000", "100255.832000", "100255.835000", "100255.837000", "100255.840000", "100255.843000", "100255.845000", "100255.848000", "100255.850000", "100255.853000", "100255.856000", "100255.858000", "100255.871000", "100255.883000", "100255.885000", "100255.888000", "100255.890000", "100335.820000", "100335.823000", "100335.826000", "100335.829000", "100335.831000", "100335.834000", "100335.837000", "100335.839000", "100335.842000", "100335.845000", "100335.848000", "100335.850000", "100335.853000", "100335.855000", "100335.858000", "100335.867000", "100335.870000", "100335.873000", "100335.876000", "100335.879000", "100355.821000", "100355.824000", "100355.826000", "100355.829000", "100355.831000", "100355.834000", "100355.837000", "100355.839000", "100355.842000", "100355.845000", "100435.820000", "100435.823000", "100435.826000", "100435.828000", "100435.831000", "100435.834000", "100435.836000", "100435.839000", "100435.842000", "100435.844000", "100435.847000", "100435.849000", "100435.852000", "100435.854000", "100435.857000", "100435.859000", "100435.862000", "100435.865000", "100435.867000", "100435.870000", "100515.821000", "100515.824000", "100515.827000", "100515.829000", "100515.832000", "100515.835000", "100515.837000", "100515.840000", "100515.842000", "100515.845000", "100515.847000", "100515.850000", "100515.853000", "100515.855000", "100515.858000", "100515.860000", "100515.863000", "100515.866000", "100515.868000", "100515.871000", "100555.820000", "100555.823000", "100555.826000", "100555.828000", "100555.831000", "100555.833000", "100555.836000", "100555.839000", "100555.841000", "100555.848000", "100555.851000", "100555.854000", "100555.856000", "100555.859000", "100555.862000", "100555.864000", "100555.867000", "100555.869000", "100555.872000", "100555.874000", "100635.820000", "100635.823000", "100635.826000", "100635.829000", "100635.831000", "100635.834000", "100635.836000", "100635.839000", "100635.842000", "100635.844000", "100635.847000", "100635.849000", "100635.852000", "100635.855000", "100635.857000", "100635.860000", "100635.863000", "100635.865000", "100635.868000", "100635.870000", "100639.161000", "100639.164000"], 
      "InstanceNumber": [1, 2, 3, 4, 5, 6, 7, 8, 9, 10, 11, 12, 13, 14, 15, 16, 17, 18, 19, 20, 21, 22, 23, 24, 25, 26, 27, 28, 29, 30, 31, 32, 33, 34, 35, 36, 37, 38, 39, 40, 41, 42, 43, 44, 45, 46, 47, 48, 49, 50, 51, 52, 53, 54, 55, 56, 57, 58, 59, 60, 61, 62, 63, 64, 65, 66, 67, 68, 69, 70, 71, 72, 73, 74, 75, 76, 77, 78, 79, 80, 81, 82, 83, 84, 85, 86, 87, 88, 89, 90, 91, 92, 93, 94, 95, 96, 97, 98, 99, 100, 101, 102, 103, 104, 105, 106, 107, 108, 109, 110, 111, 112, 113, 114, 115, 116, 117, 118, 119, 120, 121, 122, 123, 124, 125, 126, 127, 128, 129, 130, 131, 132, 133, 134, 135, 136, 137, 138, 139, 140, 141, 142, 143, 144, 145, 146, 147, 148, 149, 150, 151, 152, 153, 154, 155, 156, 157, 158, 159, 160, 161, 162, 163, 164, 165, 166, 167, 168, 169, 170, 171, 172, 173, 174, 175, 176, 177, 178, 179, 180, 181, 182, 183, 184, 185, 186, 187, 188, 189, 190, 191, 192, 193, 194, 195, 196, 197, 198, 199, 200], 
      "LargestImagePixelValue": [2080, 2076, 2080, 2069, 2075, 2077, 2080, 2074, 2075, 2079, 2077, 2074, 2075, 2073, 2077, 2082, 2071, 2080, 2075, 2075, 2079, 2081, 2074, 2084, 2073, 2071, 2080, 2079, 2078, 2076, 2075, 2077, 2077, 2072, 2080, 2078, 2072, 2075, 2083, 2076, 2081, 2079, 2075, 2075, 2082, 2079, 2076, 2076, 2080, 2076, 2080, 2077, 2075, 2075, 2076, 2083, 2080, 2069, 2088, 2079, 2088, 2082, 2069, 2080, 2080, 2074, 2076, 2075, 2079, 2080, 2084, 2077, 2078, 2077, 2085, 2076, 2080, 2081, 2080, 2076, 2074, 2078, 2083, 2074, 2086, 2078, 2071, 2077, 2079, 2081, 2082, 2072, 2082, 2072, 2090, 2081, 2082, 2079, 2081, 2077, 2083, 2073, 2077, 2082, 2079, 2083, 2078, 2082, 2082, 2084, 2078, 2080, 2072, 2078, 2084, 2080, 2089, 2078, 2081, 2080, 2076, 2077, 2086, 2082, 2083, 2083, 2088, 2083, 2079, 2084, 2077, 2073, 2088, 2078, 2080, 2090, 2082, 2074, 2075, 2076, 2084, 2086, 2085, 2072, 2076, 2080, 2084, 2084, 2078, 2091, 2079, 2078, 2077, 2081, 2086, 2079, 2078, 2083, 2076, 2085, 2084, 2080, 2082, 2082, 2077, 2080, 2084, 2083, 2080, 2081, 2077, 2072, 2078, 2084, 2074, 2084, 2082, 2079, 2090, 2074, 2080, 2072, 2083, 2086, 2072, 2080, 2084, 2085, 2079, 2073, 2075, 2079, 2081, 2075, 2077, 2079, 2076, 2083, 2077, 2084], 
      "WindowCenter": [988.0, 988.0, 988.0, 988.0, 988.0, 988.0, 988.0, 988.0, 988.0, 988.0, 988.0, 988.0, 988.0, 989.0, 988.0, 988.0, 988.0, 988.0, 988.0, 988.0, 988.0, 988.0, 988.0, 988.0, 988.0, 988.0, 988.0, 988.0, 988.0, 988.0, 988.0, 988.0, 988.0, 988.0, 988.0, 988.0, 988.0, 987.0, 988.0, 988.0, 988.0, 988.0, 988.0, 988.0, 988.0, 988.0, 988.0, 987.0, 987.0, 988.0, 988.0, 988.0, 988.0, 987.0, 988.0, 988.0, 988.0, 988.0, 988.0, 987.0, 988.0, 988.0, 988.0, 988.0, 988.0, 988.0, 988.0, 987.0, 987.0, 987.0, 987.0, 988.0, 987.0, 988.0, 988.0, 987.0, 988.0, 987.0, 987.0, 987.0, 987.0, 987.0, 987.0, 987.0, 987.0, 987.0, 987.0, 987.0, 987.0, 987.0, 987.0, 987.0, 987.0, 987.0, 987.0, 987.0, 987.0, 987.0, 987.0, 987.0, 987.0, 987.0, 987.0, 988.0, 987.0, 987.0, 987.0, 987.0, 987.0, 987.0, 988.0, 987.0, 987.0, 987.0, 987.0, 987.0, 987.0, 987.0, 989.0, 987.0, 987.0, 987.0, 987.0, 987.0, 987.0, 987.0, 987.0, 987.0, 987.0, 987.0, 987.0, 987.0, 987.0, 987.0, 987.0, 987.0, 987.0, 987.0, 987.0, 987.0, 987.0, 987.0, 987.0, 987.0, 987.0, 987.0, 987.0, 987.0, 987.0, 987.0, 987.0, 987.0, 987.0, 987.0, 987.0, 987.0, 987.0, 987.0, 987.0, 987.0, 987.0, 987.0, 987.0, 987.0, 987.0, 987.0, 987.0, 987.0, 987.0, 987.0, 987.0, 987.0, 987.0, 987.0, 987.0, 987.0, 987.0, 987.0, 987.0, 987.0, 987.0, 987.0, 987.0, 988.0, 987.0, 987.0, 987.0, 987.0, 987.0, 987.0, 987.0, 987.0, 987.0, 987.0, 987.0, 987.0, 987.0, 987.0, 987.0, 987.0], 
      "WindowWidth": [2173.0, 2172.0, 2172.0, 2172.0, 2172.0, 2172.0, 2172.0, 2172.0, 2172.0, 2172.0, 2172.0, 2171.0, 2172.0, 2172.0, 2172.0, 2172.0, 2171.0, 2172.0, 2172.0, 2172.0, 2171.0, 2172.0, 2171.0, 2171.0, 2171.0, 2172.0, 2171.0, 2172.0, 2171.0, 2172.0, 2172.0, 2172.0, 2172.0, 2172.0, 2171.0, 2172.0, 2171.0, 2172.0, 2172.0, 2171.0, 2171.0, 2171.0, 2171.0, 2171.0, 2171.0, 2171.0, 2171.0, 2172.0, 2172.0, 2171.0, 2171.0, 2171.0, 2171.0, 2172.0, 2171.0, 2171.0, 2171.0, 2171.0, 2171.0, 2172.0, 2171.0, 2171.0, 2171.0, 2171.0, 2171.0, 2171.0, 2171.0, 2171.0, 2172.0, 2172.0, 2172.0, 2171.0, 2171.0, 2171.0, 2171.0, 2171.0, 2171.0, 2172.0, 2171.0, 2171.0, 2171.0, 2171.0, 2171.0, 2171.0, 2171.0, 2172.0, 2171.0, 2171.0, 2171.0, 2171.0, 2171.0, 2171.0, 2172.0, 2172.0, 2171.0, 2172.0, 2171.0, 2171.0, 2171.0, 2171.0, 2171.0, 2171.0, 2172.0, 2172.0, 2171.0, 2172.0, 2172.0, 2171.0, 2171.0, 2171.0, 2172.0, 2172.0, 2171.0, 2171.0, 2171.0, 2172.0, 2171.0, 2172.0, 2173.0, 2171.0, 2171.0, 2171.0, 2171.0, 2172.0, 2171.0, 2171.0, 2171.0, 2172.0, 2171.0, 2171.0, 2171.0, 2171.0, 2171.0, 2171.0, 2171.0, 2171.0, 2171.0, 2171.0, 2171.0, 2171.0, 2172.0, 2171.0, 2171.0, 2171.0, 2171.0, 2171.0, 2171.0, 2171.0, 2171.0, 2171.0, 2171.0, 2171.0, 2171.0, 2171.0, 2171.0, 2171.0, 2171.0, 2171.0, 2171.0, 2171.0, 2171.0, 2171.0, 2171.0, 2171.0, 2171.0, 2171.0, 2171.0, 2171.0, 2171.0, 2171.0, 2171.0, 2171.0, 2171.0, 2171.0, 2171.0, 2171.0, 2172.0, 2171.0, 2171.0, 2171.0, 2171.0, 2171.0, 2171.0, 2172.0, 2171.0, 2171.0, 2171.0, 2171.0, 2171.0, 2171.0, 2171.0, 2171.0, 2171.0, 2171.0, 2171.0, 2171.0, 2171.0, 2171.0, 2171.0, 2171.0]
    }, 
    "slices": {}
  }
}