{
  "AcquisitionMatrixPE": 122,
  "AcquisitionNumber": 1,
  "AcquisitionTime": "09:42:34.035000",
  "BandwidthPerPixelPhaseEncode": 28.76,
  "BaseResolution": 122,
  "BodyPartExamined": "BRAIN",
  "CoilCombinationMethod": "Adaptive Combine",
  "ConsistencyInfo": "N4_VE11C_LATEST_20160120",
  "ConversionSoftware": "dcm2niix",
  "ConversionSoftwareVersion": "v1.0.20220720",
  "DerivedVendorReportedEchoSpacing": 0.000570008,
  "DeviceSerialNumber": "66112",
  "DiffusionScheme": "Monopolar",
  "DwellTime": 2e-06,
  "EchoTime": 0.075,
  "EchoTrainLength": 61,
  "EffectiveEchoSpacing": 0.000285004,
  "FlipAngle": 90,
  "HeudiconvVersion": "0.13.1",
  "ImageOrientationPatientDICOM": [0.971419, 0.236681, 0.0180988, -0.231066, 0.925406, 0.300387],
  "ImageOrientationText": "Tra>Cor(17.2)>Sag(-3.1)",
  "ImageType": [
    "ORIGINAL",
    "PRIMARY",
    "DIFFUSION",
    "NONE",
    "ND",
    "NORM"
],
  "ImagingFrequency": 123.252,
  "InPlanePhaseEncodingDirectionDICOM": "COL",
  "InstitutionAddress": "Maynard 3,Hanover,NH,US,03755",
  "InstitutionName": "Dartmouth College - PBS",
  "InstitutionalDepartmentName": "Department",
  "MRAcquisitionType": "2D",
  "MagneticFieldStrength": 3,
  "Manufacturer": "Siemens",
  "ManufacturersModelName": "Prisma",
  "MatrixCoilMode": "GRAPPA",
  "Modality": "MR",
  "NonlinearGradientCorrection": false,
  "ParallelReductionFactorInPlane": 2,
  "PartialFourier": 1,
  "PatientPosition": "HFS",
  "PercentPhaseFOV": 100,
  "PercentSampling": 100,
  "PhaseEncodingDirection": "j-",
  "PhaseEncodingSteps": 122,
  "PhaseResolution": 1,
  "PixelBandwidth": 2050,
  "ProcedureStepDescription": "dbic^QA",
  "ProtocolName": "dwi_acq-DTI-30-p2",
  "PulseSequenceDetails": "%SiemensSeq%\\ep2d_diff",
  "ReceiveCoilActiveElements": "HEA;HEP",
  "ReceiveCoilName": "Head_32",
  "ReconMatrixPE": 122,
  "RefLinesPE": 38,
  "RepetitionTime": 7.7,
  "SAR": 0.101746,
  "ScanOptions": "FS",
  "ScanningSequence": "EP",
  "SequenceName": "*ep_b0",
  "SequenceVariant": "SK\\SP",
  "SeriesDescription": "dwi_acq-DTI-30-p2",
  "SeriesNumber": 8,
  "ShimSetting": [4143, -7694, -7512, 287, -35, -225, -49, 56],
  "SliceThickness": 2,
  "SliceTiming": [3.83594, 0, 3.95312, 0.10938, 4.0625, 0.21875, 4.17188, 0.32812, 4.27344, 0.4375, 4.39062, 0.54688, 4.5, 0.65625, 4.60938, 0.76562, 4.71875, 0.875, 4.82812, 0.98438, 4.9375, 1.09375, 5.04688, 1.21094, 5.15625, 1.32031, 5.26562, 1.42188, 5.375, 1.53125, 5.48438, 1.64844, 5.59375, 1.75781, 5.70312, 1.86719, 5.8125, 1.97656, 5.92188, 2.08594, 6.03125, 2.19531, 6.14062, 2.30469, 6.25, 2.41406, 6.35938, 2.52344, 6.46875, 2.63281, 6.58594, 2.74219, 6.69531, 2.85156, 6.80469, 2.96094, 6.91406, 3.07031, 7.02344, 3.17969, 7.13281, 3.28906, 7.24219, 3.39844, 7.35156, 3.50781, 7.46094, 3.61719, 7.57031, 3.72656],
  "SoftwareVersions": "syngo MR E11",
  "SpacingBetweenSlices": 2,
  "SpoilingState": true,
  "StationName": "AWP66112",
  "TotalReadoutTime": 0.0344855,
  "TxRefAmp": 233.604,
  "dcmmeta_affine": [
    [-1.9109880924224854, -0.45455682277679443, -0.10869407653808594, 157.2465362548828],
    [-0.4656011760234833, 1.8204706907272339, 0.5919685363769531, -92.85953521728516],
    [0.03560413047671318, -0.5909249782562256, 1.9072952270507812, -32.00415802001953],
    [0.0, 0.0, 0.0, 1.0]
],
  "dcmmeta_reorient_transform": [
    [0.0, -1.0, 0.0, 121.0],
    [1.0, 0.0, 0.0, 0.0],
    [0.0, 0.0, -1.0, 69.0],
    [0.0, 0.0, 0.0, 1.0]
],
  "dcmmeta_shape": [122, 122, 70, 31],
  "dcmmeta_slice_dim": 2,
  "dcmmeta_version": 0.6,
  "global": {
    "const": {
      "AccessionNumber": "qa",
      "AcquisitionMatrix": [122, 0, 0, 122],
      "AngioFlag": "N",
      "BitsAllocated": 16,
      "BitsStored": 12,
      "BodyPartExamined": "BRAIN",
      "Columns": 122,
      "EchoNumbers": 1,
      "EchoTime": 75.0,
      "EchoTrainLength": 61,
      "FlipAngle": 90.0,
      "HighBit": 11,
      "ImageOrientationPatient": [0.97141892616887, 0.23668059608372, 0.01809876565897, -0.2310663748354, 0.92540589309379, 0.30038685631649],
      "ImageType": [
        "ORIGINAL",
        "PRIMARY",
        "DIFFUSION",
        "NONE",
        "ND",
        "NORM"
],
      "ImagedNucleus": "1H",
      "ImagingFrequency": 123.252454,
      "InPlanePhaseEncodingDirection": "COL",
      "MRAcquisitionType": "2D",
      "MagneticFieldStrength": 3.0,
      "Manufacturer": "SIEMENS",
      "ManufacturerModelName": "Prisma",
      "Modality": "MR",
      "NumberOfAverages": 1.0,
      "NumberOfPhaseEncodingSteps": 122,
      "PercentPhaseFieldOfView": 100.0,
      "PercentSampling": 100.0,
      "PerformedProcedureStepStartTime": "090430.660000",
      "PhotometricInterpretation": "MONOCHROME2",
      "PixelBandwidth": 2050.0,
      "PixelRepresentation": 0,
      "PixelSpacing": [1.9672131538391, 1.9672131538391],
      "ProtocolName": "dwi_acq-DTI-30-p2",
      "RepetitionTime": 7700.0,
      "Rows": 122,
      "SAR": 0.10174609488228,
      "SamplesPerPixel": 1,
      "ScanOptions": "FS",
      "ScanningSequence": "EP",
      "SequenceVariant": [
        "SK",
        "SP"
],
      "SeriesDescription": "dwi_acq-DTI-30-p2",
      "SeriesNumber": 8,
      "SeriesTime": "094237.860000",
      "SliceThickness": 2.0,
      "SmallestImagePixelValue": 0,
      "SoftwareVersions": "syngo MR E11",
      "SpacingBetweenSlices": 2.0,
      "SpecificCharacterSet": "ISO_IR 100",
      "StudyID": "68",
      "StudyTime": "090430.606000",
      "TransmitCoilName": "Body",
      "VariableFlipAngleFlag": "N",
      "WindowCenterWidthExplanation": "Algo1",
      "dBdt": 0.0},
    "slices": {
      "AcquisitionTime": ["094234.035000", "094230.195000", "094234.145000", "094230.305000", "094234.255000", "094230.415000", "094234.365000", "094230.525000", "094234.472500", "094230.632500", "094234.582500", "094230.742500", "094234.692500", "094230.852500", "094234.802500", "094230.962500", "094234.912500", "094231.072500", "094235.022500", "094231.182500", "094235.132500", "094231.292500", "094235.242500", "094231.402500", "094235.352500", "094231.512500", "094235.460000", "094231.620000", "094235.570000", "094231.730000", "094235.680000", "094231.840000", "094235.790000", "094231.950000", "094235.900000", "094232.060000", "094236.010000", "094232.170000", "094236.120000", "094232.280000", "094236.230000", "094232.390000", "094236.337500", "094232.500000", "094236.447500", "094232.607500", "094236.557500", "094232.717500", "094236.667500", "094232.827500", "094236.777500", "094232.937500", "094236.887500", "094233.047500", "094236.997500", "094233.157500", "094237.107500", "094233.267500", "094237.217500", "094233.377500", "094237.325000", "094233.485000", "094237.435000", "094233.595000", "094237.545000", "094233.705000", "094237.655000", "094233.815000", "094237.765000", "094233.925000", "094241.735000", "094237.895000", "094241.845000", "094238.005000", "094241.955000", "094238.115000", "094242.065000", "094238.225000", "094242.172500", "094238.332500", "094242.282500", "094238.442500", "094242.392500", "094238.552500", "094242.502500", "094238.662500", "094242.612500", "094238.772500", "094242.722500", "094238.882500", "094242.832500", "094238.992500", "094242.942500", "094239.102500", "094243.052500", "094239.212500", "094243.160000", "094239.320000", "094243.270000", "094239.430000", "094243.380000", "094239.540000", "094243.490000", "094239.650000", "094243.600000", "094239.760000", "094243.710000", "094239.870000", "094243.820000", "094239.980000", "094243.930000", "094240.090000", "094244.037500", "094240.200000", "094244.147500", "094240.307500", "094244.257500", "094240.417500", "094244.367500", "094240.527500", "094244.477500", "094240.637500", "094244.587500", "094240.747500", "094244.697500", "094240.857500", "094244.807500", "094240.967500", "094244.917500", "094241.077500", "094245.025000", "094241.185000", "094245.135000", "094241.295000", "094245.245000", "094241.405000", "094245.355000", "094241.515000", "094245.465000", "094241.625000", "094249.435000", "094245.595000", "094249.545000", "094245.705000", "094249.655000", "094245.815000", "094249.765000", "094245.925000", "094249.872500", "094246.032500", "094249.982500", "094246.142500", "094250.092500", "094246.252500", "094250.202500", "094246.362500", "094250.312500", "094246.472500", "094250.422500", "094246.582500", "094250.532500", "094246.692500", "094250.642500", "094246.802500", "094250.752500", "094246.912500", "094250.860000", "094247.020000", "094250.970000", "094247.130000", "094251.080000", "094247.240000", "094251.190000", "094247.350000", "094251.300000", "094247.460000", "094251.410000", "094247.570000", "094251.520000", "094247.680000", "094251.630000", "094247.790000", "094251.737500", "094247.900000", "094251.847500", "094248.007500", "094251.957500", "094248.117500", "094252.067500", "094248.227500", "094252.177500", "094248.337500", "094252.287500", "094248.447500", "094252.397500", "094248.557500", "094252.507500", "094248.667500", "094252.617500", "094248.777500", "094252.725000", "094248.885000", "094252.835000", "094248.995000", "094252.945000", "094249.105000", "094253.055000", "094249.215000", "094253.165000", "094249.325000", "094257.135000", "094253.295000", "094257.245000", "094253.405000", "094257.355000", "094253.515000", "094257.465000", "094253.625000", "094257.572500", "094253.732500", "094257.682500", "094253.842500", "094257.792500", "094253.952500", "094257.902500", "094254.062500", "094258.012500", "094254.172500", "094258.122500", "094254.282500", "094258.232500", "094254.392500", "094258.342500", "094254.502500", "094258.452500", "094254.612500", "094258.560000", "094254.720000", "094258.670000", "094254.830000", "094258.780000", "094254.940000", "094258.890000", "094255.050000", "094259.000000", "094255.160000", "094259.110000", "094255.270000", "094259.220000", "094255.380000", "094259.330000", "094255.490000", "094259.437500", "094255.600000", "094259.547500", "094255.707500", "094259.657500", "094255.817500", "094259.767500", "094255.927500", "094259.877500", "094256.037500", "094259.987500", "094256.147500", "094300.097500", "094256.257500", "094300.207500", "094256.367500", "094300.317500", "094256.477500", "094300.425000", "094256.585000", "094300.535000", "094256.695000", "094300.645000", "094256.805000", "094300.755000", "094256.915000", "094300.865000", "094257.025000", "094304.835000", "094300.995000", "094304.945000", "094301.105000", "094305.055000", "094301.215000", "094305.165000", "094301.325000", "094305.272500", "094301.432500", "094305.382500", "094301.542500", "094305.492500", "094301.652500", "094305.602500", "094301.762500", "094305.712500", "094301.872500", "094305.822500", "094301.982500", "094305.932500", "094302.092500", "094306.042500", "094302.202500", "094306.152500", "094302.312500", "094306.260000", "094302.420000", "094306.370000", "094302.530000", "094306.480000", "094302.640000", "094306.590000", "094302.750000", "094306.700000", "094302.860000", "094306.810000", "094302.970000", "094306.920000", "094303.080000", "094307.030000", "094303.190000", "094307.137500", "094303.300000", "094307.247500", "094303.407500", "094307.357500", "094303.517500", "094307.467500", "094303.627500", "094307.577500", "094303.737500", "094307.687500", "094303.847500", "094307.797500", "094303.957500", "094307.907500", "094304.067500", "094308.017500", "094304.177500", "094308.125000", "094304.285000", "094308.235000", "094304.395000", "094308.345000", "094304.505000", "094308.455000", "094304.615000", "094308.565000", "094304.725000", "094312.535000", "094308.695000", "094312.645000", "094308.805000", "094312.755000", "094308.915000", "094312.865000", "094309.025000", "094312.972500", "094309.132500", "094313.082500", "094309.242500", "094313.192500", "094309.352500", "094313.302500", "094309.462500", "094313.412500", "094309.572500", "094313.522500", "094309.682500", "094313.632500", "094309.792500", "094313.742500", "094309.902500", "094313.852500", "094310.012500", "094313.960000", "094310.120000", "094314.070000", "094310.230000", "094314.180000", "094310.340000", "094314.290000", "094310.450000", "094314.400000", "094310.560000", "094314.510000", "094310.670000", "094314.620000", "094310.780000", "094314.730000", "094310.890000", "094314.837500", "094311.000000", "094314.947500", "094311.107500", "094315.057500", "094311.217500", "094315.167500", "094311.327500", "094315.277500", "094311.437500", "094315.387500", "094311.547500", "094315.497500", "094311.657500", "094315.607500", "094311.767500", "094315.717500", "094311.877500", "094315.825000", "094311.985000", "094315.935000", "094312.095000", "094316.045000", "094312.205000", "094316.155000", "094312.315000", "094316.265000", "094312.425000", "094320.235000", "094316.395000", "094320.345000", "094316.505000", "094320.455000", "094316.615000", "094320.565000", "094316.725000", "094320.672500", "094316.832500", "094320.782500", "094316.942500", "094320.892500", "094317.052500", "094321.002500", "094317.162500", "094321.112500", "094317.272500", "094321.222500", "094317.382500", "094321.332500", "094317.492500", "094321.442500", "094317.602500", "094321.552500", "094317.712500", "094321.660000", "094317.820000", "094321.770000", "094317.930000", "094321.880000", "094318.040000", "094321.990000", "094318.150000", "094322.100000", "094318.260000", "094322.210000", "094318.370000", "094322.320000", "094318.480000", "094322.430000", "094318.590000", "094322.537500", "094318.700000", "094322.647500", "094318.807500", "094322.757500", "094318.917500", "094322.867500", "094319.027500", "094322.977500", "094319.137500", "094323.087500", "094319.247500", "094323.197500", "094319.357500", "094323.307500", "094319.467500", "094323.417500", "094319.577500", "094323.525000", "094319.685000", "094323.635000", "094319.795000", "094323.745000", "094319.905000", "094323.855000", "094320.015000", "094323.965000", "094320.125000", "094327.935000", "094324.095000", "094328.045000", "094324.205000", "094328.155000", "094324.315000", "094328.265000", "094324.425000", "094328.372500", "094324.532500", "094328.482500", "094324.642500", "094328.592500", "094324.752500", "094328.702500", "094324.862500", "094328.812500", "094324.972500", "094328.922500", "094325.082500", "094329.032500", "094325.192500", "094329.142500", "094325.302500", "094329.252500", "094325.412500", "094329.360000", "094325.520000", "094329.470000", "094325.630000", "094329.580000", "094325.740000", "094329.690000", "094325.850000", "094329.800000", "094325.960000", "094329.910000", "094326.070000", "094330.020000", "094326.180000", "094330.130000", "094326.290000", "094330.237500", "094326.400000", "094330.347500", "094326.507500", "094330.457500", "094326.617500", "094330.567500", "094326.727500", "094330.677500", "094326.837500", "094330.787500", "094326.947500", "094330.897500", "094327.057500", "094331.007500", "094327.167500", "094331.117500", "094327.277500", "094331.225000", "094327.385000", "094331.335000", "094327.495000", "094331.445000", "094327.605000", "094331.555000", "094327.715000", "094331.665000", "094327.825000", "094335.635000", "094331.795000", "094335.745000", "094331.905000", "094335.855000", "094332.015000", "094335.965000", "094332.125000", "094336.072500", "094332.232500", "094336.182500", "094332.342500", "094336.292500", "094332.452500", "094336.402500", "094332.562500", "094336.512500", "094332.672500", "094336.622500", "094332.782500", "094336.732500", "094332.892500", "094336.842500", "094333.002500", "094336.952500", "094333.112500", "094337.060000", "094333.220000", "094337.170000", "094333.330000", "094337.280000", "094333.440000", "094337.390000", "094333.550000", "094337.500000", "094333.660000", "094337.610000", "094333.770000", "094337.720000", "094333.880000", "094337.830000", "094333.990000", "094337.937500", "094334.100000", "094338.047500", "094334.207500", "094338.157500", "094334.317500", "094338.267500", "094334.427500", "094338.377500", "094334.537500", "094338.487500", "094334.647500", "094338.597500", "094334.757500", "094338.707500", "094334.867500", "094338.817500", "094334.977500", "094338.925000", "094335.085000", "094339.035000", "094335.195000", "094339.145000", "094335.305000", "094339.255000", "094335.415000", "094339.365000", "094335.525000", "094343.335000", "094339.495000", "094343.445000", "094339.605000", "094343.555000", "094339.715000", "094343.665000", "094339.825000", "094343.772500", "094339.932500", "094343.882500", "094340.042500", "094343.992500", "094340.152500", "094344.102500", "094340.262500", "094344.212500", "094340.372500", "094344.322500", "094340.482500", "094344.432500", "094340.592500", "094344.542500", "094340.702500", "094344.652500", "094340.812500", "094344.760000", "094340.920000", "094344.870000", "094341.030000", "094344.980000", "094341.140000", "094345.090000", "094341.250000", "094345.200000", "094341.360000", "094345.310000", "094341.470000", "094345.420000", "094341.580000", "094345.530000", "094341.690000", "094345.637500", "094341.800000", "094345.747500", "094341.907500", "094345.857500", "094342.017500", "094345.967500", "094342.127500", "094346.077500", "094342.237500", "094346.187500", "094342.347500", "094346.297500", "094342.457500", "094346.407500", "094342.567500", "094346.517500", "094342.677500", "094346.625000", "094342.785000", "094346.735000", "094342.895000", "094346.845000", "094343.005000", "094346.955000", "094343.115000", "094347.065000", "094343.225000", "094351.035000", "094347.195000", "094351.145000", "094347.305000", "094351.255000", "094347.415000", "094351.365000", "094347.525000", "094351.472500", "094347.632500", "094351.582500", "094347.742500", "094351.692500", "094347.852500", "094351.802500", "094347.962500", "094351.912500", "094348.072500", "094352.022500", "094348.182500", "094352.132500", "094348.292500", "094352.242500", "094348.402500", "094352.352500", "094348.512500", "094352.460000", "094348.620000", "094352.570000", "094348.730000", "094352.680000", "094348.840000", "094352.790000", "094348.950000", "094352.900000", "094349.060000", "094353.010000", "094349.170000", "094353.120000", "094349.280000", "094353.230000", "094349.390000", "094353.337500", "094349.500000", "094353.447500", "094349.607500", "094353.557500", "094349.717500", "094353.667500", "094349.827500", "094353.777500", "094349.937500", "094353.887500", "094350.047500", "094353.997500", "094350.157500", "094354.107500", "094350.267500", "094354.217500", "094350.377500", "094354.325000", "094350.485000", "094354.435000", "094350.595000", "094354.545000", "094350.705000", "094354.655000", "094350.815000", "094354.765000", "094350.925000", "094358.735000", "094354.895000", "094358.845000", "094355.005000", "094358.955000", "094355.115000", "094359.065000", "094355.225000", "094359.172500", "094355.332500", "094359.282500", "094355.442500", "094359.392500", "094355.552500", "094359.502500", "094355.662500", "094359.612500", "094355.772500", "094359.722500", "094355.882500", "094359.832500", "094355.992500", "094359.942500", "094356.102500", "094400.052500", "094356.212500", "094400.160000", "094356.320000", "094400.270000", "094356.430000", "094400.380000", "094356.540000", "094400.490000", "094356.650000", "094400.600000", "094356.760000", "094400.710000", "094356.870000", "094400.820000", "094356.980000", "094400.930000", "094357.090000", "094401.037500", "094357.200000", "094401.147500", "094357.307500", "094401.257500", "094357.417500", "094401.367500", "094357.527500", "094401.477500", "094357.637500", "094401.587500", "094357.747500", "094401.697500", "094357.857500", "094401.807500", "094357.967500", "094401.917500", "094358.077500", "094402.025000", "094358.185000", "094402.135000", "094358.295000", "094402.245000", "094358.405000", "094402.355000", "094358.515000", "094402.465000", "094358.625000", "094406.435000", "094402.595000", "094406.545000", "094402.705000", "094406.655000", "094402.815000", "094406.765000", "094402.925000", "094406.872500", "094403.032500", "094406.982500", "094403.142500", "094407.092500", "094403.252500", "094407.202500", "094403.362500", "094407.312500", "094403.472500", "094407.422500", "094403.582500", "094407.532500", "094403.692500", "094407.642500", "094403.802500", "094407.752500", "094403.912500", "094407.860000", "094404.020000", "094407.970000", "094404.130000", "094408.080000", "094404.240000", "094408.190000", "094404.350000", "094408.300000", "094404.460000", "094408.410000", "094404.570000", "094408.520000", "094404.680000", "094408.630000", "094404.790000", "094408.737500", "094404.900000", "094408.847500", "094405.007500", "094408.957500", "094405.117500", "094409.067500", "094405.227500", "094409.177500", "094405.337500", "094409.287500", "094405.447500", "094409.397500", "094405.557500", "094409.507500", "094405.667500", "094409.617500", "094405.777500", "094409.725000", "094405.885000", "094409.835000", "094405.995000", "094409.945000", "094406.105000", "094410.055000", "094406.215000", "094410.165000", "094406.325000", "094414.135000", "094410.295000", "094414.245000", "094410.405000", "094414.355000", "094410.515000", "094414.465000", "094410.625000", "094414.572500", "094410.732500", "094414.682500", "094410.842500", "094414.792500", "094410.952500", "094414.902500", "094411.062500", "094415.012500", "094411.172500", "094415.122500", "094411.282500", "094415.232500", "094411.392500", "094415.342500", "094411.502500", "094415.452500", "094411.612500", "094415.560000", "094411.720000", "094415.670000", "094411.830000", "094415.780000", "094411.940000", "094415.890000", "094412.050000", "094416.000000", "094412.160000", "094416.110000", "094412.270000", "094416.220000", "094412.380000", "094416.330000", "094412.490000", "094416.437500", "094412.600000", "094416.547500", "094412.707500", "094416.657500", "094412.817500", "094416.767500", "094412.927500", "094416.877500", "094413.037500", "094416.987500", "094413.147500", "094417.097500", "094413.257500", "094417.207500", "094413.367500", "094417.317500", "094413.477500", "094417.425000", "094413.585000", "094417.535000", "094413.695000", "094417.645000", "094413.805000", "094417.755000", "094413.915000", "094417.865000", "094414.025000", "094421.835000", "094417.995000", "094421.945000", "094418.105000", "094422.055000", "094418.215000", "094422.165000", "094418.325000", "094422.272500", "094418.432500", "094422.382500", "094418.542500", "094422.492500", "094418.652500", "094422.602500", "094418.762500", "094422.712500", "094418.872500", "094422.822500", "094418.982500", "094422.932500", "094419.092500", "094423.042500", "094419.202500", "094423.152500", "094419.312500", "094423.260000", "094419.420000", "094423.370000", "094419.530000", "094423.480000", "094419.640000", "094423.590000", "094419.750000", "094423.700000", "094419.860000", "094423.810000", "094419.970000", "094423.920000", "094420.080000", "094424.030000", "094420.190000", "094424.137500", "094420.300000", "094424.247500", "094420.407500", "094424.357500", "094420.517500", "094424.467500", "094420.627500", "094424.577500", "094420.737500", "094424.687500", "094420.847500", "094424.797500", "094420.957500", "094424.907500", "094421.067500", "094425.017500", "094421.177500", "094425.125000", "094421.285000", "094425.235000", "094421.395000", "094425.345000", "094421.505000", "094425.455000", "094421.615000", "094425.565000", "094421.725000", "094429.535000", "094425.695000", "094429.645000", "094425.805000", "094429.755000", "094425.915000", "094429.865000", "094426.025000", "094429.972500", "094426.132500", "094430.082500", "094426.242500", "094430.192500", "094426.352500", "094430.302500", "094426.462500", "094430.412500", "094426.572500", "094430.522500", "094426.682500", "094430.632500", "094426.792500", "094430.742500", "094426.902500", "094430.852500", "094427.012500", "094430.960000", "094427.120000", "094431.070000", "094427.230000", "094431.180000", "094427.340000", "094431.290000", "094427.450000", "094431.400000", "094427.560000", "094431.510000", "094427.670000", "094431.620000", "094427.780000", "094431.730000", "094427.890000", "094431.837500", "094428.000000", "094431.947500", "094428.107500", "094432.057500", "094428.217500", "094432.167500", "094428.327500", "094432.277500", "094428.437500", "094432.387500", "094428.547500", "094432.497500", "094428.657500", "094432.607500", "094428.767500", "094432.717500", "094428.877500", "094432.825000", "094428.985000", "094432.935000", "094429.095000", "094433.045000", "094429.205000", "094433.155000", "094429.315000", "094433.265000", "094429.425000", "094437.235000", "094433.395000", "094437.345000", "094433.505000", "094437.455000", "094433.615000", "094437.565000", "094433.725000", "094437.672500", "094433.832500", "094437.782500", "094433.942500", "094437.892500", "094434.052500", "094438.002500", "094434.162500", "094438.112500", "094434.272500", "094438.222500", "094434.382500", "094438.332500", "094434.492500", "094438.442500", "094434.602500", "094438.552500", "094434.712500", "094438.660000", "094434.820000", "094438.770000", "094434.930000", "094438.880000", "094435.040000", "094438.990000", "094435.150000", "094439.100000", "094435.260000", "094439.210000", "094435.370000", "094439.320000", "094435.480000", "094439.430000", "094435.590000", "094439.537500", "094435.700000", "094439.647500", "094435.807500", "094439.757500", "094435.917500", "094439.867500", "094436.027500", "094439.977500", "094436.137500", "094440.087500", "094436.247500", "094440.197500", "094436.357500", "094440.307500", "094436.467500", "094440.417500", "094436.577500", "094440.525000", "094436.685000", "094440.635000", "094436.795000", "094440.745000", "094436.905000", "094440.855000", "094437.015000", "094440.965000", "094437.125000", "094444.935000", "094441.095000", "094445.045000", "094441.205000", "094445.155000", "094441.315000", "094445.265000", "094441.425000", "094445.372500", "094441.532500", "094445.482500", "094441.642500", "094445.592500", "094441.752500", "094445.702500", "094441.862500", "094445.812500", "094441.972500", "094445.922500", "094442.082500", "094446.032500", "094442.192500", "094446.142500", "094442.302500", "094446.252500", "094442.412500", "094446.360000", "094442.520000", "094446.470000", "094442.630000", "094446.580000", "094442.740000", "094446.690000", "094442.850000", "094446.800000", "094442.960000", "094446.910000", "094443.070000", "094447.020000", "094443.180000", "094447.130000", "094443.290000", "094447.237500", "094443.400000", "094447.347500", "094443.507500", "094447.457500", "094443.617500", "094447.567500", "094443.727500", "094447.677500", "094443.837500", "094447.787500", "094443.947500", "094447.897500", "094444.057500", "094448.007500", "094444.167500", "094448.117500", "094444.277500", "094448.225000", "094444.385000", "094448.335000", "094444.495000", "094448.445000", "094444.605000", "094448.555000", "094444.715000", "094448.665000", "094444.825000", "094452.635000", "094448.795000", "094452.745000", "094448.905000", "094452.855000", "094449.015000", "094452.965000", "094449.125000", "094453.072500", "094449.232500", "094453.182500", "094449.342500", "094453.292500", "094449.452500", "094453.402500", "094449.562500", "094453.512500", "094449.672500", "094453.622500", "094449.782500", "094453.732500", "094449.892500", "094453.842500", "094450.002500", "094453.952500", "094450.112500", "094454.060000", "094450.220000", "094454.170000", "094450.330000", "094454.280000", "094450.440000", "094454.390000", "094450.550000", "094454.500000", "094450.660000", "094454.610000", "094450.770000", "094454.720000", "094450.880000", "094454.830000", "094450.990000", "094454.937500", "094451.100000", "094455.047500", "094451.207500", "094455.157500", "094451.317500", "094455.267500", "094451.427500", "094455.377500", "094451.537500", "094455.487500", "094451.647500", "094455.597500", "094451.757500", "094455.707500", "094451.867500", "094455.817500", "094451.977500", "094455.925000", "094452.085000", "094456.035000", "094452.195000", "094456.145000", "094452.305000", "094456.255000", "094452.415000", "094456.365000", "094452.525000", "094500.335000", "094456.495000", "094500.445000", "094456.605000", "094500.555000", "094456.715000", "094500.665000", "094456.825000", "094500.772500", "094456.932500", "094500.882500", "094457.042500", "094500.992500", "094457.152500", "094501.102500", "094457.262500", "094501.212500", "094457.372500", "094501.322500", "094457.482500", "094501.432500", "094457.592500", "094501.542500", "094457.702500", "094501.652500", "094457.812500", "094501.760000", "094457.920000", "094501.870000", "094458.030000", "094501.980000", "094458.140000", "094502.090000", "094458.250000", "094502.200000", "094458.360000", "094502.310000", "094458.470000", "094502.420000", "094458.580000", "094502.530000", "094458.690000", "094502.637500", "094458.800000", "094502.747500", "094458.907500", "094502.857500", "094459.017500", "094502.967500", "094459.127500", "094503.077500", "094459.237500", "094503.187500", "094459.347500", "094503.297500", "094459.457500", "094503.407500", "094459.567500", "094503.517500", "094459.677500", "094503.625000", "094459.785000", "094503.735000", "094459.895000", "094503.845000", "094500.005000", "094503.955000", "094500.115000", "094504.065000", "094500.225000", "094508.035000", "094504.195000", "094508.145000", "094504.305000", "094508.255000", "094504.415000", "094508.365000", "094504.525000", "094508.472500", "094504.632500", "094508.582500", "094504.742500", "094508.692500", "094504.852500", "094508.802500", "094504.962500", "094508.912500", "094505.072500", "094509.022500", "094505.182500", "094509.132500", "094505.292500", "094509.242500", "094505.402500", "094509.352500", "094505.512500", "094509.460000", "094505.620000", "094509.570000", "094505.730000", "094509.680000", "094505.840000", "094509.790000", "094505.950000", "094509.900000",