{
  "AcquisitionMatrixPE": 80,
  "AcquisitionNumber": 1,
  "AcquisitionTime": "09:22:36.492500",
  "BandwidthPerPixelPhaseEncode": 48.077,
  "BaseResolution": 80,
  "BodyPartExamined": "BRAIN",
  "CoilCombinationMethod": "Sum of Squares",
  "ConsistencyInfo": "N4_VE11C_LATEST_20160120",
  "ConversionSoftware": "dcm2niix",
  "ConversionSoftwareVersion": "v1.0.20220720",
  "DerivedVendorReportedEchoSpacing": 0.000519999,
  "DeviceSerialNumber": "66112",
  "DwellTime": 2.7e-06,
  "EchoTime": 0.035,
  "EchoTrainLength": 39,
  "EffectiveEchoSpacing": 0.00026,
  "FlipAngle": 90,
  "HeudiconvVersion": "0.13.1",
  "ImageOrientationPatientDICOM": [0.989986, 0.140934, 0.00803273, -0.135963, 0.936677, 0.322724],
  "ImageOrientationText": "Tra>Cor(18.7)>Sag(-2.2)",
  "ImageType": [
    "ORIGINAL",
    "PRIMARY",
    "M",
    "ND",
    "NORM",
    "MOSAIC"
],
  "ImagingFrequency": 123.252,
  "InPlanePhaseEncodingDirectionDICOM": "COL",
  "InstitutionAddress": "Maynard 3,Hanover,NH,US,03755",
  "InstitutionName": "Dartmouth College - PBS",
  "InstitutionalDepartmentName": "Department",
  "MRAcquisitionType": "2D",
  "MagneticFieldStrength": 3,
  "Manufacturer": "Siemens",
  "ManufacturersModelName": "Prisma",
  "MatrixCoilMode": "GRAPPA",
  "Modality": "MR",
  "NonlinearGradientCorrection": false,
  "ParallelReductionFactorInPlane": 2,
  "PartialFourier": 1,
  "PatientPosition": "HFS",
  "PercentPhaseFOV": 100,
  "PercentSampling": 100,
  "PhaseEncodingDirection": "j-",
  "PhaseEncodingSteps": 79,
  "PhaseResolution": 1,
  "PixelBandwidth": 2315,
  "ProcedureStepDescription": "dbic^QA",
  "ProtocolName": "func-bold_task-rest_acq-p2",
  "PulseSequenceDetails": "%SiemensSeq%\\ep2d_bold",
  "ReceiveCoilActiveElements": "HC1-7;NC1,2",
  "ReceiveCoilName": "HeadNeck_64",
  "ReconMatrixPE": 80,
  "RefLinesPE": 24,
  "RepetitionTime": 2,
  "SAR": 0.0409524,
  "ScanOptions": "FS",
  "ScanningSequence": "EP",
  "SequenceName": "*epfid2d1_80",
  "SequenceVariant": "SK",
  "SeriesDescription": "func-bold_task-rest_acq-p2",
  "SeriesNumber": 5,
  "ShimSetting": [4139, -7702, -7514, 172, -65, -232, -109, 76],
  "SliceThickness": 3.5,
  "SliceTiming": [0.99, 0, 1.055, 0.065, 1.12, 0.13, 1.1875, 0.1975, 1.2525, 0.2625, 1.3175, 0.33, 1.385, 0.395, 1.45, 0.46, 1.5175, 0.5275, 1.5825, 0.5925, 1.6475, 0.66, 1.715, 0.725, 1.78, 0.79, 1.8475, 0.8575, 1.9125, 0.9225],
  "SoftwareVersions": "syngo MR E11",
  "SpacingBetweenSlices": 3.99,
  "StationName": "AWP66112",
  "TaskName": "rest",
  "TotalReadoutTime": 0.02054,
  "TxRefAmp": 208.418,
  "dcmmeta_affine": [
    [-2.969959259033203, -0.40789005160331726, -0.15145540237426758, 139.94541931152344],
    [-0.42280179262161255, 2.8100297451019287, 1.2791337966918945, -113.1342544555664],
    [0.02409818395972252, -0.968173086643219, 3.7763710021972656, -9.905988693237305],
    [0.0, 0.0, 0.0, 1.0]
],
  "dcmmeta_reorient_transform": [
    [0.0, -1.0, 0.0, 79.0],
    [1.0, 0.0, 0.0, 0.0],
    [0.0, 0.0, 1.0, 0.0],
    [0.0, 0.0, 0.0, 1.0]
],
  "dcmmeta_shape": [80, 80, 30, 200],
  "dcmmeta_slice_dim": 2,
  "dcmmeta_version": 0.6,
  "global": {
    "const": {
      "AccessionNumber": "qa64",
      "AcquisitionMatrix": [80, 0, 0, 80],
      "AngioFlag": "N",
      "BitsAllocated": 16,
      "BitsStored": 12,
      "BodyPartExamined": "BRAIN",
      "Columns": 480,
      "EchoNumbers": 1,
      "EchoTime": 35.0,
      "EchoTrainLength": 39,
      "FlipAngle": 90.0,
      "HighBit": 11,
      "ImageOrientationPatient": [0.98998641471624, 0.14093393473786, 0.00803272784201, -0.1359633485131, 0.9366765436825, 0.32272437214458],
      "ImagePositionPatient": [-620.13594654111, -755.42437287758, -284.8459252838],
      "ImageType": [
        "ORIGINAL",
        "PRIMARY",
        "M",
        "ND",
        "NORM",
        "MOSAIC"
],
      "ImagedNucleus": "1H",
      "ImagingFrequency": 123.252365,
      "InPlanePhaseEncodingDirection": "COL",
      "LargestImagePixelValue": 4095,
      "MRAcquisitionType": "2D",
      "MagneticFieldStrength": 3.0,
      "Manufacturer": "SIEMENS",
      "ManufacturerModelName": "Prisma",
      "Modality": "MR",
      "NumberOfAverages": 1.0,
      "NumberOfPhaseEncodingSteps": 79,
      "PercentPhaseFieldOfView": 100.0,
      "PercentSampling": 100.0,
      "PerformedProcedureStepStartTime": "092114.787000",
      "PhotometricInterpretation": "MONOCHROME2",
      "PixelBandwidth": 2315.0,
      "PixelRepresentation": 0,
      "PixelSpacing": [3.0, 3.0],
      "ProtocolName": "func-bold_task-rest_acq-p2",
      "RepetitionTime": 2000.0,
      "Rows": 480,
      "SAR": 0.04095240453798,
      "SamplesPerPixel": 1,
      "ScanOptions": "FS",
      "ScanningSequence": "EP",
      "SequenceName": "*epfid2d1_80",
      "SequenceVariant": "SK",
      "SeriesDescription": "func-bold_task-rest_acq-p2",
      "SeriesNumber": 5,
      "SeriesTime": "092317.561000",
      "SliceLocation": -50.956898409548,
      "SliceThickness": 3.5,
      "SmallestImagePixelValue": 0,
      "SoftwareVersions": "syngo MR E11",
      "SpacingBetweenSlices": 3.9899999838944,
      "SpecificCharacterSet": "ISO_IR 100",
      "StudyID": "29",
      "StudyTime": "092114.668000",
      "TransmitCoilName": "Body",
      "VariableFlipAngleFlag": "N",
      "WindowCenterWidthExplanation": "Algo1",
      "dBdt": 0.0},
    "slices": {}
  },
  "time": {
    "samples": {
      "AcquisitionNumber": [1, 2, 3, 4, 5, 6, 7, 8, 9, 10, 11, 12, 13, 14, 15, 16, 17, 18, 19, 20, 21, 22, 23, 24, 25, 26, 27, 28, 29, 30, 31, 32, 33, 34, 35, 36, 37, 38, 39, 40, 41, 42, 43, 44, 45, 46, 47, 48, 49, 50, 51, 52, 53, 54, 55, 56, 57, 58, 59, 60, 61, 62, 63, 64, 65, 66, 67, 68, 69, 70, 71, 72, 73, 74, 75, 76, 77, 78, 79, 80, 81, 82, 83, 84, 85, 86, 87, 88, 89, 90, 91, 92, 93, 94, 95, 96, 97, 98, 99, 100, 101, 102, 103, 104, 105, 106, 107, 108, 109, 110, 111, 112, 113, 114, 115, 116, 117, 118, 119, 120, 121, 122, 123, 124, 125, 126, 127, 128, 129, 130, 131, 132, 133, 134, 135, 136, 137, 138, 139, 140, 141, 142, 143, 144, 145, 146, 147, 148, 149, 150, 151, 152, 153, 154, 155, 156, 157, 158, 159, 160, 161, 162, 163, 164, 165, 166, 167, 168, 169, 170, 171, 172, 173, 174, 175, 176, 177, 178, 179, 180, 181, 182, 183, 184, 185, 186, 187, 188, 189, 190, 191, 192, 193, 194, 195, 196, 197, 198, 199, 200],
      "AcquisitionTime": ["092236.492500", "092238.492500", "092240.492500", "092242.492500", "092244.492500", "092246.492500", "092248.492500", "092250.492500", "092252.492500", "092254.492500", "092256.492500", "092258.492500", "092300.492500", "092302.492500", "092304.492500", "092306.492500", "092308.492500", "092310.492500", "092312.492500", "092314.492500", "092316.492500", "092318.492500", "092320.492500", "092322.492500", "092324.492500", "092326.492500", "092328.492500", "092330.492500", "092332.492500", "092334.492500", "092336.492500", "092338.492500", "092340.492500", "092342.492500", "092344.492500", "092346.492500", "092348.492500", "092350.492500", "092352.492500", "092354.492500", "092356.492500", "092358.492500", "092400.492500", "092402.492500", "092404.492500", "092406.492500", "092408.492500", "092410.492500", "092412.492500", "092414.492500", "092416.492500", "092418.492500", "092420.492500", "092422.492500", "092424.492500", "092426.492500", "092428.492500", "092430.492500", "092432.492500", "092434.492500", "092436.492500", "092438.492500", "092440.492500", "092442.492500", "092444.492500", "092446.492500", "092448.492500", "092450.492500", "092452.492500", "092454.492500", "092456.492500", "092458.492500", "092500.492500", "092502.492500", "092504.492500", "092506.492500", "092508.492500", "092510.492500", "092512.492500", "092514.492500", "092516.492500", "092518.492500", "092520.492500", "092522.492500", "092524.492500", "092526.492500", "092528.492500", "092530.492500", "092532.492500", "092534.492500", "092536.492500", "092538.492500", "092540.492500", "092542.492500", "092544.492500", "092546.492500", "092548.492500", "092550.492500", "092552.492500", "092554.492500", "092556.492500", "092558.492500", "092600.492500", "092602.492500", "092604.492500", "092606.492500", "092608.492500", "092610.492500", "092612.492500", "092614.492500", "092616.492500", "092618.492500", "092620.492500", "092622.492500", "092624.492500", "092626.492500", "092628.492500", "092630.492500", "092632.492500", "092634.492500", "092636.492500", "092638.492500", "092640.492500", "092642.492500", "092644.492500", "092646.492500", "092648.492500", "092650.492500", "092652.492500", "092654.492500", "092656.492500", "092658.492500", "092700.492500", "092702.492500", "092704.492500", "092706.492500", "092708.492500", "092710.492500", "092712.492500", "092714.492500", "092716.492500", "092718.492500", "092720.492500", "092722.492500", "092724.492500", "092726.492500", "092728.492500", "092730.492500", "092732.492500", "092734.492500", "092736.492500", "092738.492500", "092740.492500", "092742.492500", "092744.492500", "092746.492500", "092748.492500", "092750.492500", "092752.492500", "092754.492500", "092756.492500", "092758.492500", "092800.492500", "092802.492500", "092804.492500", "092806.492500", "092808.492500", "092810.492500", "092812.492500", "092814.492500", "092816.492500", "092818.492500", "092820.492500", "092822.492500", "092824.492500", "092826.492500", "092828.492500", "092830.492500", "092832.492500", "092834.492500", "092836.492500", "092838.492500", "092840.492500", "092842.492500", "092844.492500", "092846.492500", "092848.492500", "092850.492500", "092852.492500", "092854.492500", "092856.492500", "092858.492500", "092900.492500", "092902.492500", "092904.492500", "092906.492500", "092908.492500", "092910.492500", "092912.492500", "092914.492500"],
      "ContentTime": ["092317.565000", "092317.568000", "092317.571000", "092317.573000", "092317.576000", "092317.578000", "092317.581000", "092317.583000", "092317.586000", "092317.589000", "092317.591000", "092317.594000", "092317.605000", "092317.607000", "092317.610000", "092317.612000", "092317.615000", "092317.617000", "092317.620000", "092317.622000", "092357.561000", "092357.563000", "092357.566000", "092357.569000", "092357.571000", "092357.574000", "092357.576000", "092357.579000", "092357.581000", "092357.584000", "092357.586000", "092357.597000", "092357.599000", "092357.602000", "092357.604000", "092357.607000", "092357.609000", "092357.612000", "092357.614000", "092357.617000", "092437.560000", "092437.563000", "092437.566000", "092437.568000", "092437.571000", "092437.573000", "092437.576000", "092437.579000", "092437.581000", "092437.584000", "092437.586000", "092437.589000", "092437.591000", "092437.594000", "092437.596000", "092437.599000", "092437.601000", "092437.604000", "092437.606000", "092437.609000", "092517.560000", "092517.562000", "092517.565000", "092517.568000", "092517.570000", "092517.573000", "092517.575000", "092517.586000", "092517.589000", "092517.591000", "092517.594000", "092517.596000", "092517.599000", "092517.601000", "092517.604000", "092517.606000", "092517.609000", "092517.611000", "092517.614000", "092517.617000", "092557.560000", "092557.562000", "092557.565000", "092557.567000", "092557.570000", "092557.573000", "092557.575000", "092557.578000", "092557.580000", "092557.583000", "092557.585000", "092557.588000", "092557.590000", "092557.593000", "092557.595000", "092557.598000", "092557.600000", "092557.603000", "092557.605000", "092557.608000", "092637.561000", "092637.563000", "092637.566000", "092637.569000", "092637.571000", "092637.574000", "092637.576000", "092637.579000", "092637.581000", "092637.584000", "092637.586000", "092637.589000", "092637.592000", "092637.594000", "092637.597000", "092637.599000", "092637.602000", "092637.604000", "092637.607000", "092637.610000", "092717.561000", "092717.563000", "092717.566000", "092717.569000", "092717.571000", "092717.574000", "092717.576000", "092717.579000", "092717.581000", "092717.584000", "092717.587000", "092717.589000", "092717.592000", "092717.594000", "092717.597000", "092717.599000", "092717.602000", "092717.604000", "092717.607000", "092717.610000", "092757.559000", "092757.562000", "092757.565000", "092757.567000", "092757.570000", "092757.573000", "092757.575000", "092757.578000", "092757.580000", "092757.583000", "092757.585000", "092757.588000", "092757.590000", "092757.593000", "092757.595000", "092757.598000", "092757.600000", "092757.603000", "092757.606000", "092757.608000", "092837.560000", "092837.563000", "092837.566000", "092837.568000", "092837.571000", "092837.574000", "092837.576000", "092837.579000", "092837.581000", "092837.584000", "092837.586000", "092837.589000", "092837.592000", "092837.594000", "092837.597000", "092837.599000", "092837.602000", "092837.604000", "092837.607000", "092837.609000", "092915.964000", "092915.967000", "092915.970000", "092915.973000", "092915.975000", "092915.978000", "092915.981000", "092915.983000", "092915.986000", "092915.988000", "092915.991000", "092916.003000", "092916.006000", "092916.010000", "092916.015000", "092916.018000", "092916.023000", "092916.027000", "092916.031000", "092916.035000"],
      "InstanceCreationTime": ["092317.565000", "092317.568000", "092317.571000", "092317.573000", "092317.576000", "092317.578000", "092317.581000", "092317.583000", "092317.586000", "092317.589000", "092317.591000", "092317.594000", "092317.605000", "092317.607000", "092317.610000", "092317.612000", "092317.615000", "092317.617000", "092317.620000", "092317.622000", "092357.561000", "092357.563000", "092357.566000", "092357.569000", "092357.571000", "092357.574000", "092357.576000", "092357.579000", "092357.581000", "092357.584000", "092357.586000", "092357.597000", "092357.599000", "092357.602000", "092357.604000", "092357.607000", "092357.609000", "092357.612000", "092357.614000", "092357.617000", "092437.560000", "092437.563000", "092437.566000", "092437.568000", "092437.571000", "092437.573000", "092437.576000", "092437.579000", "092437.581000", "092437.584000", "092437.586000", "092437.589000", "092437.591000", "092437.594000", "092437.596000", "092437.599000", "092437.601000", "092437.604000", "092437.606000", "092437.609000", "092517.560000", "092517.562000", "092517.565000", "092517.568000", "092517.570000", "092517.573000", "092517.575000", "092517.586000", "092517.589000", "092517.591000", "092517.594000", "092517.596000", "092517.599000", "092517.601000", "092517.604000", "092517.606000", "092517.609000", "092517.611000", "092517.614000", "092517.617000", "092557.560000", "092557.562000", "092557.565000", "092557.567000", "092557.570000", "092557.573000", "092557.575000", "092557.578000", "092557.580000", "092557.583000", "092557.585000", "092557.588000", "092557.590000", "092557.593000", "092557.595000", "092557.598000", "092557.600000", "092557.603000", "092557.605000", "092557.608000", "092637.561000", "092637.563000", "092637.566000", "092637.569000", "092637.571000", "092637.574000", "092637.576000", "092637.579000", "092637.581000", "092637.584000", "092637.586000", "092637.589000", "092637.592000", "092637.594000", "092637.597000", "092637.599000", "092637.602000", "092637.604000", "092637.607000", "092637.610000", "092717.561000", "092717.563000", "092717.566000", "092717.569000", "092717.571000", "092717.574000", "092717.576000", "092717.579000", "092717.581000", "092717.584000", "092717.587000", "092717.589000", "092717.592000", "092717.594000", "092717.597000", "092717.599000", "092717.602000", "092717.604000", "092717.607000", "092717.610000", "092757.559000", "092757.562000", "092757.565000", "092757.567000", "092757.570000", "092757.573000", "092757.575000", "092757.578000", "092757.580000", "092757.583000", "092757.585000", "092757.588000", "092757.590000", "092757.593000", "092757.595000", "092757.598000", "092757.600000", "092757.603000", "092757.606000", "092757.608000", "092837.560000", "092837.563000", "092837.566000", "092837.568000", "092837.571000", "092837.574000", "092837.576000", "092837.579000", "092837.581000", "092837.584000", "092837.586000", "092837.589000", "092837.592000", "092837.594000", "092837.597000", "092837.599000", "092837.602000", "092837.604000", "092837.607000", "092837.609000", "092915.964000", "092915.967000", "092915.970000", "092915.973000", "092915.975000", "092915.978000", "092915.981000", "092915.983000", "092915.986000", "092915.988000", "092915.991000", "092916.003000", "092916.006000", "092916.010000", "092916.015000", "092916.018000", "092916.023000", "092916.027000", "092916.031000", "092916.035000"],
      "InstanceNumber": [1, 2, 3, 4, 5, 6, 7, 8, 9, 10, 11, 12, 13, 14, 15, 16, 17, 18, 19, 20, 21, 22, 23, 24, 25, 26, 27, 28, 29, 30, 31, 32, 33, 34, 35, 36, 37, 38, 39, 40, 41, 42, 43, 44, 45, 46, 47, 48, 49, 50, 51, 52, 53, 54, 55, 56, 57, 58, 59, 60, 61, 62, 63, 64, 65, 66, 67, 68, 69, 70, 71, 72, 73, 74, 75, 76, 77, 78, 79, 80, 81, 82, 83, 84, 85, 86, 87, 88, 89, 90, 91, 92, 93, 94, 95, 96, 97, 98, 99, 100, 101, 102, 103, 104, 105, 106, 107, 108, 109, 110, 111, 112, 113, 114, 115, 116, 117, 118, 119, 120, 121, 122, 123, 124, 125, 126, 127, 128, 129, 130, 131, 132, 133, 134, 135, 136, 137, 138, 139, 140, 141, 142, 143, 144, 145, 146, 147, 148, 149, 150, 151, 152, 153, 154, 155, 156, 157, 158, 159, 160, 161, 162, 163, 164, 165, 166, 167, 168, 169, 170, 171, 172, 173, 174, 175, 176, 177, 178, 179, 180, 181, 182, 183, 184, 185, 186, 187, 188, 189, 190, 191, 192, 193, 194, 195, 196, 197, 198, 199, 200],
      "WindowCenter": [1557.0, 1556.0, 1557.0, 1556.0, 1556.0, 1556.0, 1556.0, 1556.0, 1555.0, 1555.0, 1556.0, 1555.0, 1556.0, 1556.0, 1556.0, 1556.0, 1555.0, 1555.0, 1555.0, 1554.0, 1555.0, 1555.0, 1555.0, 1554.0, 1554.0, 1554.0, 1555.0, 1555.0, 1554.0, 1554.0, 1555.0, 1555.0, 1554.0, 1555.0, 1555.0, 1555.0, 1555.0, 1555.0, 1555.0, 1555.0, 1555.0, 1555.0, 1555.0, 1555.0, 1555.0, 1555.0, 1554.0, 1554.0, 1554.0, 1554.0, 1555.0, 1554.0, 1555.0, 1554.0, 1555.0, 1555.0, 1555.0, 1554.0, 1554.0, 1554.0, 1555.0, 1554.0, 1555.0, 1554.0, 1554.0, 1555.0, 1554.0, 1553.0, 1553.0, 1554.0, 1554.0, 1553.0, 1553.0, 1553.0, 1554.0, 1553.0, 1553.0, 1553.0, 1553.0, 1554.0, 1553.0, 1554.0, 1554.0, 1553.0, 1554.0, 1553.0, 1553.0, 1554.0, 1553.0, 1553.0, 1553.0, 1553.0, 1553.0, 1554.0, 1553.0, 1554.0, 1553.0, 1553.0, 1553.0, 1552.0, 1553.0, 1553.0, 1553.0, 1553.0, 1553.0, 1553.0, 1552.0, 1553.0, 1552.0, 1552.0, 1552.0, 1552.0, 1552.0, 1553.0, 1553.0, 1552.0, 1552.0, 1553.0, 1552.0, 1553.0, 1553.0, 1553.0, 1553.0, 1553.0, 1552.0, 1552.0, 1553.0, 1553.0, 1552.0, 1552.0, 1553.0, 1553.0, 1553.0, 1553.0, 1553.0, 1553.0, 1553.0, 1553.0, 1552.0, 1552.0, 1552.0, 1552.0, 1551.0, 1552.0, 1552.0, 1552.0, 1552.0, 1551.0, 1551.0, 1552.0, 1552.0, 1552.0, 1553.0, 1553.0, 1552.0, 1552.0, 1552.0, 1552.0, 1553.0, 1552.0, 1552.0, 1552.0, 1553.0, 1553.0, 1552.0, 1553.0, 1553.0, 1552.0, 1552.0, 1552.0, 1552.0, 1552.0, 1552.0, 1551.0, 1551.0, 1552.0, 1551.0, 1552.0, 1551.0, 1552.0, 1551.0, 1552.0, 1552.0, 1551.0, 1551.0, 1552.0, 1551.0, 1551.0, 1551.0, 1552.0, 1552.0, 1551.0, 1551.0, 1551.0, 1551.0, 1551.0, 1550.0, 1550.0, 1551.0, 1551.0],
      "WindowWidth": [3474.0, 3473.0, 3472.0, 3473.0, 3472.0, 3472.0, 3472.0, 3472.0, 3473.0, 3472.0, 3472.0, 3472.0, 3472.0, 3472.0, 3472.0, 3472.0, 3473.0, 3473.0, 3473.0, 3473.0, 3473.0, 3473.0, 3472.0, 3473.0, 3473.0, 3472.0, 3472.0, 3472.0, 3472.0, 3472.0, 3472.0, 3472.0, 3472.0, 3472.0, 3472.0, 3472.0, 3472.0, 3472.0, 3472.0, 3472.0, 3472.0, 3472.0, 3472.0, 3472.0, 3472.0, 3472.0, 3472.0, 3472.0, 3472.0, 3472.0, 3472.0, 3472.0, 3472.0, 3472.0, 3472.0, 3471.0, 3471.0, 3472.0, 3472.0, 3472.0, 3471.0, 3472.0, 3471.0, 3472.0, 3471.0, 3471.0, 3471.0, 3472.0, 3472.0, 3472.0, 3472.0, 3472.0, 3472.0, 3472.0, 3471.0, 3472.0, 3472.0, 3472.0, 3472.0, 3471.0, 3472.0, 3471.0, 3471.0, 3472.0, 3471.0, 3472.0, 3472.0, 3471.0, 3472.0, 3472.0, 3472.0, 3472.0, 3472.0, 3471.0, 3472.0, 3471.0, 3472.0, 3472.0, 3472.0, 3471.0, 3471.0, 3471.0, 3472.0, 3471.0, 3472.0, 3471.0, 3471.0, 3472.0, 3471.0, 3471.0, 3471.0, 3471.0, 3471.0, 3471.0, 3471.0, 3471.0, 3471.0, 3471.0, 3471.0, 3471.0, 3471.0, 3471.0, 3471.0, 3471.0, 3471.0, 3471.0, 3471.0, 3471.0, 3471.0, 3471.0, 3471.0, 3471.0, 3471.0, 3471.0, 3471.0, 3471.0, 3471.0, 3471.0, 3471.0, 3471.0, 3471.0, 3471.0, 3471.0, 3471.0, 3471.0, 3471.0, 3471.0, 3471.0, 3471.0, 3471.0, 3471.0, 3471.0, 3471.0, 3471.0, 3471.0, 3471.0, 3471.0, 3471.0, 3470.0, 3471.0, 3471.0, 3471.0, 3470.0, 3470.0, 3471.0, 3470.0, 3470.0, 3471.0, 3471.0, 3471.0, 3471.0, 3471.0, 3471.0, 3471.0, 3471.0, 3471.0, 3471.0, 3470.0, 3471.0, 3470.0, 3471.0, 3470.0, 3470.0, 3471.0, 3471.0, 3470.0, 3470.0, 3470.0, 3471.0, 3470.0, 3470.0, 3471.0, 3470.0, 3471.0, 3471.0, 3470.0, 3470.0, 3470.0, 3470.0, 3470.0]
    },
    "slices": {}
  }
}