{
  "AcquisitionMatrixPE": 80,
  "AcquisitionNumber": 1,
  "AcquisitionTime": "09:29:24.525000",
  "BandwidthPerPixelPhaseEncode": 25,
  "BaseResolution": 80,
  "BodyPartExamined": "BRAIN",
  "CoilCombinationMethod": "Sum of Squares",
  "ConsistencyInfo": "N4_VE11C_LATEST_20160120",
  "ConversionSoftware": "dcm2niix",
  "ConversionSoftwareVersion": "v1.0.20220720",
  "DerivedVendorReportedEchoSpacing": 0.0005,
  "DeviceSerialNumber": "66112",
  "DwellTime": 2.7e-06,
  "EchoTime": 0.03,
  "EchoTrainLength": 80,
  "EffectiveEchoSpacing": 0.0005,
  "FlipAngle": 77,
  "HeudiconvVersion": "0.13.1",
  "ImageOrientationPatientDICOM": [0.989986, 0.140934, 0.00803273, -0.135963, 0.936677, 0.322724],
  "ImageOrientationText": "Tra>Cor(18.7)>Sag(-2.2)",
  "ImageType": [
    "ORIGINAL",
    "PRIMARY",
    "M",
    "ND",
    "NORM",
    "MOSAIC"
],
  "ImagingFrequency": 123.252,
  "InPlanePhaseEncodingDirectionDICOM": "COL",
  "InstitutionAddress": "Maynard 3,Hanover,NH,US,03755",
  "InstitutionName": "Dartmouth College - PBS",
  "InstitutionalDepartmentName": "Department",
  "MRAcquisitionType": "2D",
  "MagneticFieldStrength": 3,
  "Manufacturer": "Siemens",
  "ManufacturersModelName": "Prisma",
  "MatrixCoilMode": "SENSE",
  "Modality": "MR",
  "NonlinearGradientCorrection": false,
  "PartialFourier": 1,
  "PatientPosition": "HFS",
  "PercentPhaseFOV": 100,
  "PercentSampling": 100,
  "PhaseEncodingDirection": "j-",
  "PhaseEncodingSteps": 80,
  "PhaseResolution": 1,
  "PixelBandwidth": 2315,
  "ProcedureStepDescription": "dbic^QA",
  "ProtocolName": "func-bold_fa-77",
  "PulseSequenceDetails": "%SiemensSeq%\\ep2d_bold",
  "ReceiveCoilActiveElements": "HC1-7;NC1,2",
  "ReceiveCoilName": "HeadNeck_64",
  "ReconMatrixPE": 80,
  "RepetitionTime": 2,
  "SAR": 0.0321824,
  "ScanOptions": "FS",
  "ScanningSequence": "EP",
  "SequenceName": "*epfid2d1_80",
  "SequenceVariant": "SK",
  "SeriesDescription": "func-bold_fa-77",
  "SeriesNumber": 7,
  "ShimSetting": [4139, -7701, -7514, 172, -65, -230, -108, 76],
  "SliceThickness": 3.5,
  "SliceTiming": [0.99, 0, 1.055, 0.065, 1.1225, 0.1325, 1.1875, 0.1975, 1.2525, 0.265, 1.32, 0.33, 1.385, 0.395, 1.4525, 0.4625, 1.5175, 0.5275, 1.5825, 0.5925, 1.65, 0.66, 1.715, 0.725, 1.7825, 0.7925, 1.8475, 0.8575, 1.9125, 0.9225],
  "SoftwareVersions": "syngo MR E11",
  "SpacingBetweenSlices": 3.99,
  "StationName": "AWP66112",
  "TotalReadoutTime": 0.0395,
  "TxRefAmp": 208.418,
  "dcmmeta_affine": [
    [-2.969959259033203, -0.40789005160331726, -0.15145540237426758, 137.73512268066406],
    [-0.42280179262161255, 2.8100297451019287, 1.2791337966918945, -111.19637298583984],
    [0.02409818395972252, -0.968173086643219, 3.7763710021972656, -9.300882339477539],
    [0.0, 0.0, 0.0, 1.0]
],
  "dcmmeta_reorient_transform": [
    [0.0, -1.0, 0.0, 79.0],
    [1.0, 0.0, 0.0, 0.0],
    [0.0, 0.0, 1.0, 0.0],
    [0.0, 0.0, 0.0, 1.0]
],
  "dcmmeta_shape": [80, 80, 30, 200],
  "dcmmeta_slice_dim": 2,
  "dcmmeta_version": 0.6,
  "global": {
    "const": {
      "AccessionNumber": "qa64",
      "AcquisitionMatrix": [80, 0, 0, 80],
      "AngioFlag": "N",
      "BitsAllocated": 16,
      "BitsStored": 12,
      "BodyPartExamined": "BRAIN",
      "Columns": 480,
      "EchoNumbers": 1,
      "EchoTime": 30.0,
      "EchoTrainLength": 80,
      "FlipAngle": 77.0,
      "HighBit": 11,
      "ImageOrientationPatient": [0.98998641471624, 0.14093393473786, 0.00803272784201, -0.1359633485131, 0.9366765436825, 0.32272437214458],
      "ImagePositionPatient": [-617.92564633397, -757.3622543473, -284.24081893004],
      "ImageType": [
        "ORIGINAL",
        "PRIMARY",
        "M",
        "ND",
        "NORM",
        "MOSAIC"
],
      "ImagedNucleus": "1H",
      "ImagingFrequency": 123.252365,
      "InPlanePhaseEncodingDirection": "COL",
      "LargestImagePixelValue": 4095,
      "MRAcquisitionType": "2D",
      "MagneticFieldStrength": 3.0,
      "Manufacturer": "SIEMENS",
      "ManufacturerModelName": "Prisma",
      "Modality": "MR",
      "NumberOfAverages": 1.0,
      "NumberOfPhaseEncodingSteps": 80,
      "PercentPhaseFieldOfView": 100.0,
      "PercentSampling": 100.0,
      "PerformedProcedureStepStartTime": "092114.787000",
      "PhotometricInterpretation": "MONOCHROME2",
      "PixelBandwidth": 2315.0,
      "PixelRepresentation": 0,
      "PixelSpacing": [3.0, 3.0],
      "ProtocolName": "func-bold_fa-77",
      "RepetitionTime": 2000.0,
      "Rows": 480,
      "SAR": 0.03218243850872,
      "SamplesPerPixel": 1,
      "ScanOptions": "FS",
      "ScanningSequence": "EP",
      "SequenceName": "*epfid2d1_80",
      "SequenceVariant": "SK",
      "SeriesDescription": "func-bold_fa-77",
      "SeriesNumber": 7,
      "SeriesTime": "093017.422000",
      "SliceLocation": -49.679034347051,
      "SliceThickness": 3.5,
      "SmallestImagePixelValue": 0,
      "SoftwareVersions": "syngo MR E11",
      "SpacingBetweenSlices": 3.9899999839724,
      "SpecificCharacterSet": "ISO_IR 100",
      "StudyID": "29",
      "StudyTime": "092114.668000",
      "TransmitCoilName": "Body",
      "VariableFlipAngleFlag": "N",
      "WindowCenterWidthExplanation": "Algo1",
      "dBdt": 0.0},
    "slices": {}
  },
  "time": {
    "samples": {
      "AcquisitionNumber": [1, 2, 3, 4, 5, 6, 7, 8, 9, 10, 11, 12, 13, 14, 15, 16, 17, 18, 19, 20, 21, 22, 23, 24, 25, 26, 27, 28, 29, 30, 31, 32, 33, 34, 35, 36, 37, 38, 39, 40, 41, 42, 43, 44, 45, 46, 47, 48, 49, 50, 51, 52, 53, 54, 55, 56, 57, 58, 59, 60, 61, 62, 63, 64, 65, 66, 67, 68, 69, 70, 71, 72, 73, 74, 75, 76, 77, 78, 79, 80, 81, 82, 83, 84, 85, 86, 87, 88, 89, 90, 91, 92, 93, 94, 95, 96, 97, 98, 99, 100, 101, 102, 103, 104, 105, 106, 107, 108, 109, 110, 111, 112, 113, 114, 115, 116, 117, 118, 119, 120, 121, 122, 123, 124, 125, 126, 127, 128, 129, 130, 131, 132, 133, 134, 135, 136, 137, 138, 139, 140, 141, 142, 143, 144, 145, 146, 147, 148, 149, 150, 151, 152, 153, 154, 155, 156, 157, 158, 159, 160, 161, 162, 163, 164, 165, 166, 167, 168, 169, 170, 171, 172, 173, 174, 175, 176, 177, 178, 179, 180, 181, 182, 183, 184, 185, 186, 187, 188, 189, 190, 191, 192, 193, 194, 195, 196, 197, 198, 199, 200],
      "AcquisitionTime": ["092924.525000", "092926.525000", "092928.525000", "092930.525000", "092932.525000", "092934.525000", "092936.525000", "092938.525000", "092940.525000", "092942.525000", "092944.525000", "092946.525000", "092948.525000", "092950.525000", "092952.525000", "092954.525000", "092956.525000", "092958.525000", "093000.525000", "093002.525000", "093004.525000", "093006.525000", "093008.525000", "093010.525000", "093012.525000", "093014.525000", "093016.525000", "093018.525000", "093020.525000", "093022.525000", "093024.525000", "093026.525000", "093028.525000", "093030.525000", "093032.525000", "093034.525000", "093036.525000", "093038.525000", "093040.525000", "093042.525000", "093044.525000", "093046.525000", "093048.525000", "093050.525000", "093052.525000", "093054.525000", "093056.525000", "093058.525000", "093100.525000", "093102.525000", "093104.525000", "093106.525000", "093108.525000", "093110.525000", "093112.525000", "093114.525000", "093116.525000", "093118.525000", "093120.525000", "093122.525000", "093124.525000", "093126.525000", "093128.525000", "093130.525000", "093132.525000", "093134.525000", "093136.525000", "093138.525000", "093140.525000", "093142.525000", "093144.525000", "093146.525000", "093148.525000", "093150.525000", "093152.525000", "093154.525000", "093156.525000", "093158.525000", "093200.525000", "093202.525000", "093204.525000", "093206.525000", "093208.525000", "093210.525000", "093212.525000", "093214.525000", "093216.525000", "093218.525000", "093220.525000", "093222.525000", "093224.525000", "093226.525000", "093228.525000", "093230.525000", "093232.525000", "093234.525000", "093236.525000", "093238.525000", "093240.525000", "093242.525000", "093244.525000", "093246.525000", "093248.525000", "093250.525000", "093252.525000", "093254.525000", "093256.525000", "093258.525000", "093300.525000", "093302.525000", "093304.525000", "093306.525000", "093308.525000", "093310.525000", "093312.525000", "093314.525000", "093316.525000", "093318.525000", "093320.525000", "093322.525000", "093324.525000", "093326.525000", "093328.525000", "093330.525000", "093332.525000", "093334.525000", "093336.525000", "093338.525000", "093340.525000", "093342.525000", "093344.525000", "093346.525000", "093348.525000", "093350.525000", "093352.525000", "093354.525000", "093356.525000", "093358.525000", "093400.525000", "093402.525000", "093404.525000", "093406.525000", "093408.525000", "093410.525000", "093412.525000", "093414.525000", "093416.525000", "093418.525000", "093420.525000", "093422.525000", "093424.525000", "093426.525000", "093428.525000", "093430.525000", "093432.525000", "093434.525000", "093436.525000", "093438.525000", "093440.525000", "093442.525000", "093444.525000", "093446.525000", "093448.525000", "093450.525000", "093452.525000", "093454.525000", "093456.525000", "093458.525000", "093500.525000", "093502.525000", "093504.525000", "093506.525000", "093508.525000", "093510.525000", "093512.525000", "093514.525000", "093516.525000", "093518.525000", "093520.525000", "093522.525000", "093524.525000", "093526.525000", "093528.525000", "093530.525000", "093532.525000", "093534.525000", "093536.525000", "093538.525000", "093540.525000", "093542.525000", "093544.525000", "093546.525000", "093548.525000", "093550.525000", "093552.525000", "093554.525000", "093556.525000", "093558.525000", "093600.525000", "093602.525000"],
      "ContentTime": ["093017.425000", "093017.429000", "093017.431000", "093017.434000", "093017.436000", "093017.439000", "093017.441000", "093017.444000", "093017.446000", "093017.449000", "093017.452000", "093017.454000", "093017.457000", "093017.459000", "093017.462000", "093017.464000", "093017.467000", "093017.469000", "093017.472000", "093017.474000", "093017.476000", "093017.479000", "093017.482000", "093017.484000", "093017.487000", "093017.489000", "093057.421000", "093057.424000", "093057.427000", "093057.429000", "093057.432000", "093057.434000", "093057.437000", "093057.439000", "093057.442000", "093057.445000", "093057.447000", "093057.450000", "093057.452000", "093057.455000", "093057.457000", "093057.460000", "093057.462000", "093057.465000", "093057.467000", "093057.470000", "093117.422000", "093117.424000", "093117.427000", "093117.429000", "093117.432000", "093117.435000", "093117.437000", "093117.440000", "093117.442000", "093117.445000", "093157.421000", "093157.424000", "093157.427000", "093157.429000", "093157.432000", "093157.434000", "093157.437000", "093157.439000", "093157.442000", "093157.444000", "093157.447000", "093157.449000", "093157.452000", "093157.454000", "093157.457000", "093157.460000", "093157.462000", "093157.465000", "093157.467000", "093157.470000", "093237.420000", "093237.423000", "093237.426000", "093237.428000", "093237.431000", "093237.433000", "093237.436000", "093237.438000", "093237.441000", "093237.444000", "093237.446000", "093237.449000", "093237.451000", "093237.454000", "093237.456000", "093237.459000", "093237.461000", "093237.464000", "093237.466000", "093237.469000", "093317.421000", "093317.424000", "093317.427000", "093317.429000", "093317.432000", "093317.434000", "093317.437000", "093317.447000", "093317.450000", "093317.452000", "093317.455000", "093317.458000", "093317.460000", "093317.463000", "093317.465000", "093317.468000", "093317.470000", "093317.473000", "093317.475000", "093317.478000", "093357.421000", "093357.424000", "093357.427000", "093357.429000", "093357.432000", "093357.434000", "093357.437000", "093357.439000", "093357.442000", "093357.444000", "093357.447000", "093357.450000", "093357.452000", "093357.455000", "093357.457000", "093357.460000", "093357.462000", "093357.465000", "093357.467000", "093357.470000", "093437.420000", "093437.423000", "093437.426000", "093437.428000", "093437.431000", "093437.434000", "093437.436000", "093437.439000", "093437.441000", "093437.444000", "093437.446000", "093437.449000", "093437.451000", "093437.454000", "093437.456000", "093437.459000", "093437.461000", "093437.464000", "093437.466000", "093437.469000", "093517.420000", "093517.423000", "093517.426000", "093517.428000", "093517.431000", "093517.433000", "093517.436000", "093517.438000", "093517.441000", "093517.444000", "093517.446000", "093517.449000", "093517.451000", "093517.454000", "093517.456000", "093517.459000", "093517.461000", "093517.464000", "093517.467000", "093517.469000", "093557.422000", "093557.424000", "093557.427000", "093557.429000", "093557.432000", "093557.435000", "093557.437000", "093557.440000", "093557.442000", "093557.445000", "093557.447000", "093557.450000", "093557.452000", "093557.455000", "093557.457000", "093557.460000", "093557.462000", "093557.465000", "093557.467000", "093557.470000", "093604.073000", "093604.076000", "093604.078000", "093604.081000"],
      "InstanceCreationTime": ["093017.425000", "093017.429000", "093017.431000", "093017.434000", "093017.436000", "093017.439000", "093017.441000", "093017.444000", "093017.446000", "093017.449000", "093017.452000", "093017.454000", "093017.457000", "093017.459000", "093017.462000", "093017.464000", "093017.467000", "093017.469000", "093017.472000", "093017.474000", "093017.476000", "093017.479000", "093017.482000", "093017.484000", "093017.487000", "093017.489000", "093057.421000", "093057.424000", "093057.427000", "093057.429000", "093057.432000", "093057.434000", "093057.437000", "093057.439000", "093057.442000", "093057.445000", "093057.447000", "093057.450000", "093057.452000", "093057.455000", "093057.457000", "093057.460000", "093057.462000", "093057.465000", "093057.467000", "093057.470000", "093117.422000", "093117.424000", "093117.427000", "093117.429000", "093117.432000", "093117.435000", "093117.437000", "093117.440000", "093117.442000", "093117.445000", "093157.421000", "093157.424000", "093157.427000", "093157.429000", "093157.432000", "093157.434000", "093157.437000", "093157.439000", "093157.442000", "093157.444000", "093157.447000", "093157.449000", "093157.452000", "093157.454000", "093157.457000", "093157.460000", "093157.462000", "093157.465000", "093157.467000", "093157.470000", "093237.420000", "093237.423000", "093237.426000", "093237.428000", "093237.431000", "093237.433000", "093237.436000", "093237.438000", "093237.441000", "093237.444000", "093237.446000", "093237.449000", "093237.451000", "093237.454000", "093237.456000", "093237.459000", "093237.461000", "093237.464000", "093237.466000", "093237.469000", "093317.421000", "093317.424000", "093317.427000", "093317.429000", "093317.432000", "093317.434000", "093317.437000", "093317.447000", "093317.450000", "093317.452000", "093317.455000", "093317.458000", "093317.460000", "093317.463000", "093317.465000", "093317.468000", "093317.470000", "093317.473000", "093317.475000", "093317.478000", "093357.421000", "093357.424000", "093357.427000", "093357.429000", "093357.432000", "093357.434000", "093357.437000", "093357.439000", "093357.442000", "093357.444000", "093357.447000", "093357.450000", "093357.452000", "093357.455000", "093357.457000", "093357.460000", "093357.462000", "093357.465000", "093357.467000", "093357.470000", "093437.420000", "093437.423000", "093437.426000", "093437.428000", "093437.431000", "093437.434000", "093437.436000", "093437.439000", "093437.441000", "093437.444000", "093437.446000", "093437.449000", "093437.451000", "093437.454000", "093437.456000", "093437.459000", "093437.461000", "093437.464000", "093437.466000", "093437.469000", "093517.420000", "093517.423000", "093517.426000", "093517.428000", "093517.431000", "093517.433000", "093517.436000", "093517.438000", "093517.441000", "093517.444000", "093517.446000", "093517.449000", "093517.451000", "093517.454000", "093517.456000", "093517.459000", "093517.461000", "093517.464000", "093517.467000", "093517.469000", "093557.422000", "093557.424000", "093557.427000", "093557.429000", "093557.432000", "093557.435000", "093557.437000", "093557.440000", "093557.442000", "093557.445000", "093557.447000", "093557.450000", "093557.452000", "093557.455000", "093557.457000", "093557.460000", "093557.462000", "093557.465000", "093557.467000", "093557.470000", "093604.073000", "093604.076000", "093604.078000", "093604.081000"],
      "InstanceNumber": [1, 2, 3, 4, 5, 6, 7, 8, 9, 10, 11, 12, 13, 14, 15, 16, 17, 18, 19, 20, 21, 22, 23, 24, 25, 26, 27, 28, 29, 30, 31, 32, 33, 34, 35, 36, 37, 38, 39, 40, 41, 42, 43, 44, 45, 46, 47, 48, 49, 50, 51, 52, 53, 54, 55, 56, 57, 58, 59, 60, 61, 62, 63, 64, 65, 66, 67, 68, 69, 70, 71, 72, 73, 74, 75, 76, 77, 78, 79, 80, 81, 82, 83, 84, 85, 86, 87, 88, 89, 90, 91, 92, 93, 94, 95, 96, 97, 98, 99, 100, 101, 102, 103, 104, 105, 106, 107, 108, 109, 110, 111, 112, 113, 114, 115, 116, 117, 118, 119, 120, 121, 122, 123, 124, 125, 126, 127, 128, 129, 130, 131, 132, 133, 134, 135, 136, 137, 138, 139, 140, 141, 142, 143, 144, 145, 146, 147, 148, 149, 150, 151, 152, 153, 154, 155, 156, 157, 158, 159, 160, 161, 162, 163, 164, 165, 166, 167, 168, 169, 170, 171, 172, 173, 174, 175, 176, 177, 178, 179, 180, 181, 182, 183, 184, 185, 186, 187, 188, 189, 190, 191, 192, 193, 194, 195, 196, 197, 198, 199, 200],
      "WindowCenter": [1458.0, 1458.0, 1459.0, 1458.0, 1458.0, 1458.0, 1458.0, 1457.0, 1457.0, 1457.0, 1457.0, 1457.0, 1458.0, 1457.0, 1457.0, 1458.0, 1458.0, 1457.0, 1457.0, 1457.0, 1457.0, 1457.0, 1457.0, 1457.0, 1457.0, 1457.0, 1457.0, 1457.0, 1457.0, 1458.0, 1457.0, 1457.0, 1455.0, 1456.0, 1455.0, 1455.0, 1456.0, 1456.0, 1456.0, 1456.0, 1454.0, 1455.0, 1454.0, 1454.0, 1454.0, 1454.0, 1454.0, 1454.0, 1454.0, 1454.0, 1453.0, 1454.0, 1454.0, 1453.0, 1453.0, 1454.0, 1453.0, 1453.0, 1453.0, 1453.0, 1454.0, 1453.0, 1454.0, 1453.0, 1453.0, 1453.0, 1454.0, 1452.0, 1453.0, 1453.0, 1453.0, 1454.0, 1455.0, 1454.0, 1454.0, 1454.0, 1454.0, 1455.0, 1454.0, 1455.0, 1454.0, 1454.0, 1454.0, 1454.0, 1453.0, 1454.0, 1454.0, 1453.0, 1454.0, 1453.0, 1454.0, 1454.0, 1453.0, 1453.0, 1453.0, 1453.0, 1453.0, 1453.0, 1453.0, 1453.0, 1454.0, 1453.0, 1454.0, 1453.0, 1454.0, 1453.0, 1453.0, 1452.0, 1452.0, 1453.0, 1452.0, 1452.0, 1453.0, 1452.0, 1452.0, 1453.0, 1453.0, 1453.0, 1453.0, 1453.0, 1451.0, 1452.0, 1451.0, 1452.0, 1452.0, 1451.0, 1451.0, 1451.0, 1451.0, 1451.0, 1451.0, 1451.0, 1450.0, 1451.0, 1451.0, 1451.0, 1451.0, 1453.0, 1453.0, 1453.0, 1452.0, 1452.0, 1452.0, 1452.0, 1452.0, 1452.0, 1452.0, 1452.0, 1452.0, 1450.0, 1451.0, 1452.0, 1451.0, 1451.0, 1451.0, 1450.0, 1451.0, 1451.0, 1451.0, 1452.0, 1451.0, 1452.0, 1451.0, 1451.0, 1451.0, 1450.0, 1451.0, 1450.0, 1451.0, 1451.0, 1451.0, 1452.0, 1451.0, 1451.0, 1451.0, 1451.0, 1451.0, 1451.0, 1451.0, 1451.0, 1451.0, 1451.0, 1451.0, 1450.0, 1450.0, 1450.0, 1451.0, 1451.0, 1451.0, 1451.0, 1451.0, 1451.0, 1451.0, 1450.0, 1450.0, 1451.0, 1450.0, 1451.0, 1451.0, 1451.0],
      "WindowWidth": [3438.0, 3438.0, 3438.0, 3437.0, 3437.0, 3438.0, 3437.0, 3437.0, 3437.0, 3437.0, 3437.0, 3437.0, 3437.0, 3437.0, 3437.0, 3437.0, 3437.0, 3437.0, 3437.0, 3437.0, 3437.0, 3437.0, 3437.0, 3436.0, 3437.0, 3436.0, 3436.0, 3436.0, 3437.0, 3437.0, 3436.0, 3435.0, 3435.0, 3434.0, 3434.0, 3435.0, 3435.0, 3435.0, 3435.0, 3435.0, 3434.0, 3433.0, 3433.0, 3433.0, 3433.0, 3433.0, 3432.0, 3432.0, 3432.0, 3432.0, 3432.0, 3432.0, 3431.0, 3432.0, 3432.0, 3431.0, 3432.0, 3432.0, 3432.0, 3432.0, 3432.0, 3433.0, 3432.0, 3432.0, 3432.0, 3432.0, 3432.0, 3432.0, 3432.0, 3432.0, 3432.0, 3434.0, 3434.0, 3434.0, 3434.0, 3434.0, 3435.0, 3434.0, 3435.0, 3434.0, 3434.0, 3435.0, 3435.0, 3434.0, 3434.0, 3434.0, 3433.0, 3434.0, 3434.0, 3434.0, 3434.0, 3434.0, 3434.0, 3434.0, 3434.0, 3434.0, 3434.0, 3434.0, 3434.0, 3434.0, 3433.0, 3434.0, 3433.0, 3434.0, 3433.0, 3433.0, 3434.0, 3433.0, 3433.0, 3433.0, 3433.0, 3433.0, 3433.0, 3433.0, 3433.0, 3433.0, 3433.0, 3433.0, 3433.0, 3433.0, 3433.0, 3432.0, 3433.0, 3433.0, 3433.0, 3433.0, 3433.0, 3432.0, 3432.0, 3432.0, 3432.0, 3432.0, 3432.0, 3432.0, 3432.0, 3432.0, 3432.0, 3433.0, 3433.0, 3433.0, 3433.0, 3433.0, 3433.0, 3433.0, 3433.0, 3432.0, 3432.0, 3432.0, 3432.0, 3432.0, 3432.0, 3432.0, 3432.0, 3431.0, 3431.0, 3431.0, 3431.0, 3431.0, 3432.0, 3431.0, 3432.0, 3431.0, 3432.0, 3431.0, 3431.0, 3431.0, 3431.0, 3431.0, 3431.0, 3431.0, 3431.0, 3431.0, 3431.0, 3431.0, 3431.0, 3431.0, 3431.0, 3431.0, 3431.0, 3431.0, 3431.0, 3431.0, 3430.0, 3431.0, 3431.0, 3431.0, 3431.0, 3431.0, 3431.0, 3431.0, 3431.0, 3431.0, 3431.0, 3431.0, 3431.0, 3431.0, 3431.0, 3431.0, 3431.0, 3431.0]
    },
    "slices": {}
  }
}