{
  "AcquisitionMatrixPE": 80,
  "AcquisitionNumber": 1,
  "AcquisitionTime": "09:36:11.557500",
  "BandwidthPerPixelPhaseEncode": 25,
  "BaseResolution": 80,
  "BodyPartExamined": "BRAIN",
  "CoilCombinationMethod": "Sum of Squares",
  "ConsistencyInfo": "N4_VE11C_LATEST_20160120",
  "ConversionSoftware": "dcm2niix",
  "ConversionSoftwareVersion": "v1.0.20220720",
  "DerivedVendorReportedEchoSpacing": 0.0005,
  "DeviceSerialNumber": "66112",
  "DwellTime": 2.7e-06,
  "EchoTime": 0.03,
  "EchoTrainLength": 80,
  "EffectiveEchoSpacing": 0.0005,
  "FlipAngle": 10,
  "HeudiconvVersion": "0.13.1",
  "ImageOrientationPatientDICOM": [0.989986, 0.140934, 0.00803273, -0.135963, 0.936677, 0.322724],
  "ImageOrientationText": "Tra>Cor(18.7)>Sag(-2.2)",
  "ImageType": [
    "ORIGINAL",
    "PRIMARY",
    "M",
    "ND",
    "NORM",
    "MOSAIC"
],
  "ImagingFrequency": 123.252,
  "InPlanePhaseEncodingDirectionDICOM": "COL",
  "InstitutionAddress": "Maynard 3,Hanover,NH,US,03755",
  "InstitutionName": "Dartmouth College - PBS",
  "InstitutionalDepartmentName": "Department",
  "MRAcquisitionType": "2D",
  "MagneticFieldStrength": 3,
  "Manufacturer": "Siemens",
  "ManufacturersModelName": "Prisma",
  "MatrixCoilMode": "SENSE",
  "Modality": "MR",
  "NonlinearGradientCorrection": false,
  "PartialFourier": 1,
  "PatientPosition": "HFS",
  "PercentPhaseFOV": 100,
  "PercentSampling": 100,
  "PhaseEncodingDirection": "j-",
  "PhaseEncodingSteps": 80,
  "PhaseResolution": 1,
  "PixelBandwidth": 2315,
  "ProcedureStepDescription": "dbic^QA",
  "ProtocolName": "func-bold_fa-10",
  "PulseSequenceDetails": "%SiemensSeq%\\ep2d_bold",
  "ReceiveCoilActiveElements": "HC1-7;NC1,2",
  "ReceiveCoilName": "HeadNeck_64",
  "ReconMatrixPE": 80,
  "RepetitionTime": 2,
  "SAR": 0.00863291,
  "ScanOptions": "FS",
  "ScanningSequence": "EP",
  "SequenceName": "*epfid2d1_80",
  "SequenceVariant": "SK",
  "SeriesDescription": "func-bold_fa-10",
  "SeriesNumber": 9,
  "ShimSetting": [4139, -7701, -7514, 172, -65, -230, -108, 76],
  "SliceThickness": 3.5,
  "SliceTiming": [0.99, 0, 1.055, 0.0675, 1.1225, 0.1325, 1.1875, 0.1975, 1.255, 0.265, 1.32, 0.33, 1.385, 0.3975, 1.4525, 0.4625, 1.5175, 0.5275, 1.585, 0.595, 1.65, 0.66, 1.715, 0.725, 1.7825, 0.7925, 1.8475, 0.8575, 1.915, 0.925],
  "SoftwareVersions": "syngo MR E11",
  "SpacingBetweenSlices": 3.99,
  "StationName": "AWP66112",
  "TotalReadoutTime": 0.0395,
  "TxRefAmp": 208.418,
  "dcmmeta_affine": [
    [-2.969959259033203, -0.40789005160331726, -0.15145540237426758, 137.73512268066406],
    [-0.42280179262161255, 2.8100297451019287, 1.2791337966918945, -111.19637298583984],
    [0.02409818395972252, -0.968173086643219, 3.7763710021972656, -9.300882339477539],
    [0.0, 0.0, 0.0, 1.0]
],
  "dcmmeta_reorient_transform": [
    [0.0, -1.0, 0.0, 79.0],
    [1.0, 0.0, 0.0, 0.0],
    [0.0, 0.0, 1.0, 0.0],
    [0.0, 0.0, 0.0, 1.0]
],
  "dcmmeta_shape": [80, 80, 30, 200],
  "dcmmeta_slice_dim": 2,
  "dcmmeta_version": 0.6,
  "global": {
    "const": {
      "AccessionNumber": "qa64",
      "AcquisitionMatrix": [80, 0, 0, 80],
      "AngioFlag": "N",
      "BitsAllocated": 16,
      "BitsStored": 12,
      "BodyPartExamined": "BRAIN",
      "Columns": 480,
      "EchoNumbers": 1,
      "EchoTime": 30.0,
      "EchoTrainLength": 80,
      "FlipAngle": 10.0,
      "HighBit": 11,
      "ImageOrientationPatient": [0.98998641471624, 0.14093393473786, 0.00803272784201, -0.1359633485131, 0.9366765436825, 0.32272437214458],
      "ImagePositionPatient": [-617.92564633397, -757.3622543473, -284.24081893004],
      "ImageType": [
        "ORIGINAL",
        "PRIMARY",
        "M",
        "ND",
        "NORM",
        "MOSAIC"
],
      "ImagedNucleus": "1H",
      "ImagingFrequency": 123.252365,
      "InPlanePhaseEncodingDirection": "COL",
      "MRAcquisitionType": "2D",
      "MagneticFieldStrength": 3.0,
      "Manufacturer": "SIEMENS",
      "ManufacturerModelName": "Prisma",
      "Modality": "MR",
      "NumberOfAverages": 1.0,
      "NumberOfPhaseEncodingSteps": 80,
      "PercentPhaseFieldOfView": 100.0,
      "PercentSampling": 100.0,
      "PerformedProcedureStepStartTime": "092114.787000",
      "PhotometricInterpretation": "MONOCHROME2",
      "PixelBandwidth": 2315.0,
      "PixelRepresentation": 0,
      "PixelSpacing": [3.0, 3.0],
      "ProtocolName": "func-bold_fa-10",
      "RepetitionTime": 2000.0,
      "Rows": 480,
      "SAR": 0.00863291048524,
      "SamplesPerPixel": 1,
      "ScanOptions": "FS",
      "ScanningSequence": "EP",
      "SequenceName": "*epfid2d1_80",
      "SequenceVariant": "SK",
      "SeriesDescription": "func-bold_fa-10",
      "SeriesNumber": 9,
      "SeriesTime": "093657.492000",
      "SliceLocation": -49.679034347051,
      "SliceThickness": 3.5,
      "SmallestImagePixelValue": 0,
      "SoftwareVersions": "syngo MR E11",
      "SpacingBetweenSlices": 3.9899999839724,
      "SpecificCharacterSet": "ISO_IR 100",
      "StudyID": "29",
      "StudyTime": "092114.668000",
      "TransmitCoilName": "Body",
      "VariableFlipAngleFlag": "N",
      "WindowCenterWidthExplanation": "Algo1",
      "dBdt": 0.0},
    "slices": {}
  },
  "time": {
    "samples": {
      "AcquisitionNumber": [1, 2, 3, 4, 5, 6, 7, 8, 9, 10, 11, 12, 13, 14, 15, 16, 17, 18, 19, 20, 21, 22, 23, 24, 25, 26, 27, 28, 29, 30, 31, 32, 33, 34, 35, 36, 37, 38, 39, 40, 41, 42, 43, 44, 45, 46, 47, 48, 49, 50, 51, 52, 53, 54, 55, 56, 57, 58, 59, 60, 61, 62, 63, 64, 65, 66, 67, 68, 69, 70, 71, 72, 73, 74, 75, 76, 77, 78, 79, 80, 81, 82, 83, 84, 85, 86, 87, 88, 89, 90, 91, 92, 93, 94, 95, 96, 97, 98, 99, 100, 101, 102, 103, 104, 105, 106, 107, 108, 109, 110, 111, 112, 113, 114, 115, 116, 117, 118, 119, 120, 121, 122, 123, 124, 125, 126, 127, 128, 129, 130, 131, 132, 133, 134, 135, 136, 137, 138, 139, 140, 141, 142, 143, 144, 145, 146, 147, 148, 149, 150, 151, 152, 153, 154, 155, 156, 157, 158, 159, 160, 161, 162, 163, 164, 165, 166, 167, 168, 169, 170, 171, 172, 173, 174, 175, 176, 177, 178, 179, 180, 181, 182, 183, 184, 185, 186, 187, 188, 189, 190, 191, 192, 193, 194, 195, 196, 197, 198, 199, 200],
      "AcquisitionTime": ["093611.557500", "093613.557500", "093615.557500", "093617.557500", "093619.557500", "093621.557500", "093623.557500", "093625.557500", "093627.557500", "093629.557500", "093631.557500", "093633.557500", "093635.557500", "093637.557500", "093639.557500", "093641.557500", "093643.557500", "093645.557500", "093647.557500", "093649.557500", "093651.557500", "093653.557500", "093655.557500", "093657.557500", "093659.557500", "093701.557500", "093703.557500", "093705.557500", "093707.557500", "093709.557500", "093711.557500", "093713.557500", "093715.557500", "093717.557500", "093719.557500", "093721.557500", "093723.557500", "093725.557500", "093727.557500", "093729.557500", "093731.557500", "093733.557500", "093735.557500", "093737.557500", "093739.557500", "093741.557500", "093743.557500", "093745.557500", "093747.557500", "093749.557500", "093751.557500", "093753.557500", "093755.557500", "093757.557500", "093759.557500", "093801.557500", "093803.557500", "093805.557500", "093807.557500", "093809.557500", "093811.557500", "093813.557500", "093815.557500", "093817.557500", "093819.557500", "093821.557500", "093823.557500", "093825.557500", "093827.557500", "093829.557500", "093831.557500", "093833.557500", "093835.557500", "093837.557500", "093839.557500", "093841.557500", "093843.557500", "093845.557500", "093847.557500", "093849.557500", "093851.557500", "093853.557500", "093855.557500", "093857.557500", "093859.557500", "093901.557500", "093903.557500", "093905.557500", "093907.557500", "093909.557500", "093911.557500", "093913.557500", "093915.557500", "093917.557500", "093919.557500", "093921.557500", "093923.557500", "093925.557500", "093927.557500", "093929.557500", "093931.557500", "093933.557500", "093935.557500", "093937.557500", "093939.557500", "093941.557500", "093943.557500", "093945.557500", "093947.557500", "093949.557500", "093951.557500", "093953.557500", "093955.557500", "093957.557500", "093959.557500", "094001.557500", "094003.557500", "094005.557500", "094007.557500", "094009.557500", "094011.557500", "094013.557500", "094015.557500", "094017.557500", "094019.557500", "094021.557500", "094023.557500", "094025.557500", "094027.557500", "094029.557500", "094031.557500", "094033.557500", "094035.557500", "094037.557500", "094039.557500", "094041.557500", "094043.557500", "094045.557500", "094047.557500", "094049.557500", "094051.557500", "094053.557500", "094055.557500", "094057.557500", "094059.557500", "094101.557500", "094103.557500", "094105.557500", "094107.557500", "094109.557500", "094111.557500", "094113.557500", "094115.557500", "094117.557500", "094119.557500", "094121.557500", "094123.557500", "094125.557500", "094127.557500", "094129.557500", "094131.557500", "094133.557500", "094135.557500", "094137.557500", "094139.557500", "094141.557500", "094143.557500", "094145.557500", "094147.557500", "094149.557500", "094151.557500", "094153.557500", "094155.557500", "094157.557500", "094159.557500", "094201.557500", "094203.557500", "094205.557500", "094207.557500", "094209.557500", "094211.557500", "094213.557500", "094215.557500", "094217.557500", "094219.557500", "094221.557500", "094223.557500", "094225.557500", "094227.557500", "094229.557500", "094231.557500", "094233.557500", "094235.557500", "094237.557500", "094239.557500", "094241.557500", "094243.557500", "094245.557500", "094247.557500", "094249.557500"],
      "ContentTime": ["093657.495000", "093657.499000", "093657.509000", "093657.512000", "093657.514000", "093657.517000", "093657.526000", "093657.529000", "093657.531000", "093657.534000", "093657.536000", "093657.539000", "093657.541000", "093657.543000", "093657.546000", "093657.548000", "093657.551000", "093657.553000", "093657.556000", "093657.558000", "093657.561000", "093657.563000", "093657.581000", "093737.490000", "093737.493000", "093737.496000", "093737.499000", "093737.502000", "093737.504000", "093737.507000", "093737.509000", "093737.512000", "093737.514000", "093737.517000", "093737.520000", "093737.522000", "093737.525000", "093737.527000", "093737.530000", "093737.532000", "093737.535000", "093737.537000", "093737.540000", "093817.491000", "093817.494000", "093817.497000", "093817.499000", "093817.502000", "093817.504000", "093817.507000", "093817.509000", "093817.512000", "093817.514000", "093817.517000", "093817.519000", "093817.522000", "093817.524000", "093817.527000", "093817.529000", "093817.532000", "093817.534000", "093817.537000", "093817.539000", "093857.491000", "093857.494000", "093857.497000", "093857.499000", "093857.502000", "093857.504000", "093857.507000", "093857.510000", "093857.512000", "093857.515000", "093857.517000", "093857.520000", "093857.522000", "093857.525000", "093857.527000", "093857.530000", "093857.532000", "093857.535000", "093857.537000", "093857.540000", "093937.490000", "093937.493000", "093937.496000", "093937.498000", "093937.501000", "093937.503000", "093937.506000", "093937.508000", "093937.511000", "093937.513000", "093937.516000", "093937.518000", "093937.521000", "093937.523000", "093937.526000", "093937.528000", "093937.531000", "093937.533000", "093937.536000", "093937.538000", "094017.491000", "094017.494000", "094017.497000", "094017.499000", "094017.502000", "094017.504000", "094017.507000", "094017.509000", "094017.512000", "094017.514000", "094017.517000", "094017.519000", "094017.522000", "094017.524000", "094017.527000", "094017.529000", "094017.532000", "094017.535000", "094017.537000", "094017.540000", "094057.492000", "094057.494000", "094057.497000", "094057.499000", "094057.502000", "094057.505000", "094057.507000", "094057.510000", "094057.512000", "094057.515000", "094057.517000", "094057.520000", "094057.522000", "094057.525000", "094057.527000", "094057.530000", "094057.532000", "094057.535000", "094057.537000", "094057.540000", "094137.491000", "094137.493000", "094137.496000", "094137.498000", "094137.501000", "094137.503000", "094137.506000", "094137.508000", "094137.511000", "094137.513000", "094137.516000", "094137.518000", "094137.521000", "094137.523000", "094137.526000", "094137.528000", "094137.531000", "094137.533000", "094137.536000", "094137.538000", "094217.491000", "094217.494000", "094217.497000", "094217.499000", "094217.502000", "094217.504000", "094217.517000", "094217.519000", "094217.522000", "094217.524000", "094217.527000", "094217.529000", "094217.532000", "094217.534000", "094217.537000", "094217.539000", "094217.542000", "094217.544000", "094217.547000", "094217.549000", "094250.674000", "094250.677000", "094250.680000", "094250.682000", "094250.685000", "094250.687000", "094250.690000", "094250.692000", "094250.695000", "094250.698000", "094250.700000", "094250.703000", "094250.706000", "094250.709000", "094250.712000", "094250.716000", "094250.719000"],
      "InstanceCreationTime": ["093657.495000", "093657.499000", "093657.509000", "093657.512000", "093657.514000", "093657.517000", "093657.526000", "093657.529000", "093657.531000", "093657.534000", "093657.536000", "093657.539000", "093657.541000", "093657.543000", "093657.546000", "093657.548000", "093657.551000", "093657.553000", "093657.556000", "093657.558000", "093657.561000", "093657.563000", "093657.581000", "093737.490000", "093737.493000", "093737.496000", "093737.499000", "093737.502000", "093737.504000", "093737.507000", "093737.509000", "093737.512000", "093737.514000", "093737.517000", "093737.520000", "093737.522000", "093737.525000", "093737.527000", "093737.530000", "093737.532000", "093737.535000", "093737.537000", "093737.540000", "093817.491000", "093817.494000", "093817.497000", "093817.499000", "093817.502000", "093817.504000", "093817.507000", "093817.509000", "093817.512000", "093817.514000", "093817.517000", "093817.519000", "093817.522000", "093817.524000", "093817.527000", "093817.529000", "093817.532000", "093817.534000", "093817.537000", "093817.539000", "093857.491000", "093857.494000", "093857.497000", "093857.499000", "093857.502000", "093857.504000", "093857.507000", "093857.510000", "093857.512000", "093857.515000", "093857.517000", "093857.520000", "093857.522000", "093857.525000", "093857.527000", "093857.530000", "093857.532000", "093857.535000", "093857.537000", "093857.540000", "093937.490000", "093937.493000", "093937.496000", "093937.498000", "093937.501000", "093937.503000", "093937.506000", "093937.508000", "093937.511000", "093937.513000", "093937.516000", "093937.518000", "093937.521000", "093937.523000", "093937.526000", "093937.528000", "093937.531000", "093937.533000", "093937.536000", "093937.538000", "094017.491000", "094017.494000", "094017.497000", "094017.499000", "094017.502000", "094017.504000", "094017.507000", "094017.509000", "094017.512000", "094017.514000", "094017.517000", "094017.519000", "094017.522000", "094017.524000", "094017.527000", "094017.529000", "094017.532000", "094017.535000", "094017.537000", "094017.540000", "094057.492000", "094057.494000", "094057.497000", "094057.499000", "094057.502000", "094057.505000", "094057.507000", "094057.510000", "094057.512000", "094057.515000", "094057.517000", "094057.520000", "094057.522000", "094057.525000", "094057.527000", "094057.530000", "094057.532000", "094057.535000", "094057.537000", "094057.540000", "094137.491000", "094137.493000", "094137.496000", "094137.498000", "094137.501000", "094137.503000", "094137.506000", "094137.508000", "094137.511000", "094137.513000", "094137.516000", "094137.518000", "094137.521000", "094137.523000", "094137.526000", "094137.528000", "094137.531000", "094137.533000", "094137.536000", "094137.538000", "094217.491000", "094217.494000", "094217.497000", "094217.499000", "094217.502000", "094217.504000", "094217.517000", "094217.519000", "094217.522000", "094217.524000", "094217.527000", "094217.529000", "094217.532000", "094217.534000", "094217.537000", "094217.539000", "094217.542000", "094217.544000", "094217.547000", "094217.549000", "094250.674000", "094250.677000", "094250.680000", "094250.682000", "094250.685000", "094250.687000", "094250.690000", "094250.692000", "094250.695000", "094250.698000", "094250.700000", "094250.703000", "094250.706000", "094250.709000", "094250.712000", "094250.716000", "094250.719000"],
      "InstanceNumber": [1, 2, 3, 4, 5, 6, 7, 8, 9, 10, 11, 12, 13, 14, 15, 16, 17, 18, 19, 20, 21, 22, 23, 24, 25, 26, 27, 28, 29, 30, 31, 32, 33, 34, 35, 36, 37, 38, 39, 40, 41, 42, 43, 44, 45, 46, 47, 48, 49, 50, 51, 52, 53, 54, 55, 56, 57, 58, 59, 60, 61, 62, 63, 64, 65, 66, 67, 68, 69, 70, 71, 72, 73, 74, 75, 76, 77, 78, 79, 80, 81, 82, 83, 84, 85, 86, 87, 88, 89, 90, 91, 92, 93, 94, 95, 96, 97, 98, 99, 100, 101, 102, 103, 104, 105, 106, 107, 108, 109, 110, 111, 112, 113, 114, 115, 116, 117, 118, 119, 120, 121, 122, 123, 124, 125, 126, 127, 128, 129, 130, 131, 132, 133, 134, 135, 136, 137, 138, 139, 140, 141, 142, 143, 144, 145, 146, 147, 148, 149, 150, 151, 152, 153, 154, 155, 156, 157, 158, 159, 160, 161, 162, 163, 164, 165, 166, 167, 168, 169, 170, 171, 172, 173, 174, 175, 176, 177, 178, 179, 180, 181, 182, 183, 184, 185, 186, 187, 188, 189, 190, 191, 192, 193, 194, 195, 196, 197, 198, 199, 200],
      "LargestImagePixelValue": [772, 769, 769, 771, 770, 766, 769, 768, 768, 765, 769, 765, 764, 769, 767, 768, 769, 768, 764, 766, 767, 766, 768, 772, 766, 765, 769, 766, 768, 764, 767, 768, 765, 766, 765, 764, 769, 766, 764, 768, 766, 767, 766, 765, 763, 767, 769, 764, 762, 767, 769, 766, 766, 767, 763, 767, 767, 767, 769, 767, 766, 769, 766, 765, 764, 764, 765, 767, 765, 766, 767, 765, 766, 767, 766, 766, 765, 769, 767, 768, 767, 768, 766, 767, 763, 766, 763, 765, 766, 764, 766, 769, 766, 764, 761, 769, 764, 764, 766, 765, 765, 769, 763, 763, 762, 766, 763, 770, 765, 767, 765, 764, 769, 768, 766, 765, 760, 764, 766, 766, 767, 766, 765, 767, 768, 767, 765, 767, 764, 768, 768, 767, 763, 764, 765, 764, 768, 765, 766, 764, 767, 765, 766, 764, 760, 769, 767, 770, 761, 767, 763, 766, 765, 767, 766, 764, 766, 766, 765, 766, 764, 764, 769, 765, 765, 765, 763, 765, 769, 765, 765, 762, 770, 765, 766, 767, 765, 766, 764, 764, 763, 764, 763, 768, 765, 764, 765, 766, 763, 766, 766, 764, 762, 764, 767, 764, 766, 767, 767, 766],
      "WindowCenter": [477.0, 477.0, 476.0, 477.0, 477.0, 477.0, 476.0, 476.0, 476.0, 476.0, 476.0, 476.0, 476.0, 476.0, 476.0, 476.0, 476.0, 476.0, 476.0, 476.0, 476.0, 476.0, 476.0, 476.0, 476.0, 476.0, 476.0, 476.0, 476.0, 475.0, 475.0, 476.0, 476.0, 475.0, 475.0, 475.0, 475.0, 475.0, 476.0, 476.0, 476.0, 475.0, 475.0, 475.0, 476.0, 475.0, 476.0, 476.0, 475.0, 475.0, 475.0, 475.0, 475.0, 475.0, 475.0, 475.0, 475.0, 475.0, 475.0, 475.0, 475.0, 475.0, 475.0, 475.0, 475.0, 475.0, 475.0, 475.0, 475.0, 475.0, 475.0, 475.0, 475.0, 475.0, 475.0, 475.0, 475.0, 475.0, 476.0, 475.0, 475.0, 475.0, 475.0, 475.0, 475.0, 475.0, 475.0, 475.0, 475.0, 475.0, 475.0, 475.0, 475.0, 475.0, 475.0, 475.0, 475.0, 475.0, 475.0, 475.0, 475.0, 476.0, 475.0, 475.0, 475.0, 475.0, 475.0, 476.0, 475.0, 475.0, 475.0, 475.0, 475.0, 475.0, 475.0, 475.0, 475.0, 475.0, 475.0, 475.0, 475.0, 475.0, 475.0, 475.0, 475.0, 475.0, 475.0, 475.0, 475.0, 475.0, 475.0, 475.0, 475.0, 475.0, 475.0, 475.0, 475.0, 476.0, 475.0, 475.0, 475.0, 475.0, 475.0, 475.0, 475.0, 475.0, 475.0, 478.0, 475.0, 475.0, 475.0, 475.0, 475.0, 475.0, 475.0, 475.0, 475.0, 475.0, 475.0, 475.0, 475.0, 475.0, 475.0, 475.0, 475.0, 475.0, 475.0, 475.0, 475.0, 475.0, 475.0, 475.0, 477.0, 475.0, 475.0, 475.0, 475.0, 475.0, 475.0, 475.0, 475.0, 475.0, 475.0, 475.0, 475.0, 475.0, 475.0, 475.0, 475.0, 475.0, 475.0, 475.0, 475.0, 475.0, 475.0, 475.0, 475.0, 475.0, 475.0, 475.0],
      "WindowWidth": [988.0, 987.0, 987.0, 988.0, 988.0, 988.0, 986.0, 986.0, 986.0, 986.0, 986.0, 986.0, 986.0, 986.0, 986.0, 986.0, 986.0, 986.0, 986.0, 986.0, 986.0, 986.0, 986.0, 987.0, 986.0, 986.0, 986.0, 986.0, 986.0, 985.0, 985.0, 985.0, 986.0, 985.0, 985.0, 985.0, 985.0, 985.0, 986.0, 986.0, 986.0, 985.0, 985.0, 985.0, 986.0, 985.0, 986.0, 986.0, 985.0, 985.0, 985.0, 985.0, 985.0, 985.0, 985.0, 985.0, 985.0, 985.0, 985.0, 985.0, 985.0, 985.0, 985.0, 985.0, 985.0, 985.0, 985.0, 985.0, 985.0, 985.0, 985.0, 985.0, 985.0, 985.0, 985.0, 985.0, 985.0, 985.0, 986.0, 985.0, 985.0, 985.0, 985.0, 985.0, 985.0, 985.0, 985.0, 985.0, 985.0, 985.0, 985.0, 985.0, 985.0, 985.0, 985.0, 985.0, 985.0, 985.0, 985.0, 985.0, 985.0, 986.0, 985.0, 985.0, 985.0, 985.0, 985.0, 985.0, 985.0, 985.0, 985.0, 985.0, 985.0, 985.0, 985.0, 985.0, 985.0, 985.0, 985.0, 985.0, 985.0, 985.0, 985.0, 985.0, 985.0, 985.0, 985.0, 985.0, 985.0, 985.0, 985.0, 985.0, 985.0, 985.0, 984.0, 984.0, 985.0, 986.0, 985.0, 985.0, 985.0, 984.0, 984.0, 984.0, 984.0, 984.0, 984.0, 990.0, 984.0, 984.0, 984.0, 984.0, 984.0, 985.0, 985.0, 984.0, 984.0, 984.0, 984.0, 984.0, 984.0, 984.0, 984.0, 984.0, 984.0, 984.0, 984.0, 984.0, 984.0, 984.0, 984.0, 984.0, 988.0, 984.0, 984.0, 985.0, 984.0, 984.0, 984.0, 984.0, 984.0, 984.0, 984.0, 983.0, 984.0, 984.0, 984.0, 983.0, 983.0, 984.0, 984.0, 983.0, 983.0, 983.0, 983.0, 983.0, 983.0, 983.0, 984.0, 983.0]
    },
    "slices": {}
  }
}