{
  "AcquisitionMatrixPE": 80,
  "AcquisitionNumber": 1,
  "AcquisitionTime": "09:30:20.800000",
  "BandwidthPerPixelPhaseEncode": 48.077,
  "BaseResolution": 80,
  "BodyPartExamined": "BRAIN",
  "CoilCombinationMethod": "Sum of Squares",
  "ConsistencyInfo": "N4_VE11C_LATEST_20160120",
  "ConversionSoftware": "dcm2niix",
  "ConversionSoftwareVersion": "v1.0.20220720",
  "DerivedVendorReportedEchoSpacing": 0.000519999,
  "DeviceSerialNumber": "66112",
  "DwellTime": 2.7e-06,
  "EchoTime": 0.035,
  "EchoTrainLength": 39,
  "EffectiveEchoSpacing": 0.00026,
  "FlipAngle": 90,
  "HeudiconvVersion": "0.13.1",
  "ImageOrientationPatientDICOM": [0.999851, -0.000532687, -0.0172792, 0.00715491, 0.922651, 0.385571],
  "ImageOrientationText": "Tra>Cor(22.7)>Sag(-0.9)",
  "ImageType": [
    "ORIGINAL",
    "PRIMARY",
    "M",
    "ND",
    "NORM",
    "MOSAIC"
],
  "ImagingFrequency": 123.252,
  "InPlanePhaseEncodingDirectionDICOM": "COL",
  "InstitutionAddress": "Maynard 3,Hanover,NH,US,03755",
  "InstitutionName": "Dartmouth College - PBS",
  "InstitutionalDepartmentName": "Department",
  "MRAcquisitionType": "2D",
  "MagneticFieldStrength": 3,
  "Manufacturer": "Siemens",
  "ManufacturersModelName": "Prisma",
  "MatrixCoilMode": "GRAPPA",
  "Modality": "MR",
  "NonlinearGradientCorrection": false,
  "ParallelReductionFactorInPlane": 2,
  "PartialFourier": 1,
  "PatientPosition": "HFS",
  "PercentPhaseFOV": 100,
  "PercentSampling": 100,
  "PhaseEncodingDirection": "j-",
  "PhaseEncodingSteps": 79,
  "PhaseResolution": 1,
  "PixelBandwidth": 2315,
  "ProcedureStepDescription": "dbic^QA",
  "ProtocolName": "func-bold_task-rest_acq-p2",
  "PulseSequenceDetails": "%SiemensSeq%\\ep2d_bold",
  "ReceiveCoilActiveElements": "HEA;HEP",
  "ReceiveCoilName": "Head_32",
  "ReconMatrixPE": 80,
  "RefLinesPE": 24,
  "RepetitionTime": 2,
  "SAR": 0.0558048,
  "ScanOptions": "FS",
  "ScanningSequence": "EP",
  "SequenceName": "*epfid2d1_80",
  "SequenceVariant": "SK",
  "SeriesDescription": "func-bold_task-rest_acq-p2",
  "SeriesNumber": 5,
  "ShimSetting": [4139, -7700, -7522, 240, -89, 0, 30, 56],
  "SliceThickness": 3.5,
  "SliceTiming": [0.9875, 0, 1.055, 0.065, 1.12, 0.13, 1.1875, 0.1975, 1.2525, 0.2625, 1.3175, 0.33, 1.385, 0.395, 1.45, 0.46, 1.5175, 0.5275, 1.5825, 0.5925, 1.6475, 0.66, 1.715, 0.725, 1.78, 0.79, 1.8475, 0.8575, 1.9125, 0.9225],
  "SoftwareVersions": "syngo MR E11",
  "SpacingBetweenSlices": 3.99,
  "StationName": "AWP66112",
  "TaskName": "rest",
  "TotalReadoutTime": 0.02054,
  "TxRefAmp": 230.264,
  "dcmmeta_affine": [
    [-2.999551773071289, 0.02146472968161106, -0.06279177963733673, 120.6634750366211],
    [0.0015980609459802508, 2.767951726913452, 1.5386900901794434, -117.4007797241211],
    [-0.05183764174580574, -1.1567118167877197, 3.6808409690856934, 1.7042443752288818],
    [0.0, 0.0, 0.0, 1.0]
],
  "dcmmeta_reorient_transform": [
    [0.0, -1.0, 0.0, 79.0],
    [1.0, 0.0, 0.0, 0.0],
    [0.0, 0.0, 1.0, 0.0],
    [0.0, 0.0, 0.0, 1.0]
],
  "dcmmeta_shape": [80, 80, 30, 200],
  "dcmmeta_slice_dim": 2,
  "dcmmeta_version": 0.6,
  "global": {
    "const": {
      "AccessionNumber": "qa",
      "AcquisitionMatrix": [80, 0, 0, 80],
      "AngioFlag": "N",
      "BitsAllocated": 16,
      "BitsStored": 12,
      "BodyPartExamined": "BRAIN",
      "Columns": 480,
      "EchoNumbers": 1,
      "EchoTime": 35.0,
      "EchoTrainLength": 39,
      "FlipAngle": 90.0,
      "HighBit": 11,
      "ImageOrientationPatient": [0.9998505613444, -0.0005326869892, -0.0172792136357, 0.00715491002348, 0.92265059293795, 0.38557060392851],
      "ImagePositionPatient": [-726.56247297233, -654.53815159861, -310.65082289193],
      "ImageType": [
        "ORIGINAL",
        "PRIMARY",
        "M",
        "ND",
        "NORM",
        "MOSAIC"
],
      "ImagedNucleus": "1H",
      "ImagingFrequency": 123.252342,
      "InPlanePhaseEncodingDirection": "COL",
      "MRAcquisitionType": "2D",
      "MagneticFieldStrength": 3.0,
      "Manufacturer": "SIEMENS",
      "ManufacturerModelName": "Prisma",
      "Modality": "MR",
      "NumberOfAverages": 1.0,
      "NumberOfPhaseEncodingSteps": 79,
      "PercentPhaseFieldOfView": 100.0,
      "PercentSampling": 100.0,
      "PerformedProcedureStepStartTime": "092455.080000",
      "PhotometricInterpretation": "MONOCHROME2",
      "PixelBandwidth": 2315.0,
      "PixelRepresentation": 0,
      "PixelSpacing": [3.0, 3.0],
      "ProtocolName": "func-bold_task-rest_acq-p2",
      "RepetitionTime": 2000.0,
      "Rows": 480,
      "SAR": 0.05580481045331,
      "SamplesPerPixel": 1,
      "ScanOptions": "FS",
      "ScanningSequence": "EP",
      "SequenceName": "*epfid2d1_80",
      "SequenceVariant": "SK",
      "SeriesDescription": "func-bold_task-rest_acq-p2",
      "SeriesNumber": 5,
      "SeriesTime": "093108.963000",
      "SliceLocation": -45.600762754664,
      "SliceThickness": 3.5,
      "SmallestImagePixelValue": 0,
      "SoftwareVersions": "syngo MR E11",
      "SpacingBetweenSlices": 3.9900000386202,
      "SpecificCharacterSet": "ISO_IR 100",
      "StudyID": "6",
      "StudyTime": "092455.032000",
      "TransmitCoilName": "Body",
      "VariableFlipAngleFlag": "N",
      "WindowCenterWidthExplanation": "Algo1",
      "dBdt": 0.0},
    "slices": {}
  },
  "time": {
    "samples": {
      "AcquisitionNumber": [1, 2, 3, 4, 5, 6, 7, 8, 9, 10, 11, 12, 13, 14, 15, 16, 17, 18, 19, 20, 21, 22, 23, 24, 25, 26, 27, 28, 29, 30, 31, 32, 33, 34, 35, 36, 37, 38, 39, 40, 41, 42, 43, 44, 45, 46, 47, 48, 49, 50, 51, 52, 53, 54, 55, 56, 57, 58, 59, 60, 61, 62, 63, 64, 65, 66, 67, 68, 69, 70, 71, 72, 73, 74, 75, 76, 77, 78, 79, 80, 81, 82, 83, 84, 85, 86, 87, 88, 89, 90, 91, 92, 93, 94, 95, 96, 97, 98, 99, 100, 101, 102, 103, 104, 105, 106, 107, 108, 109, 110, 111, 112, 113, 114, 115, 116, 117, 118, 119, 120, 121, 122, 123, 124, 125, 126, 127, 128, 129, 130, 131, 132, 133, 134, 135, 136, 137, 138, 139, 140, 141, 142, 143, 144, 145, 146, 147, 148, 149, 150, 151, 152, 153, 154, 155, 156, 157, 158, 159, 160, 161, 162, 163, 164, 165, 166, 167, 168, 169, 170, 171, 172, 173, 174, 175, 176, 177, 178, 179, 180, 181, 182, 183, 184, 185, 186, 187, 188, 189, 190, 191, 192, 193, 194, 195, 196, 197, 198, 199, 200],
      "AcquisitionTime": ["093020.800000", "093022.800000", "093024.800000", "093026.800000", "093028.800000", "093030.800000", "093032.800000", "093034.800000", "093036.800000", "093038.800000", "093040.800000", "093042.800000", "093044.800000", "093046.800000", "093048.800000", "093050.800000", "093052.800000", "093054.800000", "093056.800000", "093058.800000", "093100.800000", "093102.800000", "093104.800000", "093106.800000", "093108.800000", "093110.800000", "093112.800000", "093114.800000", "093116.800000", "093118.800000", "093120.800000", "093122.800000", "093124.800000", "093126.800000", "093128.800000", "093130.800000", "093132.800000", "093134.800000", "093136.800000", "093138.800000", "093140.800000", "093142.800000", "093144.800000", "093146.800000", "093148.800000", "093150.800000", "093152.800000", "093154.800000", "093156.800000", "093158.800000", "093200.800000", "093202.800000", "093204.800000", "093206.800000", "093208.800000", "093210.800000", "093212.800000", "093214.800000", "093216.800000", "093218.800000", "093220.800000", "093222.800000", "093224.800000", "093226.800000", "093228.800000", "093230.800000", "093232.800000", "093234.800000", "093236.800000", "093238.800000", "093240.800000", "093242.800000", "093244.800000", "093246.800000", "093248.800000", "093250.800000", "093252.800000", "093254.800000", "093256.800000", "093258.800000", "093300.800000", "093302.800000", "093304.800000", "093306.800000", "093308.800000", "093310.800000", "093312.800000", "093314.800000", "093316.800000", "093318.800000", "093320.800000", "093322.800000", "093324.800000", "093326.800000", "093328.800000", "093330.800000", "093332.800000", "093334.800000", "093336.800000", "093338.800000", "093340.800000", "093342.800000", "093344.800000", "093346.800000", "093348.800000", "093350.800000", "093352.800000", "093354.800000", "093356.800000", "093358.800000", "093400.800000", "093402.800000", "093404.800000", "093406.800000", "093408.800000", "093410.800000", "093412.800000", "093414.800000", "093416.800000", "093418.800000", "093420.800000", "093422.800000", "093424.800000", "093426.800000", "093428.800000", "093430.800000", "093432.800000", "093434.800000", "093436.800000", "093438.800000", "093440.800000", "093442.800000", "093444.800000", "093446.800000", "093448.800000", "093450.800000", "093452.800000", "093454.800000", "093456.800000", "093458.800000", "093500.800000", "093502.800000", "093504.800000", "093506.800000", "093508.800000", "093510.800000", "093512.800000", "093514.800000", "093516.800000", "093518.800000", "093520.800000", "093522.800000", "093524.800000", "093526.800000", "093528.800000", "093530.800000", "093532.800000", "093534.800000", "093536.800000", "093538.800000", "093540.800000", "093542.800000", "093544.800000", "093546.800000", "093548.800000", "093550.800000", "093552.800000", "093554.800000", "093556.800000", "093558.800000", "093600.800000", "093602.800000", "093604.800000", "093606.800000", "093608.800000", "093610.800000", "093612.800000", "093614.800000", "093616.800000", "093618.800000", "093620.800000", "093622.800000", "093624.800000", "093626.800000", "093628.800000", "093630.800000", "093632.800000", "093634.800000", "093636.800000", "093638.800000", "093640.800000", "093642.800000", "093644.800000", "093646.800000", "093648.800000", "093650.800000", "093652.800000", "093654.800000", "093656.800000", "093658.800000"],
      "ContentTime": ["093108.967000", "093108.970000", "093108.973000", "093108.976000", "093108.978000", "093108.981000", "093108.983000", "093108.986000", "093108.988000", "093108.991000", "093108.993000", "093108.996000", "093108.998000", "093109.011000", "093109.013000", "093109.016000", "093109.018000", "093109.021000", "093109.023000", "093109.026000", "093109.028000", "093109.031000", "093109.033000", "093109.036000", "093148.962000", "093148.964000", "093148.967000", "093148.969000", "093148.972000", "093148.974000", "093148.977000", "093148.979000", "093148.982000", "093148.984000", "093148.987000", "093148.989000", "093148.992000", "093148.994000", "093148.997000", "093149.000000", "093149.003000", "093149.006000", "093149.008000", "093149.011000", "093228.961000", "093228.964000", "093228.967000", "093228.969000", "093228.972000", "093228.974000", "093228.977000", "093228.979000", "093228.982000", "093228.984000", "093228.987000", "093228.989000", "093228.992000", "093228.994000", "093228.997000", "093229.000000", "093229.003000", "093229.005000", "093229.008000", "093229.011000", "093308.962000", "093308.965000", "093308.967000", "093308.970000", "093308.972000", "093308.975000", "093308.977000", "093308.980000", "093308.982000", "093308.985000", "093308.987000", "093308.990000", "093308.992000", "093308.995000", "093308.997000", "093309.001000", "093309.003000", "093309.006000", "093309.008000", "093309.011000", "093348.961000", "093348.964000", "093348.967000", "093348.969000", "093348.972000", "093348.974000", "093348.977000", "093348.979000", "093348.982000", "093348.984000", "093348.987000", "093348.990000", "093348.992000", "093348.994000", "093348.997000", "093349.001000", "093349.003000", "093349.006000", "093349.008000", "093349.011000", "093428.961000", "093428.964000", "093428.967000", "093428.969000", "093428.981000", "093428.983000", "093428.986000", "093428.988000", "093428.991000", "093428.993000", "093428.996000", "093428.998000", "093429.001000", "093429.003000", "093429.006000", "093429.008000", "093429.011000", "093429.013000", "093429.016000", "093429.019000", "093508.962000", "093508.964000", "093508.967000", "093508.970000", "093508.972000", "093508.975000", "093508.977000", "093508.980000", "093508.982000", "093508.985000", "093508.987000", "093508.990000", "093508.993000", "093508.995000", "093508.998000", "093509.001000", "093509.004000", "093509.006000", "093509.009000", "093509.011000", "093548.962000", "093548.964000", "093548.967000", "093548.970000", "093548.972000", "093548.975000", "093548.977000", "093548.980000", "093548.982000", "093548.985000", "093548.988000", "093548.990000", "093548.993000", "093548.995000", "093548.998000", "093549.001000", "093549.004000", "093549.006000", "093549.009000", "093549.011000", "093628.961000", "093628.974000", "093628.976000", "093628.979000", "093628.981000", "093628.984000", "093628.986000", "093628.989000", "093628.991000", "093628.994000", "093628.997000", "093629.000000", "093629.003000", "093629.005000", "093629.008000", "093629.010000", "093629.013000", "093629.016000", "093629.018000", "093629.021000", "093659.936000", "093659.939000", "093659.942000", "093659.944000", "093659.947000", "093659.950000", "093659.952000", "093659.955000", "093659.957000", "093659.960000", "093659.963000", "093659.970000", "093659.974000", "093659.977000", "093659.984000", "093659.987000"],
      "InstanceCreationTime": ["093108.967000", "093108.970000", "093108.973000", "093108.976000", "093108.978000", "093108.981000", "093108.983000", "093108.986000", "093108.988000", "093108.991000", "093108.993000", "093108.996000", "093108.998000", "093109.011000", "093109.013000", "093109.016000", "093109.018000", "093109.021000", "093109.023000", "093109.026000", "093109.028000", "093109.031000", "093109.033000", "093109.036000", "093148.962000", "093148.964000", "093148.967000", "093148.969000", "093148.972000", "093148.974000", "093148.977000", "093148.979000", "093148.982000", "093148.984000", "093148.987000", "093148.989000", "093148.992000", "093148.994000", "093148.997000", "093149.000000", "093149.003000", "093149.006000", "093149.008000", "093149.011000", "093228.961000", "093228.964000", "093228.967000", "093228.969000", "093228.972000", "093228.974000", "093228.977000", "093228.979000", "093228.982000", "093228.984000", "093228.987000", "093228.989000", "093228.992000", "093228.994000", "093228.997000", "093229.000000", "093229.003000", "093229.005000", "093229.008000", "093229.011000", "093308.962000", "093308.965000", "093308.967000", "093308.970000", "093308.972000", "093308.975000", "093308.977000", "093308.980000", "093308.982000", "093308.985000", "093308.987000", "093308.990000", "093308.992000", "093308.995000", "093308.997000", "093309.001000", "093309.003000", "093309.006000", "093309.008000", "093309.011000", "093348.961000", "093348.964000", "093348.967000", "093348.969000", "093348.972000", "093348.974000", "093348.977000", "093348.979000", "093348.982000", "093348.984000", "093348.987000", "093348.990000", "093348.992000", "093348.994000", "093348.997000", "093349.001000", "093349.003000", "093349.006000", "093349.008000", "093349.011000", "093428.961000", "093428.964000", "093428.967000", "093428.969000", "093428.981000", "093428.983000", "093428.986000", "093428.988000", "093428.991000", "093428.993000", "093428.996000", "093428.998000", "093429.001000", "093429.003000", "093429.006000", "093429.008000", "093429.011000", "093429.013000", "093429.016000", "093429.019000", "093508.962000", "093508.964000", "093508.967000", "093508.970000", "093508.972000", "093508.975000", "093508.977000", "093508.980000", "093508.982000", "093508.985000", "093508.987000", "093508.990000", "093508.993000", "093508.995000", "093508.998000", "093509.001000", "093509.004000", "093509.006000", "093509.009000", "093509.011000", "093548.962000", "093548.964000", "093548.967000", "093548.970000", "093548.972000", "093548.975000", "093548.977000", "093548.980000", "093548.982000", "093548.985000", "093548.988000", "093548.990000", "093548.993000", "093548.995000", "093548.998000", "093549.001000", "093549.004000", "093549.006000", "093549.009000", "093549.011000", "093628.961000", "093628.974000", "093628.976000", "093628.979000", "093628.981000", "093628.984000", "093628.986000", "093628.989000", "093628.991000", "093628.994000", "093628.997000", "093629.000000", "093629.003000", "093629.005000", "093629.008000", "093629.010000", "093629.013000", "093629.016000", "093629.018000", "093629.021000", "093659.936000", "093659.939000", "093659.942000", "093659.944000", "093659.947000", "093659.950000", "093659.952000", "093659.955000", "093659.957000", "093659.960000", "093659.963000", "093659.970000", "093659.974000", "093659.977000", "093659.984000", "093659.987000"],
      "InstanceNumber": [1, 2, 3, 4, 5, 6, 7, 8, 9, 10, 11, 12, 13, 14, 15, 16, 17, 18, 19, 20, 21, 22, 23, 24, 25, 26, 27, 28, 29, 30, 31, 32, 33, 34, 35, 36, 37, 38, 39, 40, 41, 42, 43, 44, 45, 46, 47, 48, 49, 50, 51, 52, 53, 54, 55, 56, 57, 58, 59, 60, 61, 62, 63, 64, 65, 66, 67, 68, 69, 70, 71, 72, 73, 74, 75, 76, 77, 78, 79, 80, 81, 82, 83, 84, 85, 86, 87, 88, 89, 90, 91, 92, 93, 94, 95, 96, 97, 98, 99, 100, 101, 102, 103, 104, 105, 106, 107, 108, 109, 110, 111, 112, 113, 114, 115, 116, 117, 118, 119, 120, 121, 122, 123, 124, 125, 126, 127, 128, 129, 130, 131, 132, 133, 134, 135, 136, 137, 138, 139, 140, 141, 142, 143, 144, 145, 146, 147, 148, 149, 150, 151, 152, 153, 154, 155, 156, 157, 158, 159, 160, 161, 162, 163, 164, 165, 166, 167, 168, 169, 170, 171, 172, 173, 174, 175, 176, 177, 178, 179, 180, 181, 182, 183, 184, 185, 186, 187, 188, 189, 190, 191, 192, 193, 194, 195, 196, 197, 198, 199, 200],
      "LargestImagePixelValue": [2118, 2118, 2122, 2119, 2130, 2118, 2126, 2124, 2119, 2126, 2129, 2120, 2119, 2121, 2128, 2123, 2123, 2121, 2126, 2124, 2125, 2125, 2126, 2122, 2128, 2131, 2131, 2131, 2130, 2123, 2132, 2125, 2121, 2122, 2125, 2125, 2135, 2128, 2129, 2129, 2120, 2129, 2127, 2131, 2122, 2120, 2128, 2125, 2133, 2132, 2128, 2128, 2127, 2128, 2131, 2125, 2121, 2127, 2131, 2131, 2131, 2125, 2128, 2132, 2123, 2127, 2121, 2130, 2130, 2132, 2117, 2134, 2124, 2131, 2125, 2129, 2132, 2134, 2137, 2133, 2131, 2129, 2135, 2138, 2134, 2134, 2131, 2136, 2128, 2133, 2124, 2134, 2138, 2128, 2131, 2136, 2134, 2133, 2134, 2139, 2127, 2128, 2133, 2130, 2130, 2129, 2130, 2128, 2135, 2135, 2129, 2129, 2129, 2125, 2131, 2132, 2126, 2127, 2131, 2130, 2128, 2132, 2130, 2135, 2123, 2125, 2131, 2132, 2129, 2131, 2125, 2133, 2129, 2129, 2125, 2125, 2126, 2131, 2129, 2126, 2127, 2131, 2125, 2129, 2128, 2124, 2124, 2128, 2120, 2126, 2127, 2128, 2121, 2125, 2131, 2127, 2128, 2130, 2128, 2129, 2129, 2135, 2138, 2132, 2131, 2133, 2132, 2142, 2130, 2136, 2133, 2134, 2129, 2133, 2130, 2133, 2128, 2138, 2141, 2141, 2135, 2130, 2136, 2135, 2138, 2135, 2131, 2138, 2133, 2134, 2133, 2130, 2133, 2128, 2127, 2129, 2128, 2133, 2126, 2130],
      "WindowCenter": [1010.0, 1010.0, 1009.0, 1009.0, 1010.0, 1010.0, 1009.0, 1009.0, 1010.0, 1010.0, 1010.0, 1010.0, 1009.0, 1010.0, 1010.0, 1010.0, 1009.0, 1009.0, 1010.0, 1009.0, 1009.0, 1010.0, 1009.0, 1010.0, 1009.0, 1009.0, 1010.0, 1010.0, 1009.0, 1009.0, 1010.0, 1009.0, 1009.0, 1010.0, 1010.0, 1010.0, 1009.0, 1009.0, 1010.0, 1009.0, 1009.0, 1009.0, 1010.0, 1009.0, 1009.0, 1009.0, 1010.0, 1009.0, 1009.0, 1009.0, 1009.0, 1009.0, 1009.0, 1010.0, 1008.0, 1009.0, 1008.0, 1010.0, 1008.0, 1009.0, 1009.0, 1009.0, 1009.0, 1008.0, 1008.0, 1008.0, 1009.0, 1009.0, 1010.0, 1009.0, 1008.0, 1008.0, 1009.0, 1009.0, 1009.0, 1009.0, 1008.0, 1009.0, 1009.0, 1008.0, 1009.0, 1008.0, 1008.0, 1009.0, 1008.0, 1009.0, 1008.0, 1008.0, 1009.0, 1010.0, 1009.0, 1008.0, 1008.0, 1009.0, 1010.0, 1008.0, 1009.0, 1008.0, 1009.0, 1009.0, 1010.0, 1008.0, 1009.0, 1009.0, 1008.0, 1009.0, 1009.0, 1009.0, 1009.0, 1009.0, 1008.0, 1008.0, 1010.0, 1008.0, 1009.0, 1008.0, 1009.0, 1008.0, 1010.0, 1008.0, 1009.0, 1009.0, 1010.0, 1010.0, 1009.0, 1009.0, 1010.0, 1008.0, 1009.0, 1009.0, 1008.0, 1008.0, 1009.0, 1009.0, 1008.0, 1009.0, 1009.0, 1009.0, 1008.0, 1009.0, 1009.0, 1009.0, 1009.0, 1008.0, 1008.0, 1010.0, 1008.0, 1008.0, 1008.0, 1010.0, 1009.0, 1008.0, 1008.0, 1009.0, 1009.0, 1008.0, 1009.0, 1009.0, 1009.0, 1008.0, 1008.0, 1009.0, 1009.0, 1009.0, 1008.0, 1009.0, 1009.0, 1009.0, 1008.0, 1009.0, 1008.0, 1008.0, 1009.0, 1008.0, 1008.0, 1008.0, 1009.0, 1008.0, 1009.0, 1009.0, 1009.0, 1008.0, 1008.0, 1008.0, 1008.0, 1008.0, 1009.0, 1009.0, 1008.0, 1008.0, 1008.0, 1008.0, 1008.0, 1009.0, 1008.0, 1009.0, 1008.0, 1008.0, 1009.0, 1008.0],
      "WindowWidth": [2225.0, 2224.0, 2223.0, 2223.0, 2224.0, 2223.0, 2223.0, 2223.0, 2223.0, 2224.0, 2223.0, 2223.0, 2223.0, 2224.0, 2223.0, 2223.0, 2223.0, 2223.0, 2223.0, 2223.0, 2222.0, 2223.0, 2223.0, 2223.0, 2222.0, 2223.0, 2223.0, 2223.0, 2222.0, 2223.0, 2223.0, 2223.0, 2223.0, 2223.0, 2223.0, 2223.0, 2223.0, 2223.0, 2224.0, 2223.0, 2223.0, 2223.0, 2223.0, 2222.0, 2223.0, 2222.0, 2224.0, 2223.0, 2223.0, 2223.0, 2223.0, 2223.0, 2223.0, 2224.0, 2222.0, 2223.0, 2222.0, 2224.0, 2222.0, 2223.0, 2223.0, 2223.0, 2223.0, 2222.0, 2222.0, 2222.0, 2223.0, 2223.0, 2223.0, 2223.0, 2222.0, 2222.0, 2223.0, 2223.0, 2222.0, 2223.0, 2222.0, 2223.0, 2223.0, 2222.0, 2222.0, 2222.0, 2222.0, 2223.0, 2222.0, 2222.0, 2222.0, 2222.0, 2223.0, 2224.0, 2223.0, 2222.0, 2222.0, 2222.0, 2224.0, 2222.0, 2223.0, 2222.0, 2223.0, 2222.0, 2224.0, 2222.0, 2223.0, 2222.0, 2222.0, 2223.0, 2223.0, 2223.0, 2223.0, 2223.0, 2222.0, 2222.0, 2224.0, 2222.0, 2223.0, 2222.0, 2223.0, 2222.0, 2223.0, 2222.0, 2223.0, 2223.0, 2223.0, 2223.0, 2222.0, 2223.0, 2223.0, 2222.0, 2222.0, 2222.0, 2222.0, 2222.0, 2222.0, 2222.0, 2222.0, 2223.0, 2223.0, 2222.0, 2221.0, 2222.0, 2222.0, 2222.0, 2222.0, 2222.0, 2221.0, 2223.0, 2221.0, 2221.0, 2222.0, 2223.0, 2222.0, 2221.0, 2221.0, 2222.0, 2222.0, 2221.0, 2222.0, 2222.0, 2222.0, 2221.0, 2221.0, 2222.0, 2222.0, 2222.0, 2221.0, 2222.0, 2222.0, 2223.0, 2221.0, 2223.0, 2221.0, 2221.0, 2222.0, 2221.0, 2221.0, 2221.0, 2222.0, 2221.0, 2222.0, 2222.0, 2222.0, 2221.0, 2221.0, 2221.0, 2221.0, 2221.0, 2221.0, 2222.0, 2221.0, 2221.0, 2221.0, 2221.0, 2221.0, 2222.0, 2221.0, 2222.0, 2221.0, 2221.0, 2222.0, 2221.0]
    },
    "slices": {}
  }
}