{
  "AcquisitionMatrixPE": 122,
  "AcquisitionNumber": 1,
  "AcquisitionTime": "12:32:29.457500",
  "BandwidthPerPixelPhaseEncode": 27.785,
  "BaseResolution": 122,
  "BodyPartExamined": "BRAIN",
  "CoilCombinationMethod": "Adaptive Combine",
  "ConsistencyInfo": "N4_VE11C_LATEST_20160120",
  "ConversionSoftware": "dcm2niix",
  "ConversionSoftwareVersion": "v1.0.20220720",
  "DerivedVendorReportedEchoSpacing": 0.000590011,
  "DeviceSerialNumber": "66112",
  "DiffusionScheme": "Monopolar",
  "DwellTime": 2e-06,
  "EchoTime": 0.068,
  "EchoTrainLength": 61,
  "EffectiveEchoSpacing": 0.000295005,
  "FlipAngle": 90,
  "HeudiconvVersion": "0.13.1",
  "ImageComments": "QA/20000101/QA/3",
  "ImageOrientationPatientDICOM": [0.98138, 0.191434, 0.01567, -0.187386, 0.936318, 0.296977],
  "ImageOrientationText": "Tra>Cor(17.1)>Sag(-2.4)",
  "ImageType": [
    "ORIGINAL",
    "PRIMARY",
    "DIFFUSION",
    "NONE",
    "ND",
    "NORM"
],
  "ImagingFrequency": 123.252,
  "InPlanePhaseEncodingDirectionDICOM": "COL",
  "InstitutionAddress": "Maynard 3,Hanover,NH,US,03755",
  "InstitutionName": "Dartmouth College - PBS",
  "InstitutionalDepartmentName": "Department",
  "MRAcquisitionType": "2D",
  "MagneticFieldStrength": 3,
  "Manufacturer": "Siemens",
  "ManufacturersModelName": "Prisma",
  "Modality": "MR",
  "MultibandAccelerationFactor": 4,
  "NonlinearGradientCorrection": false,
  "ParallelReductionFactorInPlane": 2,
  "PartialFourier": 1,
  "PatientPosition": "HFS",
  "PercentPhaseFOV": 100,
  "PercentSampling": 100,
  "PhaseEncodingDirection": "j-",
  "PhaseEncodingSteps": 122,
  "PhaseResolution": 1,
  "PixelBandwidth": 2050,
  "ProcedureStepDescription": "dbic^QA",
  "ProtocolName": "dwi_acq-DTI-30-p2-s4",
  "PulseSequenceDetails": "%SiemensSeq%\\ep2d_diff",
  "ReceiveCoilActiveElements": "HEA;HEP",
  "ReceiveCoilName": "Head_32",
  "ReconMatrixPE": 122,
  "RefLinesPE": 38,
  "RepetitionTime": 3.6,
  "ScanOptions": "FS",
  "ScanningSequence": "EP",
  "SequenceName": "*ep_b0",
  "SequenceVariant": "SK\\SP",
  "SeriesDescription": "dwi_acq-DTI-30-p2-s4_RR",
  "SeriesNumber": 8,
  "ShimSetting": [4157, -7702, -7528, 178, 27, -197, 1, 61],
  "SliceThickness": 2,
  "SliceTiming": [2.58594, 0, 1.78906, 0.19531, 1.98438, 0.39844, 2.1875, 0.59375, 2.38281, 0.99219, 2.78125, 1.1875, 2.97656, 1.39062, 3.17969, 1.58594, 3.375, 0.78906, 2.58594, 0, 1.78906, 0.19531, 1.98438, 0.39844, 2.1875, 0.59375, 2.38281, 0.99219, 2.78125, 1.1875, 2.97656, 1.39062, 3.17969, 1.58594, 3.375, 0.78906, 2.58594, 0, 1.78906, 0.19531, 1.98438, 0.39844, 2.1875, 0.59375, 2.38281, 0.99219, 2.78125, 1.1875, 2.97656, 1.39062, 3.17969, 1.58594, 3.375, 0.78906, 2.58594, 0, 1.78906, 0.19531, 1.98438, 0.39844, 2.1875, 0.59375, 2.38281, 0.99219, 2.78125, 1.1875, 2.97656, 1.39062, 3.17969, 1.58594, 3.375, 0.78906],
  "SoftwareVersions": "syngo MR E11",
  "SpacingBetweenSlices": 2,
  "SpoilingState": true,
  "StationName": "AWP66112",
  "TotalReadoutTime": 0.0356956,
  "TxRefAmp": 222.314,
  "dcmmeta_affine": [
    [-1.93058443069458, -0.3686279058456421, -0.08435869216918945, 139.07171630859375],
    [-0.37659165263175964, 1.841936707496643, 0.5887680053710938, -98.34517669677734],
    [0.03082631342113018, -0.5842177867889404, 1.9095077514648438, -25.583038330078125],
    [0.0, 0.0, 0.0, 1.0]
],
  "dcmmeta_reorient_transform": [
    [0.0, -1.0, 0.0, 121.0],
    [1.0, 0.0, 0.0, 0.0],
    [0.0, 0.0, -1.0, 71.0],
    [0.0, 0.0, 0.0, 1.0]
],
  "dcmmeta_shape": [122, 122, 72, 31],
  "dcmmeta_slice_dim": 2,
  "dcmmeta_version": 0.6,
  "global": {
    "const": {
      "AccessionNumber": "qa",
      "AcquisitionMatrix": [122, 0, 0, 122],
      "AngioFlag": "N",
      "BitsAllocated": 16,
      "BitsStored": 12,
      "BodyPartExamined": "BRAIN",
      "Columns": 122,
      "EchoNumbers": 1,
      "EchoTime": 68.0,
      "EchoTrainLength": 61,
      "FlipAngle": 90.0,
      "HighBit": 11,
      "ImageOrientationPatient": [0.98138037484636, 0.19143408692979, 0.01567004236663, -0.1873858423161, 0.93631778593199, 0.29697735578141],
      "ImageType": [
        "ORIGINAL",
        "PRIMARY",
        "DIFFUSION",
        "NONE",
        "ND",
        "NORM"
],
      "ImagedNucleus": "1H",
      "ImagingFrequency": 123.252473,
      "InPlanePhaseEncodingDirection": "COL",
      "MRAcquisitionType": "2D",
      "MagneticFieldStrength": 3.0,
      "Manufacturer": "SIEMENS",
      "ManufacturerModelName": "Prisma",
      "Modality": "MR",
      "NumberOfAverages": 1.0,
      "NumberOfPhaseEncodingSteps": 122,
      "PercentPhaseFieldOfView": 100.0,
      "PercentSampling": 100.0,
      "PerformedProcedureStepStartTime": "120656.548000",
      "PhotometricInterpretation": "MONOCHROME2",
      "PixelBandwidth": 2050.0,
      "PixelRepresentation": 0,
      "PixelSpacing": [1.9672131538391, 1.9672131538391],
      "ProtocolName": "dwi_acq-DTI-30-p2-s4",
      "RepetitionTime": 3600.0,
      "Rows": 122,
      "SAR": 0.0,
      "SamplesPerPixel": 1,
      "ScanOptions": "FS",
      "ScanningSequence": "EP",
      "SequenceVariant": [
        "SK",
        "SP"
],
      "SeriesDescription": "dwi_acq-DTI-30-p2-s4_RR",
      "SeriesNumber": 8,
      "SeriesTime": "131352.224000",
      "SliceThickness": 2.0,
      "SmallestImagePixelValue": 0,
      "SoftwareVersions": "syngo MR E11",
      "SpacingBetweenSlices": 2.0,
      "SpecificCharacterSet": "ISO_IR 100",
      "StudyID": "78",
      "StudyTime": "120656.431000",
      "TransmitCoilName": "Body",
      "VariableFlipAngleFlag": "N",
      "WindowCenterWidthExplanation": "Algo1",
      "dBdt": 0.0},
    "slices": {
      "AcquisitionTime": ["123229.457500", "123226.872500", "123228.662500", "123227.070000", "123228.860000", "123227.270000", "123229.060000", "123227.467500", "123229.257500", "123227.867500", "123229.657500", "123228.065000", "123229.855000", "123228.265000", "123230.055000", "123228.462500", "123230.252500", "123227.667500", "123229.457500", "123226.872500", "123228.662500", "123227.070000", "123228.860000", "123227.270000", "123229.060000", "123227.467500", "123229.257500", "123227.867500", "123229.657500", "123228.065000", "123229.855000", "123228.265000", "123230.055000", "123228.462500", "123230.252500", "123227.667500", "123229.457500", "123226.872500", "123228.662500", "123227.070000", "123228.860000", "123227.270000", "123229.060000", "123227.467500", "123229.257500", "123227.867500", "123229.657500", "123228.065000", "123229.855000", "123228.265000", "123230.055000", "123228.462500", "123230.252500", "123227.667500", "123229.457500", "123226.872500", "123228.662500", "123227.070000", "123228.860000", "123227.270000", "123229.060000", "123227.467500", "123229.257500", "123227.867500", "123229.657500", "123228.065000", "123229.855000", "123228.265000", "123230.055000", "123228.462500", "123230.252500", "123227.667500", "123233.057500", "123230.472500", "123232.262500", "123230.670000", "123232.460000", "123230.870000", "123232.660000", "123231.067500", "123232.857500", "123231.467500", "123233.257500", "123231.665000", "123233.455000", "123231.865000", "123233.655000", "123232.062500", "123233.852500", "123231.267500", "123233.057500", "123230.472500", "123232.262500", "123230.670000", "123232.460000", "123230.870000", "123232.660000", "123231.067500", "123232.857500", "123231.467500", "123233.257500", "123231.665000", "123233.455000", "123231.865000", "123233.655000", "123232.062500", "123233.852500", "123231.267500", "123233.057500", "123230.472500", "123232.262500", "123230.670000", "123232.460000", "123230.870000", "123232.660000", "123231.067500", "123232.857500", "123231.467500", "123233.257500", "123231.665000", "123233.455000", "123231.865000", "123233.655000", "123232.062500", "123233.852500", "123231.267500", "123233.057500", "123230.472500", "123232.262500", "123230.670000", "123232.460000", "123230.870000", "123232.660000", "123231.067500", "123232.857500", "123231.467500", "123233.257500", "123231.665000", "123233.455000", "123231.865000", "123233.655000", "123232.062500", "123233.852500", "123231.267500", "123236.657500", "123234.072500", "123235.862500", "123234.270000", "123236.060000", "123234.470000", "123236.260000", "123234.667500", "123236.457500", "123235.067500", "123236.857500", "123235.265000", "123237.055000", "123235.465000", "123237.255000", "123235.662500", "123237.452500", "123234.867500", "123236.657500", "123234.072500", "123235.862500", "123234.270000", "123236.060000", "123234.470000", "123236.260000", "123234.667500", "123236.457500", "123235.067500", "123236.857500", "123235.265000", "123237.055000", "123235.465000", "123237.255000", "123235.662500", "123237.452500", "123234.867500", "123236.657500", "123234.072500", "123235.862500", "123234.270000", "123236.060000", "123234.470000", "123236.260000", "123234.667500", "123236.457500", "123235.067500", "123236.857500", "123235.265000", "123237.055000", "123235.465000", "123237.255000", "123235.662500", "123237.452500", "123234.867500", "123236.657500", "123234.072500", "123235.862500", "123234.270000", "123236.060000", "123234.470000", "123236.260000", "123234.667500", "123236.457500", "123235.067500", "123236.857500", "123235.265000", "123237.055000", "123235.465000", "123237.255000", "123235.662500", "123237.452500", "123234.867500", "123240.257500", "123237.672500", "123239.462500", "123237.870000", "123239.660000", "123238.070000", "123239.860000", "123238.267500", "123240.057500", "123238.667500", "123240.457500", "123238.865000", "123240.655000", "123239.065000", "123240.855000", "123239.262500", "123241.052500", "123238.467500", "123240.257500", "123237.672500", "123239.462500", "123237.870000", "123239.660000", "123238.070000", "123239.860000", "123238.267500", "123240.057500", "123238.667500", "123240.457500", "123238.865000", "123240.655000", "123239.065000", "123240.855000", "123239.262500", "123241.052500", "123238.467500", "123240.257500", "123237.672500", "123239.462500", "123237.870000", "123239.660000", "123238.070000", "123239.860000", "123238.267500", "123240.057500", "123238.667500", "123240.457500", "123238.865000", "123240.655000", "123239.065000", "123240.855000", "123239.262500", "123241.052500", "123238.467500", "123240.257500", "123237.672500", "123239.462500", "123237.870000", "123239.660000", "123238.070000", "123239.860000", "123238.267500", "123240.057500", "123238.667500", "123240.457500", "123238.865000", "123240.655000", "123239.065000", "123240.855000", "123239.262500", "123241.052500", "123238.467500", "123243.857500", "123241.272500", "123243.062500", "123241.470000", "123243.260000", "123241.670000", "123243.460000", "123241.867500", "123243.657500", "123242.267500", "123244.057500", "123242.465000", "123244.255000", "123242.665000", "123244.455000", "123242.862500", "123244.652500", "123242.067500", "123243.857500", "123241.272500", "123243.062500", "123241.470000", "123243.260000", "123241.670000", "123243.460000", "123241.867500", "123243.657500", "123242.267500", "123244.057500", "123242.465000", "123244.255000", "123242.665000", "123244.455000", "123242.862500", "123244.652500", "123242.067500", "123243.857500", "123241.272500", "123243.062500", "123241.470000", "123243.260000", "123241.670000", "123243.460000", "123241.867500", "123243.657500", "123242.267500", "123244.057500", "123242.465000", "123244.255000", "123242.665000", "123244.455000", "123242.862500", "123244.652500", "123242.067500", "123243.857500", "123241.272500", "123243.062500", "123241.470000", "123243.260000", "123241.670000", "123243.460000", "123241.867500", "123243.657500", "123242.267500", "123244.057500", "123242.465000", "123244.255000", "123242.665000", "123244.455000", "123242.862500", "123244.652500", "123242.067500", "123247.457500", "123244.872500", "123246.662500", "123245.070000", "123246.860000", "123245.270000", "123247.060000", "123245.467500", "123247.257500", "123245.867500", "123247.657500", "123246.065000", "123247.855000", "123246.265000", "123248.055000", "123246.462500", "123248.252500", "123245.667500", "123247.457500", "123244.872500", "123246.662500", "123245.070000", "123246.860000", "123245.270000", "123247.060000", "123245.467500", "123247.257500", "123245.867500", "123247.657500", "123246.065000", "123247.855000", "123246.265000", "123248.055000", "123246.462500", "123248.252500", "123245.667500", "123247.457500", "123244.872500", "123246.662500", "123245.070000", "123246.860000", "123245.270000", "123247.060000", "123245.467500", "123247.257500", "123245.867500", "123247.657500", "123246.065000", "123247.855000", "123246.265000", "123248.055000", "123246.462500", "123248.252500", "123245.667500", "123247.457500", "123244.872500", "123246.662500", "123245.070000", "123246.860000", "123245.270000", "123247.060000", "123245.467500", "123247.257500", "123245.867500", "123247.657500", "123246.065000", "123247.855000", "123246.265000", "123248.055000", "123246.462500", "123248.252500", "123245.667500", "123251.057500", "123248.472500", "123250.262500", "123248.670000", "123250.460000", "123248.870000", "123250.660000", "123249.067500", "123250.857500", "123249.467500", "123251.257500", "123249.665000", "123251.455000", "123249.865000", "123251.655000", "123250.062500", "123251.852500", "123249.267500", "123251.057500", "123248.472500", "123250.262500", "123248.670000", "123250.460000", "123248.870000", "123250.660000", "123249.067500", "123250.857500", "123249.467500", "123251.257500", "123249.665000", "123251.455000", "123249.865000", "123251.655000", "123250.062500", "123251.852500", "123249.267500", "123251.057500", "123248.472500", "123250.262500", "123248.670000", "123250.460000", "123248.870000", "123250.660000", "123249.067500", "123250.857500", "123249.467500", "123251.257500", "123249.665000", "123251.455000", "123249.865000", "123251.655000", "123250.062500", "123251.852500", "123249.267500", "123251.057500", "123248.472500", "123250.262500", "123248.670000", "123250.460000", "123248.870000", "123250.660000", "123249.067500", "123250.857500", "123249.467500", "123251.257500", "123249.665000", "123251.455000", "123249.865000", "123251.655000", "123250.062500", "123251.852500", "123249.267500", "123254.657500", "123252.072500", "123253.862500", "123252.270000", "123254.060000", "123252.470000", "123254.260000", "123252.667500", "123254.457500", "123253.067500", "123254.857500", "123253.265000", "123255.055000", "123253.465000", "123255.255000", "123253.662500", "123255.452500", "123252.867500", "123254.657500", "123252.072500", "123253.862500", "123252.270000", "123254.060000", "123252.470000", "123254.260000", "123252.667500", "123254.457500", "123253.067500", "123254.857500", "123253.265000", "123255.055000", "123253.465000", "123255.255000", "123253.662500", "123255.452500", "123252.867500", "123254.657500", "123252.072500", "123253.862500", "123252.270000", "123254.060000", "123252.470000", "123254.260000", "123252.667500", "123254.457500", "123253.067500", "123254.857500", "123253.265000", "123255.055000", "123253.465000", "123255.255000", "123253.662500", "123255.452500", "123252.867500", "123254.657500", "123252.072500", "123253.862500", "123252.270000", "123254.060000", "123252.470000", "123254.260000", "123252.667500", "123254.457500", "123253.067500", "123254.857500", "123253.265000", "123255.055000", "123253.465000", "123255.255000", "123253.662500", "123255.452500", "123252.867500", "123258.257500", "123255.672500", "123257.462500", "123255.870000", "123257.660000", "123256.070000", "123257.860000", "123256.267500", "123258.057500", "123256.667500", "123258.457500", "123256.865000", "123258.655000", "123257.065000", "123258.855000", "123257.262500", "123259.052500", "123256.467500", "123258.257500", "123255.672500", "123257.462500", "123255.870000", "123257.660000", "123256.070000", "123257.860000", "123256.267500", "123258.057500", "123256.667500", "123258.457500", "123256.865000", "123258.655000", "123257.065000", "123258.855000", "123257.262500", "123259.052500", "123256.467500", "123258.257500", "123255.672500", "123257.462500", "123255.870000", "123257.660000", "123256.070000", "123257.860000", "123256.267500", "123258.057500", "123256.667500", "123258.457500", "123256.865000", "123258.655000", "123257.065000", "123258.855000", "123257.262500", "123259.052500", "123256.467500", "123258.257500", "123255.672500", "123257.462500", "123255.870000", "123257.660000", "123256.070000", "123257.860000", "123256.267500", "123258.057500", "123256.667500", "123258.457500", "123256.865000", "123258.655000", "123257.065000", "123258.855000", "123257.262500", "123259.052500", "123256.467500", "123301.857500", "123259.272500", "123301.062500", "123259.470000", "123301.260000", "123259.670000", "123301.460000", "123259.867500", "123301.657500", "123300.267500", "123302.057500", "123300.465000", "123302.255000", "123300.665000", "123302.455000", "123300.862500", "123302.652500", "123300.067500", "123301.857500", "123259.272500", "123301.062500", "123259.470000", "123301.260000", "123259.670000", "123301.460000", "123259.867500", "123301.657500", "123300.267500", "123302.057500", "123300.465000", "123302.255000", "123300.665000", "123302.455000", "123300.862500", "123302.652500", "123300.067500", "123301.857500", "123259.272500", "123301.062500", "123259.470000", "123301.260000", "123259.670000", "123301.460000", "123259.867500", "123301.657500", "123300.267500", "123302.057500", "123300.465000", "123302.255000", "123300.665000", "123302.455000", "123300.862500", "123302.652500", "123300.067500", "123301.857500", "123259.272500", "123301.062500", "123259.470000", "123301.260000", "123259.670000", "123301.460000", "123259.867500", "123301.657500", "123300.267500", "123302.057500", "123300.465000", "123302.255000", "123300.665000", "123302.455000", "123300.862500", "123302.652500", "123300.067500", "123305.457500", "123302.872500", "123304.662500", "123303.070000", "123304.860000", "123303.270000", "123305.060000", "123303.467500", "123305.257500", "123303.867500", "123305.657500", "123304.065000", "123305.855000", "123304.265000", "123306.055000", "123304.462500", "123306.252500", "123303.667500", "123305.457500", "123302.872500", "123304.662500", "123303.070000", "123304.860000", "123303.270000", "123305.060000", "123303.467500", "123305.257500", "123303.867500", "123305.657500", "123304.065000", "123305.855000", "123304.265000", "123306.055000", "123304.462500", "123306.252500", "123303.667500", "123305.457500", "123302.872500", "123304.662500", "123303.070000", "123304.860000", "123303.270000", "123305.060000", "123303.467500", "123305.257500", "123303.867500", "123305.657500", "123304.065000", "123305.855000", "123304.265000", "123306.055000", "123304.462500", "123306.252500", "123303.667500", "123305.457500", "123302.872500", "123304.662500", "123303.070000", "123304.860000", "123303.270000", "123305.060000", "123303.467500", "123305.257500", "123303.867500", "123305.657500", "123304.065000", "123305.855000", "123304.265000", "123306.055000", "123304.462500", "123306.252500", "123303.667500", "123309.057500", "123306.472500", "123308.262500", "123306.670000", "123308.460000", "123306.870000", "123308.660000", "123307.067500", "123308.857500", "123307.467500", "123309.257500", "123307.665000", "123309.455000", "123307.865000", "123309.655000", "123308.062500", "123309.852500", "123307.267500", "123309.057500", "123306.472500", "123308.262500", "123306.670000", "123308.460000", "123306.870000", "123308.660000", "123307.067500", "123308.857500", "123307.467500", "123309.257500", "123307.665000", "123309.455000", "123307.865000", "123309.655000", "123308.062500", "123309.852500", "123307.267500", "123309.057500", "123306.472500", "123308.262500", "123306.670000", "123308.460000", "123306.870000", "123308.660000", "123307.067500", "123308.857500", "123307.467500", "123309.257500", "123307.665000", "123309.455000", "123307.865000", "123309.655000", "123308.062500", "123309.852500", "123307.267500", "123309.057500", "123306.472500", "123308.262500", "123306.670000", "123308.460000", "123306.870000", "123308.660000", "123307.067500", "123308.857500", "123307.467500", "123309.257500", "123307.665000", "123309.455000", "123307.865000", "123309.655000", "123308.062500", "123309.852500", "123307.267500", "123312.657500", "123310.072500", "123311.862500", "123310.270000", "123312.060000", "123310.470000", "123312.260000", "123310.667500", "123312.457500", "123311.067500", "123312.857500", "123311.265000", "123313.055000", "123311.465000", "123313.255000", "123311.662500", "123313.452500", "123310.867500", "123312.657500", "123310.072500", "123311.862500", "123310.270000", "123312.060000", "123310.470000", "123312.260000", "123310.667500", "123312.457500", "123311.067500", "123312.857500", "123311.265000", "123313.055000", "123311.465000", "123313.255000", "123311.662500", "123313.452500", "123310.867500", "123312.657500", "123310.072500", "123311.862500", "123310.270000", "123312.060000", "123310.470000", "123312.260000", "123310.667500", "123312.457500", "123311.067500", "123312.857500", "123311.265000", "123313.055000", "123311.465000", "123313.255000", "123311.662500", "123313.452500", "123310.867500", "123312.657500", "123310.072500", "123311.862500", "123310.270000", "123312.060000", "123310.470000", "123312.260000", "123310.667500", "123312.457500", "123311.067500", "123312.857500", "123311.265000", "123313.055000", "123311.465000", "123313.255000", "123311.662500", "123313.452500", "123310.867500", "123316.257500", "123313.672500", "123315.462500", "123313.870000", "123315.660000", "123314.070000", "123315.860000", "123314.267500", "123316.057500", "123314.667500", "123316.457500", "123314.865000", "123316.655000", "123315.065000", "123316.855000", "123315.262500", "123317.052500", "123314.467500", "123316.257500", "123313.672500", "123315.462500", "123313.870000", "123315.660000", "123314.070000", "123315.860000", "123314.267500", "123316.057500", "123314.667500", "123316.457500", "123314.865000", "123316.655000", "123315.065000", "123316.855000", "123315.262500", "123317.052500", "123314.467500", "123316.257500", "123313.672500", "123315.462500", "123313.870000", "123315.660000", "123314.070000", "123315.860000", "123314.267500", "123316.057500", "123314.667500", "123316.457500", "123314.865000", "123316.655000", "123315.065000", "123316.855000", "123315.262500", "123317.052500", "123314.467500", "123316.257500", "123313.672500", "123315.462500", "123313.870000", "123315.660000", "123314.070000", "123315.860000", "123314.267500", "123316.057500", "123314.667500", "123316.457500", "123314.865000", "123316.655000", "123315.065000", "123316.855000", "123315.262500", "123317.052500", "123314.467500", "123319.857500", "123317.272500", "123319.062500", "123317.470000", "123319.260000", "123317.670000", "123319.460000", "123317.867500", "123319.657500", "123318.267500", "123320.057500", "123318.465000", "123320.255000", "123318.665000", "123320.455000", "123318.862500", "123320.652500", "123318.067500", "123319.857500", "123317.272500", "123319.062500", "123317.470000", "123319.260000", "123317.670000", "123319.460000", "123317.867500", "123319.657500", "123318.267500", "123320.057500", "123318.465000", "123320.255000", "123318.665000", "123320.455000", "123318.862500", "123320.652500", "123318.067500", "123319.857500", "123317.272500", "123319.062500", "123317.470000", "123319.260000", "123317.670000", "123319.460000", "123317.867500", "123319.657500", "123318.267500", "123320.057500", "123318.465000", "123320.255000", "123318.665000", "123320.455000", "123318.862500", "123320.652500", "123318.067500", "123319.857500", "123317.272500", "123319.062500", "123317.470000", "123319.260000", "123317.670000", "123319.460000", "123317.867500", "123319.657500", "123318.267500", "123320.057500", "123318.465000", "123320.255000", "123318.665000", "123320.455000", "123318.862500", "123320.652500", "123318.067500", "123323.457500", "123320.872500", "123322.662500", "123321.070000", "123322.860000", "123321.270000", "123323.060000", "123321.467500", "123323.257500", "123321.867500", "123323.657500", "123322.065000", "123323.855000", "123322.265000", "123324.055000", "123322.462500", "123324.252500", "123321.667500", "123323.457500", "123320.872500", "123322.662500", "123321.070000", "123322.860000", "123321.270000", "123323.060000", "123321.467500", "123323.257500", "123321.867500", "123323.657500", "123322.065000", "123323.855000", "123322.265000", "123324.055000", "123322.462500", "123324.252500", "123321.667500", "123323.457500", "123320.872500", "123322.662500", "123321.070000", "123322.860000", "123321.270000", "123323.060000", "123321.467500", "123323.257500", "123321.867500", "123323.657500", "123322.065000", "123323.855000", "123322.265000", "123324.055000", "123322.462500", "123324.252500", "123321.667500", "123323.457500", "123320.872500", "123322.662500", "123321.070000", "123322.860000", "123321.270000", "123323.060000", "123321.467500", "123323.257500", "123321.867500", "123323.657500", "123322.065000", "123323.855000", "123322.265000", "123324.055000", "123322.462500", "123324.252500", "123321.667500", "123327.057500", "123324.472500", "123326.262500", "123324.670000", "123326.460000", "123324.870000", "123326.660000", "123325.067500", "123326.857500", "123325.467500", "123327.257500", "123325.665000", "123327.455000", "123325.865000", "123327.655000", "123326.062500", "123327.852500", "123325.267500", "123327.057500", "123324.472500", "123326.262500", "123324.670000", "123326.460000", "123324.870000", "123326.660000", "123325.067500", "123326.857500", "123325.467500", "123327.257500", "123325.665000", "123327.455000", "123325.865000", "123327.655000", "123326.062500", "123327.852500", "123325.267500", "123327.057500", "123324.472500", "123326.262500", "123324.670000", "123326.460000", "123324.870000", "123326.660000", "123325.067500", "123326.857500", "123325.467500", "123327.257500", "123325.665000", "123327.455000", "123325.865000", "123327.655000", "123326.062500", "123327.852500", "123325.267500", "123327.057500", "123324.472500", "123326.262500", "123324.670000", "123326.460000", "123324.870000", "123326.660000", "123325.067500", "123326.857500", "123325.467500", "123327.257500", "123325.665000", "123327.455000", "123325.865000", "123327.655000", "123326.062500", "123327.852500", "123325.267500", "123330.657500", "123328.072500", "123329.862500", "123328.270000", "123330.060000", "123328.470000", "123330.260000", "123328.667500", "123330.457500", "123329.067500", "123330.857500", "123329.265000", "123331.055000", "123329.465000", "123331.255000", "123329.662500", "123331.452500", "123328.867500", "123330.657500", "123328.072500", "123329.862500", "123328.270000", "123330.060000", "123328.470000", "123330.260000", "123328.667500", "123330.457500", "123329.067500", "123330.857500", "123329.265000", "123331.055000", "123329.465000", "123331.255000", "123329.662500", "123331.452500", "123328.867500", "123330.657500", "123328.072500", "123329.862500", "123328.270000", "123330.060000", "123328.470000", "123330.260000", "123328.667500", "123330.457500", "123329.067500", "123330.857500", "123329.265000", "123331.055000", "123329.465000", "123331.255000", "123329.662500", "123331.452500", "123328.867500", "123330.657500", "123328.072500", "123329.862500", "123328.270000", "123330.060000", "123328.470000", "123330.260000", "123328.667500", "123330.457500", "123329.067500", "123330.857500", "123329.265000", "123331.055000", "123329.465000", "123331.255000", "123329.662500", "123331.452500", "123328.867500", "123334.257500", "123331.672500", "123333.462500", "123331.870000", "123333.660000", "123332.070000", "123333.860000", "123332.267500", "123334.057500", "123332.667500", "123334.457500", "123332.865000", "123334.655000", "123333.065000", "123334.855000", "123333.262500", "123335.052500", "123332.467500", "123334.257500", "123331.672500", "123333.462500", "123331.870000", "123333.660000", "123332.070000", "123333.860000", "123332.267500", "123334.057500", "123332.667500", "123334.457500", "123332.865000", "123334.655000", "123333.065000", "123334.855000", "123333.262500", "123335.052500", "123332.467500", "123334.257500", "123331.672500", "123333.462500", "123331.870000", "123333.660000", "123332.070000", "123333.860000", "123332.267500", "123334.057500", "123332.667500", "123334.457500", "123332.865000", "123334.655000", "123333.065000", "123334.855000", "123333.262500", "123335.052500", "123332.467500", "123334.257500", "123331.672500", "123333.462500", "123331.870000", "123333.660000", "123332.070000", "123333.860000", "123332.267500", "123334.057500", "123332.667500", "123334.457500", "123332.865000", "123334.655000", "123333.065000", "123334.855000", "123333.262500", "123335.052500", "123332.467500", "123337.857500", "123335.272500", "123337.062500", "123335.470000", "123337.260000", "123335.670000", "123337.460000", "123335.867500", "123337.657500", "123336.267500", "123338.057500", "123336.465000", "123338.255000", "123336.665000", "123338.455000", "123336.862500", "123338.652500", "123336.067500", "123337.857500", "123335.272500", "123337.062500", "123335.470000", "123337.260000", "123335.670000", "123337.460000", "123335.867500", "123337.657500", "123336.267500", "123338.057500", "123336.465000", "123338.255000", "123336.665000", "123338.455000", "123336.862500", "123338.652500", "123336.067500", "123337.857500", "123335.272500", "123337.062500", "123335.470000", "123337.260000", "123335.670000", "123337.460000", "123335.867500", "123337.657500", "123336.267500", "123338.057500", "123336.465000", "123338.255000", "123336.665000", "123338.455000", "123336.862500", "123338.652500", "123336.067500", "123337.857500", "123335.272500", "123337.062500", "123335.470000", "123337.260000", "123335.670000", "123337.460000", "123335.867500", "123337.657500", "123336.267500", "123338.057500", "123336.4