{
  "AcquisitionMatrixPE": 122,
  "AcquisitionNumber": 1,
  "AcquisitionTime": "10:04:37.057500",
  "BandwidthPerPixelPhaseEncode": 28.76,
  "BaseResolution": 122,
  "BodyPartExamined": "BRAIN",
  "CoilCombinationMethod": "Adaptive Combine",
  "ConsistencyInfo": "N4_VE11C_LATEST_20160120",
  "ConversionSoftware": "dcm2niix",
  "ConversionSoftwareVersion": "v1.0.20220720",
  "DerivedVendorReportedEchoSpacing": 0.000570008,
  "DeviceSerialNumber": "66112",
  "DiffusionScheme": "Monopolar",
  "DwellTime": 2e-06,
  "EchoTime": 0.075,
  "EchoTrainLength": 61,
  "EffectiveEchoSpacing": 0.000285004,
  "FlipAngle": 90,
  "HeudiconvVersion": "0.13.1",
  "ImageOrientationPatientDICOM": [0.979194, 0.202387, 0.0148088, -0.19744, 0.933317, 0.299895],
  "ImageOrientationText": "Tra>Cor(17.3)>Sag(-2.7)",
  "ImageType": [
    "ORIGINAL",
    "PRIMARY",
    "DIFFUSION",
    "NONE",
    "ND",
    "NORM"
],
  "ImagingFrequency": 123.252,
  "InPlanePhaseEncodingDirectionDICOM": "COL",
  "InstitutionAddress": "Maynard 3,Hanover,NH,US,03755",
  "InstitutionName": "Dartmouth College - PBS",
  "InstitutionalDepartmentName": "Department",
  "MRAcquisitionType": "2D",
  "MagneticFieldStrength": 3,
  "Manufacturer": "Siemens",
  "ManufacturersModelName": "Prisma",
  "MatrixCoilMode": "GRAPPA",
  "Modality": "MR",
  "NonlinearGradientCorrection": false,
  "ParallelReductionFactorInPlane": 2,
  "PartialFourier": 1,
  "PatientPosition": "HFS",
  "PercentPhaseFOV": 100,
  "PercentSampling": 100,
  "PhaseEncodingDirection": "j-",
  "PhaseEncodingSteps": 122,
  "PhaseResolution": 1,
  "PixelBandwidth": 2050,
  "ProcedureStepDescription": "dbic^QA",
  "ProtocolName": "dwi_acq-DTI-30-p2",
  "PulseSequenceDetails": "%SiemensSeq%\\ep2d_diff",
  "ReceiveCoilActiveElements": "HEA;HEP",
  "ReceiveCoilName": "Head_32",
  "ReconMatrixPE": 122,
  "RefLinesPE": 38,
  "RepetitionTime": 7.7,
  "SAR": 0.10221,
  "ScanOptions": "FS",
  "ScanningSequence": "EP",
  "SequenceName": "*ep_b0",
  "SequenceVariant": "SK\\SP",
  "SeriesDescription": "dwi_acq-DTI-30-p2",
  "SeriesNumber": 12,
  "ShimSetting": [4145, -7690, -7515, 276, -37, -147, -30, 50],
  "SliceThickness": 2,
  "SliceTiming": [3.83594, 0, 3.94531, 0.10938, 4.0625, 0.21875, 4.17188, 0.32812, 4.28125, 0.4375, 4.38281, 0.54688, 4.5, 0.65625, 4.60938, 0.76562, 4.71875, 0.875, 4.82812, 0.98438, 4.9375, 1.09375, 5.04688, 1.20312, 5.15625, 1.3125, 5.26562, 1.42969, 5.375, 1.53125, 5.48438, 1.64062, 5.59375, 1.75, 5.70312, 1.86719, 5.8125, 1.97656, 5.92188, 2.08594, 6.03125, 2.19531, 6.14062, 2.30469, 6.25, 2.41406, 6.35938, 2.52344, 6.46875, 2.63281, 6.57812, 2.74219, 6.6875, 2.85156, 6.80469, 2.96094, 6.91406, 3.07031, 7.02344, 3.17969, 7.13281, 3.28906, 7.24219, 3.39844, 7.35156, 3.50781, 7.46094, 3.61719, 7.57031, 3.72656],
  "SoftwareVersions": "syngo MR E11",
  "SpacingBetweenSlices": 2,
  "SpoilingState": true,
  "StationName": "AWP66112",
  "TotalReadoutTime": 0.0344855,
  "TxRefAmp": 232.131,
  "dcmmeta_affine": [
    [-1.9262826442718506, -0.38840681314468384, -0.09374690055847168, 150.5240020751953],
    [-0.39813801646232605, 1.8360333442687988, 0.5931568145751953, -104.94310760498047],
    [0.029132075607776642, -0.5899571776390076, 1.90771484375, -30.688823699951172],
    [0.0, 0.0, 0.0, 1.0]
],
  "dcmmeta_reorient_transform": [
    [0.0, -1.0, 0.0, 121.0],
    [1.0, 0.0, 0.0, 0.0],
    [0.0, 0.0, -1.0, 69.0],
    [0.0, 0.0, 0.0, 1.0]
],
  "dcmmeta_shape": [122, 122, 70, 31],
  "dcmmeta_slice_dim": 2,
  "dcmmeta_version": 0.6,
  "global": {
    "const": {
      "AccessionNumber": "qa",
      "AcquisitionMatrix": [122, 0, 0, 122],
      "AngioFlag": "N",
      "BitsAllocated": 16,
      "BitsStored": 12,
      "BodyPartExamined": "BRAIN",
      "Columns": 122,
      "EchoNumbers": 1,
      "EchoTime": 75.0,
      "EchoTrainLength": 61,
      "FlipAngle": 90.0,
      "HighBit": 11,
      "ImageOrientationPatient": [0.97919368553918, 0.20238682148023, 0.01480880452078, -0.1974401288146, 0.93331690907062, 0.29989488621276],
      "ImageType": [
        "ORIGINAL",
        "PRIMARY",
        "DIFFUSION",
        "NONE",
        "ND",
        "NORM"
],
      "ImagedNucleus": "1H",
      "ImagingFrequency": 123.252424,
      "InPlanePhaseEncodingDirection": "COL",
      "MRAcquisitionType": "2D",
      "MagneticFieldStrength": 3.0,
      "Manufacturer": "SIEMENS",
      "ManufacturerModelName": "Prisma",
      "Modality": "MR",
      "NumberOfAverages": 1.0,
      "NumberOfPhaseEncodingSteps": 122,
      "PercentPhaseFieldOfView": 100.0,
      "PercentSampling": 100.0,
      "PerformedProcedureStepStartTime": "093419.738000",
      "PhotometricInterpretation": "MONOCHROME2",
      "PixelBandwidth": 2050.0,
      "PixelRepresentation": 0,
      "PixelSpacing": [1.9672131538391, 1.9672131538391],
      "ProtocolName": "dwi_acq-DTI-30-p2",
      "RepetitionTime": 7700.0,
      "Rows": 122,
      "SAR": 0.10220997604414,
      "SamplesPerPixel": 1,
      "ScanOptions": "FS",
      "ScanningSequence": "EP",
      "SequenceVariant": [
        "SK",
        "SP"
],
      "SeriesDescription": "dwi_acq-DTI-30-p2",
      "SeriesNumber": 12,
      "SeriesTime": "100439.203000",
      "SliceThickness": 2.0,
      "SmallestImagePixelValue": 0,
      "SoftwareVersions": "syngo MR E11",
      "SpacingBetweenSlices": 2.0,
      "SpecificCharacterSet": "ISO_IR 100",
      "StudyID": "105",
      "StudyTime": "093419.651000",
      "TransmitCoilName": "Body",
      "VariableFlipAngleFlag": "N",
      "WindowCenterWidthExplanation": "Algo1",
      "dBdt": 0.0},
    "slices": {
      "AcquisitionTime": ["100437.057500", "100433.217500", "100437.167500", "100433.327500", "100437.277500", "100433.437500", "100437.387500", "100433.547500", "100437.497500", "100433.657500", "100437.605000", "100433.767500", "100437.715000", "100433.875000", "100437.825000", "100433.985000", "100437.935000", "100434.095000", "100438.045000", "100434.205000", "100438.155000", "100434.315000", "100438.265000", "100434.425000", "100438.375000", "100434.535000", "100438.485000", "100434.645000", "100438.592500", "100434.752500", "100438.702500", "100434.862500", "100438.812500", "100434.972500", "100438.922500", "100435.082500", "100439.032500", "100435.192500", "100439.142500", "100435.302500", "100439.252500", "100435.412500", "100439.362500", "100435.522500", "100439.470000", "100435.632500", "100439.580000", "100435.740000", "100439.690000", "100435.850000", "100439.800000", "100435.960000", "100439.910000", "100436.070000", "100440.020000", "100436.180000", "100440.130000", "100436.290000", "100440.240000", "100436.400000", "100440.350000", "100436.510000", "100440.457500", "100436.617500", "100440.567500", "100436.727500", "100440.677500", "100436.837500", "100440.787500", "100436.947500", "100444.757500", "100440.917500", "100444.867500", "100441.027500", "100444.977500", "100441.137500", "100445.087500", "100441.247500", "100445.197500", "100441.357500", "100445.305000", "100441.467500", "100445.415000", "100441.575000", "100445.525000", "100441.685000", "100445.635000", "100441.795000", "100445.745000", "100441.905000", "100445.855000", "100442.015000", "100445.965000", "100442.125000", "100446.075000", "100442.235000", "100446.185000", "100442.345000", "100446.292500", "100442.452500", "100446.402500", "100442.562500", "100446.512500", "100442.672500", "100446.622500", "100442.782500", "100446.732500", "100442.892500", "100446.842500", "100443.002500", "100446.952500", "100443.112500", "100447.062500", "100443.222500", "100447.170000", "100443.332500", "100447.280000", "100443.440000", "100447.390000", "100443.550000", "100447.500000", "100443.660000", "100447.610000", "100443.770000", "100447.720000", "100443.880000", "100447.830000", "100443.990000", "100447.940000", "100444.100000", "100448.050000", "100444.210000", "100448.157500", "100444.317500", "100448.267500", "100444.427500", "100448.377500", "100444.537500", "100448.487500", "100444.647500", "100452.457500", "100448.617500", "100452.567500", "100448.727500", "100452.677500", "100448.837500", "100452.787500", "100448.947500", "100452.897500", "100449.057500", "100453.005000", "100449.167500", "100453.115000", "100449.275000", "100453.225000", "100449.385000", "100453.335000", "100449.495000", "100453.445000", "100449.605000", "100453.555000", "100449.715000", "100453.665000", "100449.825000", "100453.775000", "100449.935000", "100453.885000", "100450.045000", "100453.992500", "100450.152500", "100454.102500", "100450.262500", "100454.212500", "100450.372500", "100454.322500", "100450.482500", "100454.432500", "100450.592500", "100454.542500", "100450.702500", "100454.652500", "100450.812500", "100454.762500", "100450.922500", "100454.870000", "100451.032500", "100454.980000", "100451.140000", "100455.090000", "100451.250000", "100455.200000", "100451.360000", "100455.310000", "100451.470000", "100455.420000", "100451.580000", "100455.530000", "100451.690000", "100455.640000", "100451.800000", "100455.750000", "100451.910000", "100455.857500", "100452.017500", "100455.967500", "100452.127500", "100456.077500", "100452.237500", "100456.187500", "100452.347500", "100500.157500", "100456.317500", "100500.267500", "100456.427500", "100500.377500", "100456.537500", "100500.487500", "100456.647500", "100500.597500", "100456.757500", "100500.705000", "100456.867500", "100500.815000", "100456.975000", "100500.925000", "100457.085000", "100501.035000", "100457.195000", "100501.145000", "100457.305000", "100501.255000", "100457.415000", "100501.365000", "100457.525000", "100501.475000", "100457.635000", "100501.585000", "100457.745000", "100501.692500", "100457.852500", "100501.802500", "100457.962500", "100501.912500", "100458.072500", "100502.022500", "100458.182500", "100502.132500", "100458.292500", "100502.242500", "100458.402500", "100502.352500", "100458.512500", "100502.462500", "100458.622500", "100502.570000", "100458.732500", "100502.680000", "100458.840000", "100502.790000", "100458.950000", "100502.900000", "100459.060000", "100503.010000", "100459.170000", "100503.120000", "100459.280000", "100503.230000", "100459.390000", "100503.340000", "100459.500000", "100503.450000", "100459.610000", "100503.557500", "100459.717500", "100503.667500", "100459.827500", "100503.777500", "100459.937500", "100503.887500", "100500.047500", "100507.857500", "100504.017500", "100507.967500", "100504.127500", "100508.077500", "100504.237500", "100508.187500", "100504.347500", "100508.297500", "100504.457500", "100508.405000", "100504.567500", "100508.515000", "100504.675000", "100508.625000", "100504.785000", "100508.735000", "100504.895000", "100508.845000", "100505.005000", "100508.955000", "100505.115000", "100509.065000", "100505.225000", "100509.175000", "100505.335000", "100509.285000", "100505.445000", "100509.392500", "100505.552500", "100509.502500", "100505.662500", "100509.612500", "100505.772500", "100509.722500", "100505.882500", "100509.832500", "100505.992500", "100509.942500", "100506.102500", "100510.052500", "100506.212500", "100510.162500", "100506.322500", "100510.270000", "100506.432500", "100510.380000", "100506.540000", "100510.490000", "100506.650000", "100510.600000", "100506.760000", "100510.710000", "100506.870000", "100510.820000", "100506.980000", "100510.930000", "100507.090000", "100511.040000", "100507.200000", "100511.150000", "100507.310000", "100511.257500", "100507.417500", "100511.367500", "100507.527500", "100511.477500", "100507.637500", "100511.587500", "100507.747500", "100515.557500", "100511.717500", "100515.667500", "100511.827500", "100515.777500", "100511.937500", "100515.887500", "100512.047500", "100515.997500", "100512.157500", "100516.105000", "100512.267500", "100516.215000", "100512.375000", "100516.325000", "100512.485000", "100516.435000", "100512.595000", "100516.545000", "100512.705000", "100516.655000", "100512.815000", "100516.765000", "100512.925000", "100516.875000", "100513.035000", "100516.985000", "100513.145000", "100517.092500", "100513.252500", "100517.202500", "100513.362500", "100517.312500", "100513.472500", "100517.422500", "100513.582500", "100517.532500", "100513.692500", "100517.642500", "100513.802500", "100517.752500", "100513.912500", "100517.862500", "100514.022500", "100517.970000", "100514.132500", "100518.080000", "100514.240000", "100518.190000", "100514.350000", "100518.300000", "100514.460000", "100518.410000", "100514.570000", "100518.520000", "100514.680000", "100518.630000", "100514.790000", "100518.740000", "100514.900000", "100518.850000", "100515.010000", "100518.957500", "100515.117500", "100519.067500", "100515.227500", "100519.177500", "100515.337500", "100519.287500", "100515.447500", "100523.257500", "100519.417500", "100523.367500", "100519.527500", "100523.477500", "100519.637500", "100523.587500", "100519.747500", "100523.697500", "100519.857500", "100523.805000", "100519.967500", "100523.915000", "100520.075000", "100524.025000", "100520.185000", "100524.135000", "100520.295000", "100524.245000", "100520.405000", "100524.355000", "100520.515000", "100524.465000", "100520.625000", "100524.575000", "100520.735000", "100524.685000", "100520.845000", "100524.792500", "100520.952500", "100524.902500", "100521.062500", "100525.012500", "100521.172500", "100525.122500", "100521.282500", "100525.232500", "100521.392500", "100525.342500", "100521.502500", "100525.452500", "100521.612500", "100525.562500", "100521.722500", "100525.670000", "100521.832500", "100525.780000", "100521.940000", "100525.890000", "100522.050000", "100526.000000", "100522.160000", "100526.110000", "100522.270000", "100526.220000", "100522.380000", "100526.330000", "100522.490000", "100526.440000", "100522.600000", "100526.550000", "100522.710000", "100526.657500", "100522.817500", "100526.767500", "100522.927500", "100526.877500", "100523.037500", "100526.987500", "100523.147500", "100530.957500", "100527.117500", "100531.067500", "100527.227500", "100531.177500", "100527.337500", "100531.287500", "100527.447500", "100531.397500", "100527.557500", "100531.505000", "100527.667500", "100531.615000", "100527.775000", "100531.725000", "100527.885000", "100531.835000", "100527.995000", "100531.945000", "100528.105000", "100532.055000", "100528.215000", "100532.165000", "100528.325000", "100532.275000", "100528.435000", "100532.385000", "100528.545000", "100532.492500", "100528.652500", "100532.602500", "100528.762500", "100532.712500", "100528.872500", "100532.822500", "100528.982500", "100532.932500", "100529.092500", "100533.042500", "100529.202500", "100533.152500", "100529.312500", "100533.262500", "100529.422500", "100533.370000", "100529.532500", "100533.480000", "100529.640000", "100533.590000", "100529.750000", "100533.700000", "100529.860000", "100533.810000", "100529.970000", "100533.920000", "100530.080000", "100534.030000", "100530.190000", "100534.140000", "100530.300000", "100534.250000", "100530.410000", "100534.357500", "100530.517500", "100534.467500", "100530.627500", "100534.577500", "100530.737500", "100534.687500", "100530.847500", "100538.657500", "100534.817500", "100538.767500", "100534.927500", "100538.877500", "100535.037500", "100538.987500", "100535.147500", "100539.097500", "100535.257500", "100539.205000", "100535.367500", "100539.315000", "100535.475000", "100539.425000", "100535.585000", "100539.535000", "100535.695000", "100539.645000", "100535.805000", "100539.755000", "100535.915000", "100539.865000", "100536.025000", "100539.975000", "100536.135000", "100540.085000", "100536.245000", "100540.192500", "100536.352500", "100540.302500", "100536.462500", "100540.412500", "100536.572500", "100540.522500", "100536.682500", "100540.632500", "100536.792500", "100540.742500", "100536.902500", "100540.852500", "100537.012500", "100540.962500", "100537.122500", "100541.070000", "100537.232500", "100541.180000", "100537.340000", "100541.290000", "100537.450000", "100541.400000", "100537.560000", "100541.510000", "100537.670000", "100541.620000", "100537.780000", "100541.730000", "100537.890000", "100541.840000", "100538.000000", "100541.950000", "100538.110000", "100542.057500", "100538.217500", "100542.167500", "100538.327500", "100542.277500", "100538.437500", "100542.387500", "100538.547500", "100546.357500", "100542.517500", "100546.467500", "100542.627500", "100546.577500", "100542.737500", "100546.687500", "100542.847500", "100546.797500", "100542.957500", "100546.905000", "100543.067500", "100547.015000", "100543.175000", "100547.125000", "100543.285000", "100547.235000", "100543.395000", "100547.345000", "100543.505000", "100547.455000", "100543.615000", "100547.565000", "100543.725000", "100547.675000", "100543.835000", "100547.785000", "100543.945000", "100547.892500", "100544.052500", "100548.002500", "100544.162500", "100548.112500", "100544.272500", "100548.222500", "100544.382500", "100548.332500", "100544.492500", "100548.442500", "100544.602500", "100548.552500", "100544.712500", "100548.662500", "100544.822500", "100548.770000", "100544.932500", "100548.880000", "100545.040000", "100548.990000", "100545.150000", "100549.100000", "100545.260000", "100549.210000", "100545.370000", "100549.320000", "100545.480000", "100549.430000", "100545.590000", "100549.540000", "100545.700000", "100549.650000", "100545.810000", "100549.757500", "100545.917500", "100549.867500", "100546.027500", "100549.977500", "100546.137500", "100550.087500", "100546.247500", "100554.057500", "100550.217500", "100554.167500", "100550.327500", "100554.277500", "100550.437500", "100554.387500", "100550.547500", "100554.497500", "100550.657500", "100554.605000", "100550.767500", "100554.715000", "100550.875000", "100554.825000", "100550.985000", "100554.935000", "100551.095000", "100555.045000", "100551.205000", "100555.155000", "100551.315000", "100555.265000", "100551.425000", "100555.375000", "100551.535000", "100555.485000", "100551.645000", "100555.592500", "100551.752500", "100555.702500", "100551.862500", "100555.812500", "100551.972500", "100555.922500", "100552.082500", "100556.032500", "100552.192500", "100556.142500", "100552.302500", "100556.252500", "100552.412500", "100556.362500", "100552.522500", "100556.470000", "100552.632500", "100556.580000", "100552.740000", "100556.690000", "100552.850000", "100556.800000", "100552.960000", "100556.910000", "100553.070000", "100557.020000", "100553.180000", "100557.130000", "100553.290000", "100557.240000", "100553.400000", "100557.350000", "100553.510000", "100557.457500", "100553.617500", "100557.567500", "100553.727500", "100557.677500", "100553.837500", "100557.787500", "100553.947500", "100601.757500", "100557.917500", "100601.867500", "100558.027500", "100601.977500", "100558.137500", "100602.087500", "100558.247500", "100602.197500", "100558.357500", "100602.305000", "100558.467500", "100602.415000", "100558.575000", "100602.525000", "100558.685000", "100602.635000", "100558.795000", "100602.745000", "100558.905000", "100602.855000", "100559.015000", "100602.965000", "100559.125000", "100603.075000", "100559.235000", "100603.185000", "100559.345000", "100603.292500", "100559.452500", "100603.402500", "100559.562500", "100603.512500", "100559.672500", "100603.622500", "100559.782500", "100603.732500", "100559.892500", "100603.842500", "100600.002500", "100603.952500", "100600.112500", "100604.062500", "100600.222500", "100604.170000", "100600.332500", "100604.280000", "100600.440000", "100604.390000", "100600.550000", "100604.500000", "100600.660000", "100604.610000", "100600.770000", "100604.720000", "100600.880000", "100604.830000", "100600.990000", "100604.940000", "100601.100000", "100605.050000", "100601.210000", "100605.157500", "100601.317500", "100605.267500", "100601.427500", "100605.377500", "100601.537500", "100605.487500", "100601.647500", "100609.457500", "100605.617500", "100609.567500", "100605.727500", "100609.677500", "100605.837500", "100609.787500", "100605.947500", "100609.897500", "100606.057500", "100610.005000", "100606.167500", "100610.115000", "100606.275000", "100610.225000", "100606.385000", "100610.335000", "100606.495000", "100610.445000", "100606.605000", "100610.555000", "100606.715000", "100610.665000", "100606.825000", "100610.775000", "100606.935000", "100610.885000", "100607.045000", "100610.992500", "100607.152500", "100611.102500", "100607.262500", "100611.212500", "100607.372500", "100611.322500", "100607.482500", "100611.432500", "100607.592500", "100611.542500", "100607.702500", "100611.652500", "100607.812500", "100611.762500", "100607.922500", "100611.870000", "100608.032500", "100611.980000", "100608.140000", "100612.090000", "100608.250000", "100612.200000", "100608.360000", "100612.310000", "100608.470000", "100612.420000", "100608.580000", "100612.530000", "100608.690000", "100612.640000", "100608.800000", "100612.750000", "100608.910000", "100612.857500", "100609.017500", "100612.967500", "100609.127500", "100613.077500", "100609.237500", "100613.187500", "100609.347500", "100617.157500", "100613.317500", "100617.267500", "100613.427500", "100617.377500", "100613.537500", "100617.487500", "100613.647500", "100617.597500", "100613.757500", "100617.705000", "100613.867500", "100617.815000", "100613.975000", "100617.925000", "100614.085000", "100618.035000", "100614.195000", "100618.145000", "100614.305000", "100618.255000", "100614.415000", "100618.365000", "100614.525000", "100618.475000", "100614.635000", "100618.585000", "100614.745000", "100618.692500", "100614.852500", "100618.802500", "100614.962500", "100618.912500", "100615.072500", "100619.022500", "100615.182500", "100619.132500", "100615.292500", "100619.242500", "100615.402500", "100619.352500", "100615.512500", "100619.462500", "100615.622500", "100619.570000", "100615.732500", "100619.680000", "100615.840000", "100619.790000", "100615.950000", "100619.900000", "100616.060000", "100620.010000", "100616.170000", "100620.120000", "100616.280000", "100620.230000", "100616.390000", "100620.340000", "100616.500000", "100620.450000", "100616.610000", "100620.557500", "100616.717500", "100620.667500", "100616.827500", "100620.777500", "100616.937500", "100620.887500", "100617.047500", "100624.857500", "100621.017500", "100624.967500", "100621.127500", "100625.077500", "100621.237500", "100625.187500", "100621.347500", "100625.297500", "100621.457500", "100625.405000", "100621.567500", "100625.515000", "100621.675000", "100625.625000", "100621.785000", "100625.735000", "100621.895000", "100625.845000", "100622.005000", "100625.955000", "100622.115000", "100626.065000", "100622.225000", "100626.175000", "100622.335000", "100626.285000", "100622.445000", "100626.392500", "100622.552500", "100626.502500", "100622.662500", "100626.612500", "100622.772500", "100626.722500", "100622.882500", "100626.832500", "100622.992500", "100626.942500", "100623.102500", "100627.052500", "100623.212500", "100627.162500", "100623.322500", "100627.270000", "100623.432500", "100627.380000", "100623.540000", "100627.490000", "100623.650000", "100627.600000", "100623.760000", "100627.710000", "100623.870000", "100627.820000", "100623.980000", "100627.930000", "100624.090000", "100628.040000", "100624.200000", "100628.150000", "100624.310000", "100628.257500", "100624.417500", "100628.367500", "100624.527500", "100628.477500", "100624.637500", "100628.587500", "100624.747500", "100632.557500", "100628.717500", "100632.667500", "100628.827500", "100632.777500", "100628.937500", "100632.887500", "100629.047500", "100632.997500", "100629.157500", "100633.105000", "100629.267500", "100633.215000", "100629.375000", "100633.325000", "100629.485000", "100633.435000", "100629.595000", "100633.545000", "100629.705000", "100633.655000", "100629.815000", "100633.765000", "100629.925000", "100633.875000", "100630.035000", "100633.985000", "100630.145000", "100634.092500", "100630.252500", "100634.202500", "100630.362500", "100634.312500", "100630.472500", "100634.422500", "100630.582500", "100634.532500", "100630.692500", "100634.642500", "100630.802500", "100634.752500", "100630.912500", "100634.862500", "100631.022500", "100634.970000", "100631.132500", "100635.080000", "100631.240000", "100635.190000", "100631.350000", "100635.300000", "100631.460000", "100635.410000", "100631.570000", "100635.520000", "100631.680000", "100635.630000", "100631.790000", "100635.740000", "100631.900000", "100635.850000", "100632.010000", "100635.957500", "100632.117500", "100636.067500", "100632.227500", "100636.177500", "100632.337500", "100636.287500", "100632.447500", "100640.257500", "100636.417500", "100640.367500", "100636.527500", "100640.477500", "100636.637500", "100640.587500", "100636.747500", "100640.697500", "100636.857500", "100640.805000", "100636.967500", "100640.915000", "100637.075000", "100641.025000", "100637.185000", "100641.135000", "100637.295000", "100641.245000", "100637.405000", "100641.355000", "100637.515000", "100641.465000", "100637.625000", "100641.575000", "100637.735000", "100641.685000", "100637.845000", "100641.792500", "100637.952500", "100641.902500", "100638.062500", "100642.012500", "100638.172500", "100642.122500", "100638.282500", "100642.232500", "100638.392500", "100642.342500", "100638.502500", "100642.452500", "100638.612500", "100642.562500", "100638.722500", "100642.670000", "100638.832500", "100642.780000", "100638.940000", "100642.890000", "100639.050000", "100643.000000", "100639.160000", "100643.110000", "100639.270000", "100643.220000", "100639.380000", "100643.330000", "100639.490000", "100643.440000", "100639.600000", "100643.550000", "100639.710000", "100643.657500", "100639.817500", "100643.767500", "100639.927500", "100643.877500", "100640.037500", "100643.987500", "100640.147500", "100647.957500", "100644.117500", "100648.067500", "100644.227500", "100648.177500", "100644.337500", "100648.287500", "100644.447500", "100648.397500", "100644.557500", "100648.505000", "100644.667500", "100648.615000", "100644.775000", "100648.725000", "100644.885000", "100648.835000", "100644.995000", "100648.945000", "100645.105000", "100649.055000", "100645.215000", "100649.165000", "100645.325000", "100649.275000", "100645.435000", "100649.385000", "100645.545000", "100649.492500", "100645.652500", "100649.602500", "100645.762500", "100649.712500", "100645.872500", "100649.822500", "100645.982500", "100649.932500", "100646.092500", "100650.042500", "100646.202500", "100650.152500", "100646.312500", "100650.262500", "100646.422500", "100650.370000", "100646.532500", "100650.480000", "100646.640000", "100650.590000", "100646.750000", "100650.700000", "100646.860000", "100650.810000", "100646.970000", "100650.920000", "100647.080000", "100651.030000", "100647.190000", "100651.140000", "100647.300000", "100651.250000", "100647.410000", "100651.357500", "100647.517500", "100651.467500", "100647.627500", "100651.577500", "100647.737500", "100651.687500", "100647.847500", "100655.657500", "100651.817500", "100655.767500", "100651.927500", "100655.877500", "100652.037500", "100655.987500", "100652.147500", "100656.097500", "100652.257500", "100656.205000", "100652.367500", "100656.315000", "100652.475000", "100656.425000", "100652.585000", "100656.535000", "100652.695000", "100656.645000", "100652.805000", "100656.755000", "100652.915000", "100656.865000", "100653.025000", "100656.975000", "100653.135000", "100657.085000", "100653.245000", "100657.192500", "100653.352500", "100657.302500", "100653.462500", "100657.412500", "100653.572500", "100657.522500", "100653.682500", "100657.632500", "100653.792500", "100657.742500", "100653.902500", "100657.852500", "100654.012500", "100657.962500", "100654.122500", "100658.070000", "100654.232500", "100658.180000", "100654.340000", "100658.290000", "100654.450000", "100658.400000", "100654.560000", "100658.510000", "100654.670000", "100658.620000", "100654.780000", "100658.730000", "100654.890000", "100658.840000", "100655.000000", "100658.950000", "100655.110000", "100659.057500", "100655.217500", "100659.167500", "100655.327500", "100659.277500", "100655.437500", "100659.387500", "100655.547500", "100703.357500", "100659.517500", "100703.467500", "100659.627500", "100703.577500", "100659.737500", "100703.687500", "100659.847500", "100703.797500", "100659.957500", "100703.905000", "100700.067500", "100704.015000", "100700.175000", "100704.125000", "100700.285000", "100704.235000", "100700.395000", "100704.345000", "100700.505000", "100704.455000", "100700.615000", "100704.565000", "100700.725000", "100704.675000", "100700.835000", "100704.785000", "100700.945000", "100704.892500", "100701.052500", "100705.002500", "100701.162500", "100705.112500", "100701.272500", "100705.222500", "100701.382500", "100705.332500", "100701.492500", "100705.442500", "100701.602500", "100705.552500", "100701.712500", "100705.662500", "100701.822500", "100705.770000", "100701.932500", "100705.880000", "100702.040000", "100705.990000", "100702.150000", "100706.100000", "100702.260000", "100706.210000", "100702.370000", "100706.320000", "100702.480000", "100706.430000", "100702.590000", "100706.540000", "100702.700000", "100706.650000", "100702.810000", "100706.757500", "100702.917500", "100706.867500", "100703.027500", "100706.977500", "100703.137500", "100707.087500", "100703.247500", "100711.057500", "100707.217500", "100711.167500", "100707.327500", "100711.277500", "100707.437500", "100711.387500", "100707.547500", "100711.497500", "100707.657500", "100711.605000", "100707.767500", "100711.715000", "100707.875000", "100711.825000", "100707.985000", "100711.935000", "100708.095000", "100712.045000", "100708.205000", "100712.155000", "100708.315000", "100712.265000", "100708.425000", "100712.375000", "100708.535000", "100712.485000", "100708.645000", "100712.592500", "100708.752500", "100712.702500", "100708.862500", "100712.812500", "100708.972500", "100712.922500", "100