{
  "AcquisitionMatrixPE": 122,
  "AcquisitionNumber": 1,
  "AcquisitionTime": "10:43:45.280000",
  "BandwidthPerPixelPhaseEncode": 28.76,
  "BaseResolution": 122,
  "BodyPartExamined": "BRAIN",
  "CoilCombinationMethod": "Adaptive Combine",
  "ConsistencyInfo": "N4_VE11C_LATEST_20160120",
  "ConversionSoftware": "dcm2niix",
  "ConversionSoftwareVersion": "v1.0.20220720",
  "DerivedVendorReportedEchoSpacing": 0.000570008,
  "DeviceSerialNumber": "66112",
  "DiffusionScheme": "Monopolar",
  "DwellTime": 2e-06,
  "EchoTime": 0.075,
  "EchoTrainLength": 61,
  "EffectiveEchoSpacing": 0.000285004,
  "FlipAngle": 90,
  "HeudiconvVersion": "0.13.1",
  "ImageOrientationPatientDICOM": [0.986075, 0.165974, 0.0104574, -0.160946, 0.936587, 0.311289],
  "ImageOrientationText": "Tra>Cor(18.0)>Sag(-2.4)",
  "ImageType": [
    "ORIGINAL",
    "PRIMARY",
    "DIFFUSION",
    "NONE",
    "ND",
    "NORM"
],
  "ImagingFrequency": 123.252,
  "InPlanePhaseEncodingDirectionDICOM": "COL",
  "InstitutionAddress": "Maynard 3,Hanover,NH,US,03755",
  "InstitutionName": "Dartmouth College - PBS",
  "InstitutionalDepartmentName": "Department",
  "MRAcquisitionType": "2D",
  "MagneticFieldStrength": 3,
  "Manufacturer": "Siemens",
  "ManufacturersModelName": "Prisma",
  "MatrixCoilMode": "GRAPPA",
  "Modality": "MR",
  "NonlinearGradientCorrection": false,
  "ParallelReductionFactorInPlane": 2,
  "PartialFourier": 1,
  "PatientPosition": "HFS",
  "PercentPhaseFOV": 100,
  "PercentSampling": 100,
  "PhaseEncodingDirection": "j-",
  "PhaseEncodingSteps": 122,
  "PhaseResolution": 1,
  "PixelBandwidth": 2050,
  "ProcedureStepDescription": "dbic^QA",
  "ProtocolName": "dwi_acq-DTI-30-p2",
  "PulseSequenceDetails": "%SiemensSeq%\\ep2d_diff",
  "ReceiveCoilActiveElements": "HEA;HEP",
  "ReceiveCoilName": "Head_32",
  "ReconMatrixPE": 122,
  "RefLinesPE": 38,
  "RepetitionTime": 7.7,
  "SAR": 0.101581,
  "ScanOptions": "FS",
  "ScanningSequence": "EP",
  "SequenceName": "*ep_b0",
  "SequenceVariant": "SK\\SP",
  "SeriesDescription": "dwi_acq-DTI-30-p2",
  "SeriesNumber": 12,
  "ShimSetting": [4143, -7696, -7518, 300, -48, -65, -29, 69],
  "SliceThickness": 2,
  "SliceTiming": [3.84375, 0, 3.95312, 0.10938, 4.0625, 0.21875, 4.17188, 0.33594, 4.28125, 0.44531, 4.39062, 0.55469, 4.5, 0.66406, 4.60938, 0.77344, 4.71875, 0.88281, 4.82812, 0.99219, 4.9375, 1.10156, 5.04688, 1.21094, 5.15625, 1.32031, 5.27344, 1.42969, 5.38281, 1.53906, 5.49219, 1.64844, 5.59375, 1.75781, 5.71094, 1.86719, 5.82031, 1.97656, 5.92969, 2.08594, 6.03906, 2.19531, 6.14844, 2.30469, 6.25781, 2.41406, 6.36719, 2.53125, 6.47656, 2.64062, 6.58594, 2.74219, 6.69531, 2.85156, 6.80469, 2.96875, 6.91406, 3.07812, 7.02344, 3.1875, 7.13281, 3.29688, 7.24219, 3.40625, 7.35156, 3.51562, 7.46094, 3.625, 7.57031, 3.73438],
  "SoftwareVersions": "syngo MR E11",
  "SpacingBetweenSlices": 2,
  "SpoilingState": true,
  "StationName": "AWP66112",
  "TotalReadoutTime": 0.0344855,
  "TxRefAmp": 220.322,
  "dcmmeta_affine": [
    [-1.9398189783096313, -0.31661468744277954, -0.08374346792697906, 143.31468200683594],
    [-0.3265066146850586, 1.8424665927886963, 0.6172752380371094, -109.47908782958984],
    [0.020571881905198097, -0.612372100353241, 1.9005165100097656, -32.87772750854492],
    [0.0, 0.0, 0.0, 1.0]
],
  "dcmmeta_reorient_transform": [
    [0.0, -1.0, 0.0, 121.0],
    [1.0, 0.0, 0.0, 0.0],
    [0.0, 0.0, -1.0, 69.0],
    [0.0, 0.0, 0.0, 1.0]
],
  "dcmmeta_shape": [122, 122, 70, 31],
  "dcmmeta_slice_dim": 2,
  "dcmmeta_version": 0.6,
  "global": {
    "const": {
      "AccessionNumber": "qa",
      "AcquisitionMatrix": [122, 0, 0, 122],
      "AngioFlag": "N",
      "BitsAllocated": 16,
      "BitsStored": 12,
      "BodyPartExamined": "BRAIN",
      "Columns": 122,
      "EchoNumbers": 1,
      "EchoTime": 75.0,
      "EchoTrainLength": 61,
      "FlipAngle": 90.0,
      "HighBit": 11,
      "ImageOrientationPatient": [0.98607464740375, 0.16597419406917, 0.01045737302902, -0.1609457933454, 0.93658716345516, 0.31128915312847],
      "ImageType": [
        "ORIGINAL",
        "PRIMARY",
        "DIFFUSION",
        "NONE",
        "ND",
        "NORM"
],
      "ImagedNucleus": "1H",
      "ImagingFrequency": 123.252357,
      "InPlanePhaseEncodingDirection": "COL",
      "MRAcquisitionType": "2D",
      "MagneticFieldStrength": 3.0,
      "Manufacturer": "SIEMENS",
      "ManufacturerModelName": "Prisma",
      "Modality": "MR",
      "NumberOfAverages": 1.0,
      "NumberOfPhaseEncodingSteps": 122,
      "PercentPhaseFieldOfView": 100.0,
      "PercentSampling": 100.0,
      "PerformedProcedureStepStartTime": "100811.067000",
      "PhotometricInterpretation": "MONOCHROME2",
      "PixelBandwidth": 2050.0,
      "PixelRepresentation": 0,
      "PixelSpacing": [1.9672131538391, 1.9672131538391],
      "ProtocolName": "dwi_acq-DTI-30-p2",
      "RepetitionTime": 7700.0,
      "Rows": 122,
      "SAR": 0.10158111822219,
      "SamplesPerPixel": 1,
      "ScanOptions": "FS",
      "ScanningSequence": "EP",
      "SequenceVariant": [
        "SK",
        "SP"
],
      "SeriesDescription": "dwi_acq-DTI-30-p2",
      "SeriesNumber": 12,
      "SeriesTime": "104357.422000",
      "SliceThickness": 2.0,
      "SmallestImagePixelValue": 0,
      "SoftwareVersions": "syngo MR E11",
      "SpacingBetweenSlices": 2.0,
      "SpecificCharacterSet": "ISO_IR 100",
      "StudyID": "35",
      "StudyTime": "100811.025000",
      "TransmitCoilName": "Body",
      "VariableFlipAngleFlag": "N",
      "WindowCenterWidthExplanation": "Algo1",
      "dBdt": 0.0},
    "slices": {
      "AcquisitionTime": ["104345.280000", "104341.440000", "104345.390000", "104341.550000", "104345.500000", "104341.660000", "104345.610000", "104341.770000", "104345.720000", "104341.880000", "104345.830000", "104341.990000", "104345.940000", "104342.100000", "104346.047500", "104342.210000", "104346.157500", "104342.317500", "104346.267500", "104342.427500", "104346.377500", "104342.537500", "104346.487500", "104342.647500", "104346.597500", "104342.757500", "104346.707500", "104342.867500", "104346.817500", "104342.977500", "104346.927500", "104343.087500", "104347.035000", "104343.195000", "104347.145000", "104343.305000", "104347.255000", "104343.415000", "104347.365000", "104343.525000", "104347.475000", "104343.635000", "104347.585000", "104343.745000", "104347.695000", "104343.855000", "104347.805000", "104343.965000", "104347.912500", "104344.075000", "104348.022500", "104344.182500", "104348.132500", "104344.292500", "104348.242500", "104344.402500", "104348.352500", "104344.512500", "104348.462500", "104344.622500", "104348.572500", "104344.732500", "104348.682500", "104344.842500", "104348.792500", "104344.952500", "104348.900000", "104345.062500", "104349.010000", "104345.170000", "104352.980000", "104349.140000", "104353.090000", "104349.250000", "104353.200000", "104349.360000", "104353.310000", "104349.470000", "104353.420000", "104349.580000", "104353.530000", "104349.690000", "104353.640000", "104349.800000", "104353.747500", "104349.910000", "104353.857500", "104350.017500", "104353.967500", "104350.127500", "104354.077500", "104350.237500", "104354.187500", "104350.347500", "104354.297500", "104350.457500", "104354.407500", "104350.567500", "104354.517500", "104350.677500", "104354.627500", "104350.787500", "104354.735000", "104350.895000", "104354.845000", "104351.005000", "104354.955000", "104351.115000", "104355.065000", "104351.225000", "104355.175000", "104351.335000", "104355.285000", "104351.445000", "104355.395000", "104351.555000", "104355.505000", "104351.665000", "104355.612500", "104351.775000", "104355.722500", "104351.882500", "104355.832500", "104351.992500", "104355.942500", "104352.102500", "104356.052500", "104352.212500", "104356.162500", "104352.322500", "104356.272500", "104352.432500", "104356.382500", "104352.542500", "104356.492500", "104352.652500", "104356.600000", "104352.762500", "104356.710000", "104352.870000", "104400.680000", "104356.840000", "104400.790000", "104356.950000", "104400.900000", "104357.060000", "104401.010000", "104357.170000", "104401.120000", "104357.280000", "104401.230000", "104357.390000", "104401.340000", "104357.500000", "104401.447500", "104357.610000", "104401.557500", "104357.717500", "104401.667500", "104357.827500", "104401.777500", "104357.937500", "104401.887500", "104358.047500", "104401.997500", "104358.157500", "104402.107500", "104358.267500", "104402.217500", "104358.377500", "104402.327500", "104358.487500", "104402.435000", "104358.595000", "104402.545000", "104358.705000", "104402.655000", "104358.815000", "104402.765000", "104358.925000", "104402.875000", "104359.035000", "104402.985000", "104359.145000", "104403.095000", "104359.255000", "104403.205000", "104359.365000", "104403.312500", "104359.475000", "104403.422500", "104359.582500", "104403.532500", "104359.692500", "104403.642500", "104359.802500", "104403.752500", "104359.912500", "104403.862500", "104400.022500", "104403.972500", "104400.132500", "104404.082500", "104400.242500", "104404.192500", "104400.352500", "104404.300000", "104400.462500", "104404.410000", "104400.570000", "104408.380000", "104404.540000", "104408.490000", "104404.650000", "104408.600000", "104404.760000", "104408.710000", "104404.870000", "104408.820000", "104404.980000", "104408.930000", "104405.090000", "104409.040000", "104405.200000", "104409.147500", "104405.310000", "104409.257500", "104405.417500", "104409.367500", "104405.527500", "104409.477500", "104405.637500", "104409.587500", "104405.747500", "104409.697500", "104405.857500", "104409.807500", "104405.967500", "104409.917500", "104406.077500", "104410.027500", "104406.187500", "104410.135000", "104406.295000", "104410.245000", "104406.405000", "104410.355000", "104406.515000", "104410.465000", "104406.625000", "104410.575000", "104406.735000", "104410.685000", "104406.845000", "104410.795000", "104406.955000", "104410.905000", "104407.065000", "104411.012500", "104407.175000", "104411.122500", "104407.282500", "104411.232500", "104407.392500", "104411.342500", "104407.502500", "104411.452500", "104407.612500", "104411.562500", "104407.722500", "104411.672500", "104407.832500", "104411.782500", "104407.942500", "104411.892500", "104408.052500", "104412.000000", "104408.162500", "104412.110000", "104408.270000", "104416.080000", "104412.240000", "104416.190000", "104412.350000", "104416.300000", "104412.460000", "104416.410000", "104412.570000", "104416.520000", "104412.680000", "104416.630000", "104412.790000", "104416.740000", "104412.900000", "104416.847500", "104413.010000", "104416.957500", "104413.117500", "104417.067500", "104413.227500", "104417.177500", "104413.337500", "104417.287500", "104413.447500", "104417.397500", "104413.557500", "104417.507500", "104413.667500", "104417.617500", "104413.777500", "104417.727500", "104413.887500", "104417.835000", "104413.995000", "104417.945000", "104414.105000", "104418.055000", "104414.215000", "104418.165000", "104414.325000", "104418.275000", "104414.435000", "104418.385000", "104414.545000", "104418.495000", "104414.655000", "104418.605000", "104414.765000", "104418.712500", "104414.875000", "104418.822500", "104414.982500", "104418.932500", "104415.092500", "104419.042500", "104415.202500", "104419.152500", "104415.312500", "104419.262500", "104415.422500", "104419.372500", "104415.532500", "104419.482500", "104415.642500", "104419.592500", "104415.752500", "104419.700000", "104415.862500", "104419.810000", "104415.970000", "104423.780000", "104419.940000", "104423.890000", "104420.050000", "104424.000000", "104420.160000", "104424.110000", "104420.270000", "104424.220000", "104420.380000", "104424.330000", "104420.490000", "104424.440000", "104420.600000", "104424.547500", "104420.710000", "104424.657500", "104420.817500", "104424.767500", "104420.927500", "104424.877500", "104421.037500", "104424.987500", "104421.147500", "104425.097500", "104421.257500", "104425.207500", "104421.367500", "104425.317500", "104421.477500", "104425.427500", "104421.587500", "104425.535000", "104421.695000", "104425.645000", "104421.805000", "104425.755000", "104421.915000", "104425.865000", "104422.025000", "104425.975000", "104422.135000", "104426.085000", "104422.245000", "104426.195000", "104422.355000", "104426.305000", "104422.465000", "104426.412500", "104422.575000", "104426.522500", "104422.682500", "104426.632500", "104422.792500", "104426.742500", "104422.902500", "104426.852500", "104423.012500", "104426.962500", "104423.122500", "104427.072500", "104423.232500", "104427.182500", "104423.342500", "104427.292500", "104423.452500", "104427.400000", "104423.562500", "104427.510000", "104423.670000", "104431.480000", "104427.640000", "104431.590000", "104427.750000", "104431.700000", "104427.860000", "104431.810000", "104427.970000", "104431.920000", "104428.080000", "104432.030000", "104428.190000", "104432.140000", "104428.300000", "104432.247500", "104428.410000", "104432.357500", "104428.517500", "104432.467500", "104428.627500", "104432.577500", "104428.737500", "104432.687500", "104428.847500", "104432.797500", "104428.957500", "104432.907500", "104429.067500", "104433.017500", "104429.177500", "104433.127500", "104429.287500", "104433.235000", "104429.395000", "104433.345000", "104429.505000", "104433.455000", "104429.615000", "104433.565000", "104429.725000", "104433.675000", "104429.835000", "104433.785000", "104429.945000", "104433.895000", "104430.055000", "104434.005000", "104430.165000", "104434.112500", "104430.275000", "104434.222500", "104430.382500", "104434.332500", "104430.492500", "104434.442500", "104430.602500", "104434.552500", "104430.712500", "104434.662500", "104430.822500", "104434.772500", "104430.932500", "104434.882500", "104431.042500", "104434.992500", "104431.152500", "104435.100000", "104431.262500", "104435.210000", "104431.370000", "104439.180000", "104435.340000", "104439.290000", "104435.450000", "104439.400000", "104435.560000", "104439.510000", "104435.670000", "104439.620000", "104435.780000", "104439.730000", "104435.890000", "104439.840000", "104436.000000", "104439.947500", "104436.110000", "104440.057500", "104436.217500", "104440.167500", "104436.327500", "104440.277500", "104436.437500", "104440.387500", "104436.547500", "104440.497500", "104436.657500", "104440.607500", "104436.767500", "104440.717500", "104436.877500", "104440.827500", "104436.987500", "104440.935000", "104437.095000", "104441.045000", "104437.205000", "104441.155000", "104437.315000", "104441.265000", "104437.425000", "104441.375000", "104437.535000", "104441.485000", "104437.645000", "104441.595000", "104437.755000", "104441.705000", "104437.865000", "104441.812500", "104437.975000", "104441.922500", "104438.082500", "104442.032500", "104438.192500", "104442.142500", "104438.302500", "104442.252500", "104438.412500", "104442.362500", "104438.522500", "104442.472500", "104438.632500", "104442.582500", "104438.742500", "104442.692500", "104438.852500", "104442.800000", "104438.962500", "104442.910000", "104439.070000", "104446.880000", "104443.040000", "104446.990000", "104443.150000", "104447.100000", "104443.260000", "104447.210000", "104443.370000", "104447.320000", "104443.480000", "104447.430000", "104443.590000", "104447.540000", "104443.700000", "104447.647500", "104443.810000", "104447.757500", "104443.917500", "104447.867500", "104444.027500", "104447.977500", "104444.137500", "104448.087500", "104444.247500", "104448.197500", "104444.357500", "104448.307500", "104444.467500", "104448.417500", "104444.577500", "104448.527500", "104444.687500", "104448.635000", "104444.795000", "104448.745000", "104444.905000", "104448.855000", "104445.015000", "104448.965000", "104445.125000", "104449.075000", "104445.235000", "104449.185000", "104445.345000", "104449.295000", "104445.455000", "104449.405000", "104445.565000", "104449.512500", "104445.675000", "104449.622500", "104445.782500", "104449.732500", "104445.892500", "104449.842500", "104446.002500", "104449.952500", "104446.112500", "104450.062500", "104446.222500", "104450.172500", "104446.332500", "104450.282500", "104446.442500", "104450.392500", "104446.552500", "104450.500000", "104446.662500", "104450.610000", "104446.770000", "104454.580000", "104450.740000", "104454.690000", "104450.850000", "104454.800000", "104450.960000", "104454.910000", "104451.070000", "104455.020000", "104451.180000", "104455.130000", "104451.290000", "104455.240000", "104451.400000", "104455.347500", "104451.510000", "104455.457500", "104451.617500", "104455.567500", "104451.727500", "104455.677500", "104451.837500", "104455.787500", "104451.947500", "104455.897500", "104452.057500", "104456.007500", "104452.167500", "104456.117500", "104452.277500", "104456.227500", "104452.387500", "104456.335000", "104452.495000", "104456.445000", "104452.605000", "104456.555000", "104452.715000", "104456.665000", "104452.825000", "104456.775000", "104452.935000", "104456.885000", "104453.045000", "104456.995000", "104453.155000", "104457.105000", "104453.265000", "104457.212500", "104453.375000", "104457.322500", "104453.482500", "104457.432500", "104453.592500", "104457.542500", "104453.702500", "104457.652500", "104453.812500", "104457.762500", "104453.922500", "104457.872500", "104454.032500", "104457.982500", "104454.142500", "104458.092500", "104454.252500", "104458.200000", "104454.362500", "104458.310000", "104454.470000", "104502.280000", "104458.440000", "104502.390000", "104458.550000", "104502.500000", "104458.660000", "104502.610000", "104458.770000", "104502.720000", "104458.880000", "104502.830000", "104458.990000", "104502.940000", "104459.100000", "104503.047500", "104459.210000", "104503.157500", "104459.317500", "104503.267500", "104459.427500", "104503.377500", "104459.537500", "104503.487500", "104459.647500", "104503.597500", "104459.757500", "104503.707500", "104459.867500", "104503.817500", "104459.977500", "104503.927500", "104500.087500", "104504.035000", "104500.195000", "104504.145000", "104500.305000", "104504.255000", "104500.415000", "104504.365000", "104500.525000", "104504.475000", "104500.635000", "104504.585000", "104500.745000", "104504.695000", "104500.855000", "104504.805000", "104500.965000", "104504.912500", "104501.075000", "104505.022500", "104501.182500", "104505.132500", "104501.292500", "104505.242500", "104501.402500", "104505.352500", "104501.512500", "104505.462500", "104501.622500", "104505.572500", "104501.732500", "104505.682500", "104501.842500", "104505.792500", "104501.952500", "104505.900000", "104502.062500", "104506.010000", "104502.170000", "104509.980000", "104506.140000", "104510.090000", "104506.250000", "104510.200000", "104506.360000", "104510.310000", "104506.470000", "104510.420000", "104506.580000", "104510.530000", "104506.690000", "104510.640000", "104506.800000", "104510.747500", "104506.910000", "104510.857500", "104507.017500", "104510.967500", "104507.127500", "104511.077500", "104507.237500", "104511.187500", "104507.347500", "104511.297500", "104507.457500", "104511.407500", "104507.567500", "104511.517500", "104507.677500", "104511.627500", "104507.787500", "104511.735000", "104507.895000", "104511.845000", "104508.005000", "104511.955000", "104508.115000", "104512.065000", "104508.225000", "104512.175000", "104508.335000", "104512.285000", "104508.445000", "104512.395000", "104508.555000", "104512.505000", "104508.665000", "104512.612500", "104508.775000", "104512.722500", "104508.882500", "104512.832500", "104508.992500", "104512.942500", "104509.102500", "104513.052500", "104509.212500", "104513.162500", "104509.322500", "104513.272500", "104509.432500", "104513.382500", "104509.542500", "104513.492500", "104509.652500", "104513.600000", "104509.762500", "104513.710000", "104509.870000", "104517.680000", "104513.840000", "104517.790000", "104513.950000", "104517.900000", "104514.060000", "104518.010000", "104514.170000", "104518.120000", "104514.280000", "104518.230000", "104514.390000", "104518.340000", "104514.500000", "104518.447500", "104514.610000", "104518.557500", "104514.717500", "104518.667500", "104514.827500", "104518.777500", "104514.937500", "104518.887500", "104515.047500", "104518.997500", "104515.157500", "104519.107500", "104515.267500", "104519.217500", "104515.377500", "104519.327500", "104515.487500", "104519.435000", "104515.595000", "104519.545000", "104515.705000", "104519.655000", "104515.815000", "104519.765000", "104515.925000", "104519.875000", "104516.035000", "104519.985000", "104516.145000", "104520.095000", "104516.255000", "104520.205000", "104516.365000", "104520.312500", "104516.475000", "104520.422500", "104516.582500", "104520.532500", "104516.692500", "104520.642500", "104516.802500", "104520.752500", "104516.912500", "104520.862500", "104517.022500", "104520.972500", "104517.132500", "104521.082500", "104517.242500", "104521.192500", "104517.352500", "104521.300000", "104517.462500", "104521.410000", "104517.570000", "104525.380000", "104521.540000", "104525.490000", "104521.650000", "104525.600000", "104521.760000", "104525.710000", "104521.870000", "104525.820000", "104521.980000", "104525.930000", "104522.090000", "104526.040000", "104522.200000", "104526.147500", "104522.310000", "104526.257500", "104522.417500", "104526.367500", "104522.527500", "104526.477500", "104522.637500", "104526.587500", "104522.747500", "104526.697500", "104522.857500", "104526.807500", "104522.967500", "104526.917500", "104523.077500", "104527.027500", "104523.187500", "104527.135000", "104523.295000", "104527.245000", "104523.405000", "104527.355000", "104523.515000", "104527.465000", "104523.625000", "104527.575000", "104523.735000", "104527.685000", "104523.845000", "104527.795000", "104523.955000", "104527.905000", "104524.065000", "104528.012500", "104524.175000", "104528.122500", "104524.282500", "104528.232500", "104524.392500", "104528.342500", "104524.502500", "104528.452500", "104524.612500", "104528.562500", "104524.722500", "104528.672500", "104524.832500", "104528.782500", "104524.942500", "104528.892500", "104525.052500", "104529.000000", "104525.162500", "104529.110000", "104525.270000", "104533.080000", "104529.240000", "104533.190000", "104529.350000", "104533.300000", "104529.460000", "104533.410000", "104529.570000", "104533.520000", "104529.680000", "104533.630000", "104529.790000", "104533.740000", "104529.900000", "104533.847500", "104530.010000", "104533.957500", "104530.117500", "104534.067500", "104530.227500", "104534.177500", "104530.337500", "104534.287500", "104530.447500", "104534.397500", "104530.557500", "104534.507500", "104530.667500", "104534.617500", "104530.777500", "104534.727500", "104530.887500", "104534.835000", "104530.995000", "104534.945000", "104531.105000", "104535.055000", "104531.215000", "104535.165000", "104531.325000", "104535.275000", "104531.435000", "104535.385000", "104531.545000", "104535.495000", "104531.655000", "104535.605000", "104531.765000", "104535.712500", "104531.875000", "104535.822500", "104531.982500", "104535.932500", "104532.092500", "104536.042500", "104532.202500", "104536.152500", "104532.312500", "104536.262500", "104532.422500", "104536.372500", "104532.532500", "104536.482500", "104532.642500", "104536.592500", "104532.752500", "104536.700000", "104532.862500", "104536.810000", "104532.970000", "104540.780000", "104536.940000", "104540.890000", "104537.050000", "104541.000000", "104537.160000", "104541.110000", "104537.270000", "104541.220000", "104537.380000", "104541.330000", "104537.490000", "104541.440000", "104537.600000", "104541.547500", "104537.710000", "104541.657500", "104537.817500", "104541.767500", "104537.927500", "104541.877500", "104538.037500", "104541.987500", "104538.147500", "104542.097500", "104538.257500", "104542.207500", "104538.367500", "104542.317500", "104538.477500", "104542.427500", "104538.587500", "104542.535000", "104538.695000", "104542.645000", "104538.805000", "104542.755000", "104538.915000", "104542.865000", "104539.025000", "104542.975000", "104539.135000", "104543.085000", "104539.245000", "104543.195000", "104539.355000", "104543.305000", "104539.465000", "104543.412500", "104539.575000", "104543.522500", "104539.682500", "104543.632500", "104539.792500", "104543.742500", "104539.902500", "104543.852500", "104540.012500", "104543.962500", "104540.122500", "104544.072500", "104540.232500", "104544.182500", "104540.342500", "104544.292500", "104540.452500", "104544.400000", "104540.562500", "104544.510000", "104540.670000", "104548.480000", "104544.640000", "104548.590000", "104544.750000", "104548.700000", "104544.860000", "104548.810000", "104544.970000", "104548.920000", "104545.080000", "104549.030000", "104545.190000", "104549.140000", "104545.300000", "104549.247500", "104545.410000", "104549.357500", "104545.517500", "104549.467500", "104545.627500", "104549.577500", "104545.737500", "104549.687500", "104545.847500", "104549.797500", "104545.957500", "104549.907500", "104546.067500", "104550.017500", "104546.177500", "104550.127500", "104546.287500", "104550.235000", "104546.395000", "104550.345000", "104546.505000", "104550.455000", "104546.615000", "104550.565000", "104546.725000", "104550.675000", "104546.835000", "104550.785000", "104546.945000", "104550.895000", "104547.055000", "104551.005000", "104547.165000", "104551.112500", "104547.275000", "104551.222500", "104547.382500", "104551.332500", "104547.492500", "104551.442500", "104547.602500", "104551.552500", "104547.712500", "104551.662500", "104547.822500", "104551.772500", "104547.932500", "104551.882500", "104548.042500", "104551.992500", "104548.152500", "104552.100000", "104548.262500", "104552.210000", "104548.370000", "104556.180000", "104552.340000", "104556.290000", "104552.450000", "104556.400000", "104552.560000", "104556.510000", "104552.670000", "104556.620000", "104552.780000", "104556.730000", "104552.890000", "104556.840000", "104553.000000", "104556.947500", "104553.110000", "104557.057500", "104553.217500", "104557.167500", "104553.327500", "104557.277500", "104553.437500", "104557.387500", "104553.547500", "104557.497500", "104553.657500", "104557.607500", "104553.767500", "104557.717500", "104553.877500", "104557.827500", "104553.987500", "104557.935000", "104554.095000", "104558.045000", "104554.205000", "104558.155000", "104554.315000", "104558.265000", "104554.425000", "104558.375000", "104554.535000", "104558.485000", "104554.645000", "104558.595000", "104554.755000", "104558.705000", "104554.865000", "104558.812500", "104554.975000", "104558.922500", "104555.082500", "104559.032500", "104555.192500", "104559.142500", "104555.302500", "104559.252500", "104555.412500", "104559.362500", "104555.522500", "104559.472500", "104555.632500", "104559.582500", "104555.742500", "104559.692500", "104555.852500", "104559.800000", "104555.962500", "104559.910000", "104556.070000", "104603.880000", "104600.040000", "104603.990000", "104600.150000", "104604.100000", "104600.260000", "104604.210000", "104600.370000", "104604.320000", "104600.480000", "104604.430000", "104600.590000", "104604.540000", "104600.700000", "104604.647500", "104600.810000", "104604.757500", "104600.917500", "104604.867500", "104601.027500", "104604.977500", "104601.137500", "104605.087500", "104601.247500", "104605.197500", "104601.357500", "104605.307500", "104601.467500", "104605.417500", "104601.577500", "104605.527500", "104601.687500", "104605.635000", "104601.795000", "104605.745000", "104601.905000", "104605.855000", "104602.015000", "104605.965000", "104602.125000", "104606.075000", "104602.235000", "104606.185000", "104602.345000", "104606.295000", "104602.455000", "104606.405000", "104602.565000", "104606.512500", "104602.675000", "104606.622500", "104602.782500", "104606.732500", "104602.892500", "104606.842500", "104603.002500", "104606.952500", "104603.112500", "104607.062500", "104603.222500", "104607.172500", "104603.332500", "104607.282500", "104603.442500", "104607.392500", "104603.552500", "104607.500000", "104603.662500", "104607.610000", "104603.770000", "104611.580000", "104607.740000", "104611.690000", "104607.850000", "104611.800000", "104607.960000", "104611.910000", "104608.070000", "104612.020000", "104608.180000", "104612.130000", "104608.290000", "104612.240000", "104608.400000", "104612.347500", "104608.510000", "104612.457500", "104608.617500", "104612.567500", "104608.727500", "104612.677500", "104608.837500", "104612.787500", "104608.947500", "104612.897500", "104609.057500", "104613.007500", "104609.167500", "104613.117500", "104609.277500", "104613.227500", "104609.387500", "104613.335000", "104609.495000", "104613.445000", "104609.605000", "104613.555000", "104609.715000", "104613.665000", "104609.825000", "104613.775000", "104609.935000", "104613.885000", "104610.045000", "104613.995000", "104610.155000", "104614.105000", "104610.265000", "104614.212500", "104610.375000", "104614.322500", "104610.482500", "104614.432500", "104610.592500", "104614.542500", "104610.702500", "104614.652500", "104610.812500", "104614.762500", "104610.922500", "104614.872500", "104611.032500", "104614.982500", "104611.142500", "104615.092500", "104611.252500", "104615.200000", "104611.362500", "104615.310000", "104611.470000", "104619.280000", "104615.440000", "104619.390000", "104615.550000", "104619.500000", "104615.660000", "104619.610000", "104615.770000", "104619.720000", "104615.880000", "104619.830000", "104615.990000", "104619.940000", "104616.100000", "104620.047500", "104616.210000", "104620.157500", "104616.317500", "104620.267500", "104616.427500", "104620.377500", "104616.537500", "104620.487500", "104616.647500", "104620.597500", "104616.757500", "104620.707500", "104616.867500", "104620.817500", "104616.977500", "104620.927500", "104617.087500", "104621.035000", "104617.195000", "104621