{
  "AcquisitionMatrixPE": 122,
  "AcquisitionNumber": 1,
  "AcquisitionTime": "10:48:4.470000",
  "BandwidthPerPixelPhaseEncode": 27.785,
  "BaseResolution": 122,
  "BodyPartExamined": "BRAIN",
  "CoilCombinationMethod": "Adaptive Combine",
  "ConsistencyInfo": "N4_VE11C_LATEST_20160120",
  "ConversionSoftware": "dcm2niix",
  "ConversionSoftwareVersion": "v1.0.20220720",
  "DerivedVendorReportedEchoSpacing": 0.000590011,
  "DeviceSerialNumber": "66112",
  "DiffusionScheme": "Monopolar",
  "DwellTime": 2e-06,
  "EchoTime": 0.068,
  "EchoTrainLength": 61,
  "EffectiveEchoSpacing": 0.000295005,
  "FlipAngle": 90,
  "HeudiconvVersion": "0.13.1",
  "ImageOrientationPatientDICOM": [0.986075, 0.165974, 0.0104574, -0.160946, 0.936587, 0.311289],
  "ImageOrientationText": "Tra>Cor(18.0)>Sag(-2.4)",
  "ImageType": [
    "ORIGINAL",
    "PRIMARY",
    "DIFFUSION",
    "NONE",
    "ND",
    "NORM"
],
  "ImagingFrequency": 123.252,
  "InPlanePhaseEncodingDirectionDICOM": "COL",
  "InstitutionAddress": "Maynard 3,Hanover,NH,US,03755",
  "InstitutionName": "Dartmouth College - PBS",
  "InstitutionalDepartmentName": "Department",
  "MRAcquisitionType": "2D",
  "MagneticFieldStrength": 3,
  "Manufacturer": "Siemens",
  "ManufacturersModelName": "Prisma",
  "Modality": "MR",
  "MultibandAccelerationFactor": 4,
  "NonlinearGradientCorrection": false,
  "ParallelReductionFactorInPlane": 2,
  "PartialFourier": 1,
  "PatientPosition": "HFS",
  "PercentPhaseFOV": 100,
  "PercentSampling": 100,
  "PhaseEncodingDirection": "j-",
  "PhaseEncodingSteps": 122,
  "PhaseResolution": 1,
  "PixelBandwidth": 2050,
  "ProcedureStepDescription": "dbic^QA",
  "ProtocolName": "dwi_acq-DTI-30-p2-s4",
  "PulseSequenceDetails": "%SiemensSeq%\\ep2d_diff",
  "ReceiveCoilActiveElements": "HEA;HEP",
  "ReceiveCoilName": "Head_32",
  "ReconMatrixPE": 122,
  "RefLinesPE": 38,
  "RepetitionTime": 3.6,
  "SAR": 0.159597,
  "ScanOptions": "FS",
  "ScanningSequence": "EP",
  "SequenceName": "*ep_b0",
  "SequenceVariant": "SK\\SP",
  "SeriesDescription": "dwi_acq-DTI-30-p2-s4",
  "SeriesNumber": 13,
  "ShimSetting": [4143, -7696, -7517, 301, -49, -65, -28, 69],
  "SliceThickness": 2,
  "SliceTiming": [2.58594, 0, 1.78906, 0.20312, 1.99219, 0.39844, 2.1875, 0.59375, 2.39062, 1, 2.78125, 1.19531, 2.98438, 1.39844, 3.1875, 1.59375, 3.38281, 0.79688, 2.58594, 0, 1.78906, 0.20312, 1.99219, 0.39844, 2.1875, 0.59375, 2.39062, 1, 2.78125, 1.19531, 2.98438, 1.39844, 3.1875, 1.59375, 3.38281, 0.79688, 2.58594, 0, 1.78906, 0.20312, 1.99219, 0.39844, 2.1875, 0.59375, 2.39062, 1, 2.78125, 1.19531, 2.98438, 1.39844, 3.1875, 1.59375, 3.38281, 0.79688, 2.58594, 0, 1.78906, 0.20312, 1.99219, 0.39844, 2.1875, 0.59375, 2.39062, 1, 2.78125, 1.19531, 2.98438, 1.39844, 3.1875, 1.59375, 3.38281, 0.79688],
  "SoftwareVersions": "syngo MR E11",
  "SpacingBetweenSlices": 2,
  "SpoilingState": true,
  "StationName": "AWP66112",
  "TotalReadoutTime": 0.0356956,
  "TxRefAmp": 220.322,
  "dcmmeta_affine": [
    [-1.9398189783096313, -0.31661468744277954, -0.08374345302581787, 143.39842224121094],
    [-0.3265066146850586, 1.8424665927886963, 0.6172752380371094, -110.09635925292969],
    [0.020571881905198097, -0.612372100353241, 1.9005126953125, -34.777976989746094],
    [0.0, 0.0, 0.0, 1.0]
],
  "dcmmeta_reorient_transform": [
    [0.0, -1.0, 0.0, 121.0],
    [1.0, 0.0, 0.0, 0.0],
    [0.0, 0.0, -1.0, 71.0],
    [0.0, 0.0, 0.0, 1.0]
],
  "dcmmeta_shape": [122, 122, 72, 31],
  "dcmmeta_slice_dim": 2,
  "dcmmeta_version": 0.6,
  "global": {
    "const": {
      "AccessionNumber": "qa",
      "AcquisitionMatrix": [122, 0, 0, 122],
      "AngioFlag": "N",
      "BitsAllocated": 16,
      "BitsStored": 12,
      "BodyPartExamined": "BRAIN",
      "Columns": 122,
      "EchoNumbers": 1,
      "EchoTime": 68.0,
      "EchoTrainLength": 61,
      "FlipAngle": 90.0,
      "HighBit": 11,
      "ImageOrientationPatient": [0.98607464740375, 0.16597419406917, 0.01045737302902, -0.1609457933454, 0.93658716345516, 0.31128915312847],
      "ImageType": [
        "ORIGINAL",
        "PRIMARY",
        "DIFFUSION",
        "NONE",
        "ND",
        "NORM"
],
      "ImagedNucleus": "1H",
      "ImagingFrequency": 123.252357,
      "InPlanePhaseEncodingDirection": "COL",
      "MRAcquisitionType": "2D",
      "MagneticFieldStrength": 3.0,
      "Manufacturer": "SIEMENS",
      "ManufacturerModelName": "Prisma",
      "Modality": "MR",
      "NumberOfAverages": 1.0,
      "NumberOfPhaseEncodingSteps": 122,
      "PercentPhaseFieldOfView": 100.0,
      "PercentSampling": 100.0,
      "PerformedProcedureStepStartTime": "100811.067000",
      "PhotometricInterpretation": "MONOCHROME2",
      "PixelBandwidth": 2050.0,
      "PixelRepresentation": 0,
      "PixelSpacing": [1.9672131538391, 1.9672131538391],
      "ProtocolName": "dwi_acq-DTI-30-p2-s4",
      "RepetitionTime": 3600.0,
      "Rows": 122,
      "SAR": 0.15959712042891,
      "SamplesPerPixel": 1,
      "ScanOptions": "FS",
      "ScanningSequence": "EP",
      "SequenceVariant": [
        "SK",
        "SP"
],
      "SeriesDescription": "dwi_acq-DTI-30-p2-s4",
      "SeriesNumber": 13,
      "SeriesTime": "104813.661000",
      "SliceThickness": 2.0,
      "SmallestImagePixelValue": 0,
      "SoftwareVersions": "syngo MR E11",
      "SpacingBetweenSlices": 2.0,
      "SpecificCharacterSet": "ISO_IR 100",
      "StudyID": "35",
      "StudyTime": "100811.025000",
      "TransmitCoilName": "Body",
      "VariableFlipAngleFlag": "N",
      "WindowCenterWidthExplanation": "Algo1",
      "dBdt": 0.0},
    "slices": {
      "AcquisitionTime": ["104804.470000", "104801.885000", "104803.675000", "104802.082500", "104803.872500", "104802.282500", "104804.072500", "104802.480000", "104804.270000", "104802.880000", "104804.667500", "104803.077500", "104804.867500", "104803.277500", "104805.067500", "104803.475000", "104805.265000", "104802.680000", "104804.470000", "104801.885000", "104803.675000", "104802.082500", "104803.872500", "104802.282500", "104804.072500", "104802.480000", "104804.270000", "104802.880000", "104804.667500", "104803.077500", "104804.867500", "104803.277500", "104805.067500", "104803.475000", "104805.265000", "104802.680000", "104804.470000", "104801.885000", "104803.675000", "104802.082500", "104803.872500", "104802.282500", "104804.072500", "104802.480000", "104804.270000", "104802.880000", "104804.667500", "104803.077500", "104804.867500", "104803.277500", "104805.067500", "104803.475000", "104805.265000", "104802.680000", "104804.470000", "104801.885000", "104803.675000", "104802.082500", "104803.872500", "104802.282500", "104804.072500", "104802.480000", "104804.270000", "104802.880000", "104804.667500", "104803.077500", "104804.867500", "104803.277500", "104805.067500", "104803.475000", "104805.265000", "104802.680000", "104808.070000", "104805.485000", "104807.275000", "104805.682500", "104807.472500", "104805.882500", "104807.672500", "104806.080000", "104807.870000", "104806.480000", "104808.267500", "104806.677500", "104808.467500", "104806.877500", "104808.667500", "104807.075000", "104808.865000", "104806.280000", "104808.070000", "104805.485000", "104807.275000", "104805.682500", "104807.472500", "104805.882500", "104807.672500", "104806.080000", "104807.870000", "104806.480000", "104808.267500", "104806.677500", "104808.467500", "104806.877500", "104808.667500", "104807.075000", "104808.865000", "104806.280000", "104808.070000", "104805.485000", "104807.275000", "104805.682500", "104807.472500", "104805.882500", "104807.672500", "104806.080000", "104807.870000", "104806.480000", "104808.267500", "104806.677500", "104808.467500", "104806.877500", "104808.667500", "104807.075000", "104808.865000", "104806.280000", "104808.070000", "104805.485000", "104807.275000", "104805.682500", "104807.472500", "104805.882500", "104807.672500", "104806.080000", "104807.870000", "104806.480000", "104808.267500", "104806.677500", "104808.467500", "104806.877500", "104808.667500", "104807.075000", "104808.865000", "104806.280000", "104811.670000", "104809.085000", "104810.875000", "104809.282500", "104811.072500", "104809.482500", "104811.272500", "104809.680000", "104811.470000", "104810.080000", "104811.867500", "104810.277500", "104812.067500", "104810.477500", "104812.267500", "104810.675000", "104812.465000", "104809.880000", "104811.670000", "104809.085000", "104810.875000", "104809.282500", "104811.072500", "104809.482500", "104811.272500", "104809.680000", "104811.470000", "104810.080000", "104811.867500", "104810.277500", "104812.067500", "104810.477500", "104812.267500", "104810.675000", "104812.465000", "104809.880000", "104811.670000", "104809.085000", "104810.875000", "104809.282500", "104811.072500", "104809.482500", "104811.272500", "104809.680000", "104811.470000", "104810.080000", "104811.867500", "104810.277500", "104812.067500", "104810.477500", "104812.267500", "104810.675000", "104812.465000", "104809.880000", "104811.670000", "104809.085000", "104810.875000", "104809.282500", "104811.072500", "104809.482500", "104811.272500", "104809.680000", "104811.470000", "104810.080000", "104811.867500", "104810.277500", "104812.067500", "104810.477500", "104812.267500", "104810.675000", "104812.465000", "104809.880000", "104815.270000", "104812.685000", "104814.475000", "104812.882500", "104814.672500", "104813.082500", "104814.872500", "104813.280000", "104815.070000", "104813.680000", "104815.467500", "104813.877500", "104815.667500", "104814.077500", "104815.867500", "104814.275000", "104816.065000", "104813.480000", "104815.270000", "104812.685000", "104814.475000", "104812.882500", "104814.672500", "104813.082500", "104814.872500", "104813.280000", "104815.070000", "104813.680000", "104815.467500", "104813.877500", "104815.667500", "104814.077500", "104815.867500", "104814.275000", "104816.065000", "104813.480000", "104815.270000", "104812.685000", "104814.475000", "104812.882500", "104814.672500", "104813.082500", "104814.872500", "104813.280000", "104815.070000", "104813.680000", "104815.467500", "104813.877500", "104815.667500", "104814.077500", "104815.867500", "104814.275000", "104816.065000", "104813.480000", "104815.270000", "104812.685000", "104814.475000", "104812.882500", "104814.672500", "104813.082500", "104814.872500", "104813.280000", "104815.070000", "104813.680000", "104815.467500", "104813.877500", "104815.667500", "104814.077500", "104815.867500", "104814.275000", "104816.065000", "104813.480000", "104818.870000", "104816.285000", "104818.075000", "104816.482500", "104818.272500", "104816.682500", "104818.472500", "104816.880000", "104818.670000", "104817.280000", "104819.067500", "104817.477500", "104819.267500", "104817.677500", "104819.467500", "104817.875000", "104819.665000", "104817.080000", "104818.870000", "104816.285000", "104818.075000", "104816.482500", "104818.272500", "104816.682500", "104818.472500", "104816.880000", "104818.670000", "104817.280000", "104819.067500", "104817.477500", "104819.267500", "104817.677500", "104819.467500", "104817.875000", "104819.665000", "104817.080000", "104818.870000", "104816.285000", "104818.075000", "104816.482500", "104818.272500", "104816.682500", "104818.472500", "104816.880000", "104818.670000", "104817.280000", "104819.067500", "104817.477500", "104819.267500", "104817.677500", "104819.467500", "104817.875000", "104819.665000", "104817.080000", "104818.870000", "104816.285000", "104818.075000", "104816.482500", "104818.272500", "104816.682500", "104818.472500", "104816.880000", "104818.670000", "104817.280000", "104819.067500", "104817.477500", "104819.267500", "104817.677500", "104819.467500", "104817.875000", "104819.665000", "104817.080000", "104822.470000", "104819.885000", "104821.675000", "104820.082500", "104821.872500", "104820.282500", "104822.072500", "104820.480000", "104822.270000", "104820.880000", "104822.667500", "104821.077500", "104822.867500", "104821.277500", "104823.067500", "104821.475000", "104823.265000", "104820.680000", "104822.470000", "104819.885000", "104821.675000", "104820.082500", "104821.872500", "104820.282500", "104822.072500", "104820.480000", "104822.270000", "104820.880000", "104822.667500", "104821.077500", "104822.867500", "104821.277500", "104823.067500", "104821.475000", "104823.265000", "104820.680000", "104822.470000", "104819.885000", "104821.675000", "104820.082500", "104821.872500", "104820.282500", "104822.072500", "104820.480000", "104822.270000", "104820.880000", "104822.667500", "104821.077500", "104822.867500", "104821.277500", "104823.067500", "104821.475000", "104823.265000", "104820.680000", "104822.470000", "104819.885000", "104821.675000", "104820.082500", "104821.872500", "104820.282500", "104822.072500", "104820.480000", "104822.270000", "104820.880000", "104822.667500", "104821.077500", "104822.867500", "104821.277500", "104823.067500", "104821.475000", "104823.265000", "104820.680000", "104826.070000", "104823.485000", "104825.275000", "104823.682500", "104825.472500", "104823.882500", "104825.672500", "104824.080000", "104825.870000", "104824.480000", "104826.267500", "104824.677500", "104826.467500", "104824.877500", "104826.667500", "104825.075000", "104826.865000", "104824.280000", "104826.070000", "104823.485000", "104825.275000", "104823.682500", "104825.472500", "104823.882500", "104825.672500", "104824.080000", "104825.870000", "104824.480000", "104826.267500", "104824.677500", "104826.467500", "104824.877500", "104826.667500", "104825.075000", "104826.865000", "104824.280000", "104826.070000", "104823.485000", "104825.275000", "104823.682500", "104825.472500", "104823.882500", "104825.672500", "104824.080000", "104825.870000", "104824.480000", "104826.267500", "104824.677500", "104826.467500", "104824.877500", "104826.667500", "104825.075000", "104826.865000", "104824.280000", "104826.070000", "104823.485000", "104825.275000", "104823.682500", "104825.472500", "104823.882500", "104825.672500", "104824.080000", "104825.870000", "104824.480000", "104826.267500", "104824.677500", "104826.467500", "104824.877500", "104826.667500", "104825.075000", "104826.865000", "104824.280000", "104829.670000", "104827.085000", "104828.875000", "104827.282500", "104829.072500", "104827.482500", "104829.272500", "104827.680000", "104829.470000", "104828.080000", "104829.867500", "104828.277500", "104830.067500", "104828.477500", "104830.267500", "104828.675000", "104830.465000", "104827.880000", "104829.670000", "104827.085000", "104828.875000", "104827.282500", "104829.072500", "104827.482500", "104829.272500", "104827.680000", "104829.470000", "104828.080000", "104829.867500", "104828.277500", "104830.067500", "104828.477500", "104830.267500", "104828.675000", "104830.465000", "104827.880000", "104829.670000", "104827.085000", "104828.875000", "104827.282500", "104829.072500", "104827.482500", "104829.272500", "104827.680000", "104829.470000", "104828.080000", "104829.867500", "104828.277500", "104830.067500", "104828.477500", "104830.267500", "104828.675000", "104830.465000", "104827.880000", "104829.670000", "104827.085000", "104828.875000", "104827.282500", "104829.072500", "104827.482500", "104829.272500", "104827.680000", "104829.470000", "104828.080000", "104829.867500", "104828.277500", "104830.067500", "104828.477500", "104830.267500", "104828.675000", "104830.465000", "104827.880000", "104833.270000", "104830.685000", "104832.475000", "104830.882500", "104832.672500", "104831.082500", "104832.872500", "104831.280000", "104833.070000", "104831.680000", "104833.467500", "104831.877500", "104833.667500", "104832.077500", "104833.867500", "104832.275000", "104834.065000", "104831.480000", "104833.270000", "104830.685000", "104832.475000", "104830.882500", "104832.672500", "104831.082500", "104832.872500", "104831.280000", "104833.070000", "104831.680000", "104833.467500", "104831.877500", "104833.667500", "104832.077500", "104833.867500", "104832.275000", "104834.065000", "104831.480000", "104833.270000", "104830.685000", "104832.475000", "104830.882500", "104832.672500", "104831.082500", "104832.872500", "104831.280000", "104833.070000", "104831.680000", "104833.467500", "104831.877500", "104833.667500", "104832.077500", "104833.867500", "104832.275000", "104834.065000", "104831.480000", "104833.270000", "104830.685000", "104832.475000", "104830.882500", "104832.672500", "104831.082500", "104832.872500", "104831.280000", "104833.070000", "104831.680000", "104833.467500", "104831.877500", "104833.667500", "104832.077500", "104833.867500", "104832.275000", "104834.065000", "104831.480000", "104836.870000", "104834.285000", "104836.075000", "104834.482500", "104836.272500", "104834.682500", "104836.472500", "104834.880000", "104836.670000", "104835.280000", "104837.067500", "104835.477500", "104837.267500", "104835.677500", "104837.467500", "104835.875000", "104837.665000", "104835.080000", "104836.870000", "104834.285000", "104836.075000", "104834.482500", "104836.272500", "104834.682500", "104836.472500", "104834.880000", "104836.670000", "104835.280000", "104837.067500", "104835.477500", "104837.267500", "104835.677500", "104837.467500", "104835.875000", "104837.665000", "104835.080000", "104836.870000", "104834.285000", "104836.075000", "104834.482500", "104836.272500", "104834.682500", "104836.472500", "104834.880000", "104836.670000", "104835.280000", "104837.067500", "104835.477500", "104837.267500", "104835.677500", "104837.467500", "104835.875000", "104837.665000", "104835.080000", "104836.870000", "104834.285000", "104836.075000", "104834.482500", "104836.272500", "104834.682500", "104836.472500", "104834.880000", "104836.670000", "104835.280000", "104837.067500", "104835.477500", "104837.267500", "104835.677500", "104837.467500", "104835.875000", "104837.665000", "104835.080000", "104840.470000", "104837.885000", "104839.675000", "104838.082500", "104839.872500", "104838.282500", "104840.072500", "104838.480000", "104840.270000", "104838.880000", "104840.667500", "104839.077500", "104840.867500", "104839.277500", "104841.067500", "104839.475000", "104841.265000", "104838.680000", "104840.470000", "104837.885000", "104839.675000", "104838.082500", "104839.872500", "104838.282500", "104840.072500", "104838.480000", "104840.270000", "104838.880000", "104840.667500", "104839.077500", "104840.867500", "104839.277500", "104841.067500", "104839.475000", "104841.265000", "104838.680000", "104840.470000", "104837.885000", "104839.675000", "104838.082500", "104839.872500", "104838.282500", "104840.072500", "104838.480000", "104840.270000", "104838.880000", "104840.667500", "104839.077500", "104840.867500", "104839.277500", "104841.067500", "104839.475000", "104841.265000", "104838.680000", "104840.470000", "104837.885000", "104839.675000", "104838.082500", "104839.872500", "104838.282500", "104840.072500", "104838.480000", "104840.270000", "104838.880000", "104840.667500", "104839.077500", "104840.867500", "104839.277500", "104841.067500", "104839.475000", "104841.265000", "104838.680000", "104844.070000", "104841.485000", "104843.275000", "104841.682500", "104843.472500", "104841.882500", "104843.672500", "104842.080000", "104843.870000", "104842.480000", "104844.267500", "104842.677500", "104844.467500", "104842.877500", "104844.667500", "104843.075000", "104844.865000", "104842.280000", "104844.070000", "104841.485000", "104843.275000", "104841.682500", "104843.472500", "104841.882500", "104843.672500", "104842.080000", "104843.870000", "104842.480000", "104844.267500", "104842.677500", "104844.467500", "104842.877500", "104844.667500", "104843.075000", "104844.865000", "104842.280000", "104844.070000", "104841.485000", "104843.275000", "104841.682500", "104843.472500", "104841.882500", "104843.672500", "104842.080000", "104843.870000", "104842.480000", "104844.267500", "104842.677500", "104844.467500", "104842.877500", "104844.667500", "104843.075000", "104844.865000", "104842.280000", "104844.070000", "104841.485000", "104843.275000", "104841.682500", "104843.472500", "104841.882500", "104843.672500", "104842.080000", "104843.870000", "104842.480000", "104844.267500", "104842.677500", "104844.467500", "104842.877500", "104844.667500", "104843.075000", "104844.865000", "104842.280000", "104847.670000", "104845.085000", "104846.875000", "104845.282500", "104847.072500", "104845.482500", "104847.272500", "104845.680000", "104847.470000", "104846.080000", "104847.867500", "104846.277500", "104848.067500", "104846.477500", "104848.267500", "104846.675000", "104848.465000", "104845.880000", "104847.670000", "104845.085000", "104846.875000", "104845.282500", "104847.072500", "104845.482500", "104847.272500", "104845.680000", "104847.470000", "104846.080000", "104847.867500", "104846.277500", "104848.067500", "104846.477500", "104848.267500", "104846.675000", "104848.465000", "104845.880000", "104847.670000", "104845.085000", "104846.875000", "104845.282500", "104847.072500", "104845.482500", "104847.272500", "104845.680000", "104847.470000", "104846.080000", "104847.867500", "104846.277500", "104848.067500", "104846.477500", "104848.267500", "104846.675000", "104848.465000", "104845.880000", "104847.670000", "104845.085000", "104846.875000", "104845.282500", "104847.072500", "104845.482500", "104847.272500", "104845.680000", "104847.470000", "104846.080000", "104847.867500", "104846.277500", "104848.067500", "104846.477500", "104848.267500", "104846.675000", "104848.465000", "104845.880000", "104851.270000", "104848.685000", "104850.475000", "104848.882500", "104850.672500", "104849.082500", "104850.872500", "104849.280000", "104851.070000", "104849.680000", "104851.467500", "104849.877500", "104851.667500", "104850.077500", "104851.867500", "104850.275000", "104852.065000", "104849.480000", "104851.270000", "104848.685000", "104850.475000", "104848.882500", "104850.672500", "104849.082500", "104850.872500", "104849.280000", "104851.070000", "104849.680000", "104851.467500", "104849.877500", "104851.667500", "104850.077500", "104851.867500", "104850.275000", "104852.065000", "104849.480000", "104851.270000", "104848.685000", "104850.475000", "104848.882500", "104850.672500", "104849.082500", "104850.872500", "104849.280000", "104851.070000", "104849.680000", "104851.467500", "104849.877500", "104851.667500", "104850.077500", "104851.867500", "104850.275000", "104852.065000", "104849.480000", "104851.270000", "104848.685000", "104850.475000", "104848.882500", "104850.672500", "104849.082500", "104850.872500", "104849.280000", "104851.070000", "104849.680000", "104851.467500", "104849.877500", "104851.667500", "104850.077500", "104851.867500", "104850.275000", "104852.065000", "104849.480000", "104854.870000", "104852.285000", "104854.075000", "104852.482500", "104854.272500", "104852.682500", "104854.472500", "104852.880000", "104854.670000", "104853.280000", "104855.067500", "104853.477500", "104855.267500", "104853.677500", "104855.467500", "104853.875000", "104855.665000", "104853.080000", "104854.870000", "104852.285000", "104854.075000", "104852.482500", "104854.272500", "104852.682500", "104854.472500", "104852.880000", "104854.670000", "104853.280000", "104855.067500", "104853.477500", "104855.267500", "104853.677500", "104855.467500", "104853.875000", "104855.665000", "104853.080000", "104854.870000", "104852.285000", "104854.075000", "104852.482500", "104854.272500", "104852.682500", "104854.472500", "104852.880000", "104854.670000", "104853.280000", "104855.067500", "104853.477500", "104855.267500", "104853.677500", "104855.467500", "104853.875000", "104855.665000", "104853.080000", "104854.870000", "104852.285000", "104854.075000", "104852.482500", "104854.272500", "104852.682500", "104854.472500", "104852.880000", "104854.670000", "104853.280000", "104855.067500", "104853.477500", "104855.267500", "104853.677500", "104855.467500", "104853.875000", "104855.665000", "104853.080000", "104858.470000", "104855.885000", "104857.675000", "104856.082500", "104857.872500", "104856.282500", "104858.072500", "104856.480000", "104858.270000", "104856.880000", "104858.667500", "104857.077500", "104858.867500", "104857.277500", "104859.067500", "104857.475000", "104859.265000", "104856.680000", "104858.470000", "104855.885000", "104857.675000", "104856.082500", "104857.872500", "104856.282500", "104858.072500", "104856.480000", "104858.270000", "104856.880000", "104858.667500", "104857.077500", "104858.867500", "104857.277500", "104859.067500", "104857.475000", "104859.265000", "104856.680000", "104858.470000", "104855.885000", "104857.675000", "104856.082500", "104857.872500", "104856.282500", "104858.072500", "104856.480000", "104858.270000", "104856.880000", "104858.667500", "104857.077500", "104858.867500", "104857.277500", "104859.067500", "104857.475000", "104859.265000", "104856.680000", "104858.470000", "104855.885000", "104857.675000", "104856.082500", "104857.872500", "104856.282500", "104858.072500", "104856.480000", "104858.270000", "104856.880000", "104858.667500", "104857.077500", "104858.867500", "104857.277500", "104859.067500", "104857.475000", "104859.265000", "104856.680000", "104902.070000", "104859.485000", "104901.275000", "104859.682500", "104901.472500", "104859.882500", "104901.672500", "104900.080000", "104901.870000", "104900.480000", "104902.267500", "104900.677500", "104902.467500", "104900.877500", "104902.667500", "104901.075000", "104902.865000", "104900.280000", "104902.070000", "104859.485000", "104901.275000", "104859.682500", "104901.472500", "104859.882500", "104901.672500", "104900.080000", "104901.870000", "104900.480000", "104902.267500", "104900.677500", "104902.467500", "104900.877500", "104902.667500", "104901.075000", "104902.865000", "104900.280000", "104902.070000", "104859.485000", "104901.275000", "104859.682500", "104901.472500", "104859.882500", "104901.672500", "104900.080000", "104901.870000", "104900.480000", "104902.267500", "104900.677500", "104902.467500", "104900.877500", "104902.667500", "104901.075000", "104902.865000", "104900.280000", "104902.070000", "104859.485000", "104901.275000", "104859.682500", "104901.472500", "104859.882500", "104901.672500", "104900.080000", "104901.870000", "104900.480000", "104902.267500", "104900.677500", "104902.467500", "104900.877500", "104902.667500", "104901.075000", "104902.865000", "104900.280000", "104905.670000", "104903.085000", "104904.875000", "104903.282500", "104905.072500", "104903.482500", "104905.272500", "104903.680000", "104905.470000", "104904.080000", "104905.867500", "104904.277500", "104906.067500", "104904.477500", "104906.267500", "104904.675000", "104906.465000", "104903.880000", "104905.670000", "104903.085000", "104904.875000", "104903.282500", "104905.072500", "104903.482500", "104905.272500", "104903.680000", "104905.470000", "104904.080000", "104905.867500", "104904.277500", "104906.067500", "104904.477500", "104906.267500", "104904.675000", "104906.465000", "104903.880000", "104905.670000", "104903.085000", "104904.875000", "104903.282500", "104905.072500", "104903.482500", "104905.272500", "104903.680000", "104905.470000", "104904.080000", "104905.867500", "104904.277500", "104906.067500", "104904.477500", "104906.267500", "104904.675000", "104906.465000", "104903.880000", "104905.670000", "104903.085000", "104904.875000", "104903.282500", "104905.072500", "104903.482500", "104905.272500", "104903.680000", "104905.470000", "104904.080000", "104905.867500", "104904.277500", "104906.067500", "104904.477500", "104906.267500", "104904.675000", "104906.465000", "104903.880000", "104909.270000", "104906.685000", "104908.475000", "104906.882500", "104908.672500", "104907.082500", "104908.872500", "104907.280000", "104909.070000", "104907.680000", "104909.467500", "104907.877500", "104909.667500", "104908.077500", "104909.867500", "104908.275000", "104910.065000", "104907.480000", "104909.270000", "104906.685000", "104908.475000", "104906.882500", "104908.672500", "104907.082500", "104908.872500", "104907.280000", "104909.070000", "104907.680000", "104909.467500", "104907.877500", "104909.667500", "104908.077500", "104909.867500", "104908.275000", "104910.065000", "104907.480000", "104909.270000", "104906.685000", "104908.475000", "104906.882500", "104908.672500", "104907.082500", "104908.872500", "104907.280000", "104909.070000", "104907.680000", "104909.467500", "104907.877500", "104909.667500", "104908.077500", "104909.867500", "104908.275000", "104910.065000", "104907.480000", "104909.270000", "104906.685000", "104908.475000", "104906.882500", "104908.672500", "104907.082500", "104908.872500", "104907.280000", "104909.070000", "104907.680000", "104909.467500", "104907.877500", "104909.667500", "104908.077500", "104909.867500", "104908.275000", "104910.065000", "104907.480000", "104912.870000", "104910.285000", "104912.075000", "104910.482500", "104912.272500", "104910.682500", "104912.472500", "104910.880000", "104912.670000", "104911.280000", "104913.067500", "104911.477500", "104913.267500", "104911.677500", "104913.467500", "104911.875000", "104913.665000", "104911.080000", "104912.870000", "104910.285000", "104912.075000", "104910.482500", "104912.272500", "104910.682500", "104912.472500", "104910.880000", "104912.670000", "104911.280000", "104913.067500", "104911.477500", "104913.267500", "104911.677500", "104913.467500", "104911.875000", "104913.665000", "104911.080000", "104912.870000", "104910.285000", "104912.075000", "104910.482500", "104912.272500", "104910.682500", "104912.472500", "104910.880000", "104912.670000", "104911.280000", "104913.067500", "104911.477500", "104913.267500", "104911.677500", "104913.467500", "104911.875000", "104913.665000", "104911.080000", "104912.870000", "104910.285000", "104912.075000", "104910.482500", "104912.272500", "104910.682500", "104912.472500", "104910.880000", "104912.670000", "104911.280000", "104913.067500", "104911.477500", "104913.267500