{
  "AcquisitionMatrixPE": 80,
  "AcquisitionNumber": 1,
  "AcquisitionTime": "09:02:19.800000",
  "BandwidthPerPixelPhaseEncode": 48.077,
  "BaseResolution": 80,
  "BodyPartExamined": "BRAIN",
  "CoilCombinationMethod": "Sum of Squares",
  "ConsistencyInfo": "N4_VE11E_LATEST_20181129",
  "ConversionSoftware": "dcm2niix",
  "ConversionSoftwareVersion": "v1.0.20220720",
  "DerivedVendorReportedEchoSpacing": 0.000519999,
  "DeviceSerialNumber": "66112",
  "DwellTime": 2.7e-06,
  "EchoTime": 0.035,
  "EchoTrainLength": 39,
  "EffectiveEchoSpacing": 0.00026,
  "FlipAngle": 90,
  "HeudiconvVersion": "0.13.1",
  "ImageOrientationPatientDICOM": [0.999093, 0.00937322, -0.0415459, 0.00279002, 0.958983, 0.283451],
  "ImageOrientationText": "Tra>Cor(16.5)>Sag(-2.4)",
  "ImageType": [
    "ORIGINAL",
    "PRIMARY",
    "M",
    "ND",
    "NORM",
    "MOSAIC"
],
  "ImagingFrequency": 123.259,
  "InPlanePhaseEncodingDirectionDICOM": "COL",
  "InstitutionAddress": "Maynard 3,Hanover,NH,US,03755",
  "InstitutionName": "Dartmouth College - PBS",
  "InstitutionalDepartmentName": "Department",
  "MRAcquisitionType": "2D",
  "MagneticFieldStrength": 3,
  "Manufacturer": "Siemens",
  "ManufacturersModelName": "Prisma",
  "MatrixCoilMode": "GRAPPA",
  "Modality": "MR",
  "NonlinearGradientCorrection": false,
  "ParallelReductionFactorInPlane": 2,
  "PartialFourier": 1,
  "PatientPosition": "HFS",
  "PercentPhaseFOV": 100,
  "PercentSampling": 100,
  "PhaseEncodingDirection": "j-",
  "PhaseEncodingSteps": 79,
  "PhaseResolution": 1,
  "PixelBandwidth": 2315,
  "ProcedureStepDescription": "dbic^QA",
  "ProtocolName": "func-bold_task-rest_acq-p2",
  "PulseSequenceDetails": "%SiemensSeq%\\ep2d_bold",
  "ReceiveCoilActiveElements": "HC1-7;NC1,2",
  "ReceiveCoilName": "HeadNeck_64",
  "ReconMatrixPE": 80,
  "RefLinesPE": 24,
  "RepetitionTime": 2,
  "SAR": 0.0360829,
  "ScanOptions": "FS",
  "ScanningSequence": "EP",
  "SequenceName": "*epfid2d1_80",
  "SequenceVariant": "SK",
  "SeriesDescription": "func-bold_task-rest_acq-p2",
  "SeriesNumber": 5,
  "ShimSetting": [4217, -7727, -7492, -134, -159, -231, -45, 94],
  "SliceThickness": 3.5,
  "SliceTiming": [0.99, 0, 1.0575, 0.0675, 1.1225, 0.1325, 1.19, 0.2, 1.255, 0.265, 1.32, 0.33, 1.3875, 0.3975, 1.4525, 0.4625, 1.52, 0.53, 1.585, 0.595, 1.65, 0.66, 1.7175, 0.7275, 1.7825, 0.7925, 1.85, 0.86, 1.915, 0.925],
  "SoftwareVersions": "syngo MR E11",
  "SpacingBetweenSlices": 3.99,
  "StationName": "AWP66112",
  "TaskName": "rest",
  "TotalReadoutTime": 0.02054,
  "TxRefAmp": 215.148,
  "dcmmeta_affine": [
    [-2.9972779750823975, 0.008370052091777325, -0.16956959664821625, 125.28860473632812],
    [-0.02811967208981514, 2.8769476413726807, 1.130407452583313, -124.80892944335938],
    [-0.12463770061731339, -0.8503542542457581, 3.8227641582489014, -36.35266876220703],
    [0.0, 0.0, 0.0, 1.0]
],
  "dcmmeta_reorient_transform": [
    [0.0, -1.0, 0.0, 79.0],
    [1.0, 0.0, 0.0, 0.0],
    [0.0, 0.0, 1.0, 0.0],
    [0.0, 0.0, 0.0, 1.0]
],
  "dcmmeta_shape": [80, 80, 30, 200],
  "dcmmeta_slice_dim": 2,
  "dcmmeta_version": 0.6,
  "global": {
    "const": {
      "AccessionNumber": "qa64",
      "AcquisitionMatrix": [80, 0, 0, 80],
      "AngioFlag": "N",
      "BitsAllocated": 16,
      "BitsStored": 12,
      "BodyPartExamined": "BRAIN",
      "Columns": 480,
      "EchoNumbers": 1,
      "EchoTime": 35.0,
      "EchoTrainLength": 39,
      "FlipAngle": 90.0,
      "HighBit": 11,
      "ImageOrientationPatient": [0.99909262879093, 0.00937322423451, -0.0415458994737, 0.00279001728306, 0.95898253894734, 0.2834514169971],
      "ImagePositionPatient": [-727.07942742593, -683.48338810788, -248.67396388882],
      "ImageType": [
        "ORIGINAL",
        "PRIMARY",
        "M",
        "ND",
        "NORM",
        "MOSAIC"
],
      "ImagedNucleus": "1H",
      "ImagingFrequency": 123.259173,
      "InPlanePhaseEncodingDirection": "COL",
      "MRAcquisitionType": "2D",
      "MagneticFieldStrength": 3.0,
      "Manufacturer": "SIEMENS",
      "ManufacturerModelName": "Prisma",
      "Modality": "MR",
      "NumberOfAverages": 1.0,
      "NumberOfPhaseEncodingSteps": 79,
      "PercentPhaseFieldOfView": 100.0,
      "PercentSampling": 100.0,
      "PerformedProcedureStepStartTime": "085236.049000",
      "PhotometricInterpretation": "MONOCHROME2",
      "PixelBandwidth": 2315.0,
      "PixelRepresentation": 0,
      "PixelSpacing": [3.0, 3.0],
      "ProtocolName": "func-bold_task-rest_acq-p2",
      "RepetitionTime": 2000.0,
      "Rows": 480,
      "SAR": 0.03608287642637,
      "SamplesPerPixel": 1,
      "ScanOptions": "FS",
      "ScanningSequence": "EP",
      "SequenceName": "*epfid2d1_80",
      "SequenceVariant": "SK",
      "SeriesDescription": "func-bold_task-rest_acq-p2",
      "SeriesNumber": 5,
      "SeriesTime": "090310.911000",
      "SliceLocation": -75.513221696582,
      "SliceThickness": 3.5,
      "SmallestImagePixelValue": 0,
      "SoftwareVersions": "syngo MR E11",
      "SpacingBetweenSlices": 3.990000075239,
      "SpecificCharacterSet": "ISO_IR 100",
      "StudyID": "29",
      "StudyTime": "085235.825000",
      "TransmitCoilName": "Body",
      "VariableFlipAngleFlag": "N",
      "WindowCenterWidthExplanation": "Algo1"
    },
    "slices": {}
  },
  "time": {
    "samples": {
      "AcquisitionNumber": [1, 2, 3, 4, 5, 6, 7, 8, 9, 10, 11, 12, 13, 14, 15, 16, 17, 18, 19, 20, 21, 22, 23, 24, 25, 26, 27, 28, 29, 30, 31, 32, 33, 34, 35, 36, 37, 38, 39, 40, 41, 42, 43, 44, 45, 46, 47, 48, 49, 50, 51, 52, 53, 54, 55, 56, 57, 58, 59, 60, 61, 62, 63, 64, 65, 66, 67, 68, 69, 70, 71, 72, 73, 74, 75, 76, 77, 78, 79, 80, 81, 82, 83, 84, 85, 86, 87, 88, 89, 90, 91, 92, 93, 94, 95, 96, 97, 98, 99, 100, 101, 102, 103, 104, 105, 106, 107, 108, 109, 110, 111, 112, 113, 114, 115, 116, 117, 118, 119, 120, 121, 122, 123, 124, 125, 126, 127, 128, 129, 130, 131, 132, 133, 134, 135, 136, 137, 138, 139, 140, 141, 142, 143, 144, 145, 146, 147, 148, 149, 150, 151, 152, 153, 154, 155, 156, 157, 158, 159, 160, 161, 162, 163, 164, 165, 166, 167, 168, 169, 170, 171, 172, 173, 174, 175, 176, 177, 178, 179, 180, 181, 182, 183, 184, 185, 186, 187, 188, 189, 190, 191, 192, 193, 194, 195, 196, 197, 198, 199, 200],
      "AcquisitionTime": ["090219.800000", "090221.800000", "090223.800000", "090225.800000", "090227.800000", "090229.800000", "090231.800000", "090233.800000", "090235.800000", "090237.800000", "090239.800000", "090241.800000", "090243.800000", "090245.800000", "090247.800000", "090249.800000", "090251.800000", "090253.800000", "090255.800000", "090257.800000", "090259.800000", "090301.800000", "090303.800000", "090305.800000", "090307.800000", "090309.800000", "090311.800000", "090313.800000", "090315.800000", "090317.800000", "090319.800000", "090321.800000", "090323.800000", "090325.800000", "090327.800000", "090329.800000", "090331.800000", "090333.800000", "090335.800000", "090337.800000", "090339.800000", "090341.800000", "090343.800000", "090345.800000", "090347.800000", "090349.800000", "090351.800000", "090353.800000", "090355.800000", "090357.800000", "090359.800000", "090401.800000", "090403.800000", "090405.800000", "090407.800000", "090409.800000", "090411.800000", "090413.800000", "090415.800000", "090417.800000", "090419.800000", "090421.800000", "090423.800000", "090425.800000", "090427.800000", "090429.800000", "090431.800000", "090433.800000", "090435.800000", "090437.800000", "090439.800000", "090441.800000", "090443.800000", "090445.800000", "090447.800000", "090449.800000", "090451.800000", "090453.800000", "090455.800000", "090457.800000", "090459.800000", "090501.800000", "090503.800000", "090505.800000", "090507.800000", "090509.800000", "090511.800000", "090513.800000", "090515.800000", "090517.800000", "090519.800000", "090521.800000", "090523.800000", "090525.800000", "090527.800000", "090529.800000", "090531.800000", "090533.800000", "090535.800000", "090537.800000", "090539.800000", "090541.800000", "090543.800000", "090545.800000", "090547.800000", "090549.800000", "090551.800000", "090553.800000", "090555.800000", "090557.800000", "090559.800000", "090601.800000", "090603.800000", "090605.800000", "090607.800000", "090609.800000", "090611.800000", "090613.800000", "090615.800000", "090617.800000", "090619.800000", "090621.800000", "090623.800000", "090625.800000", "090627.800000", "090629.800000", "090631.800000", "090633.800000", "090635.800000", "090637.800000", "090639.800000", "090641.800000", "090643.800000", "090645.800000", "090647.800000", "090649.800000", "090651.800000", "090653.800000", "090655.800000", "090657.800000", "090659.800000", "090701.800000", "090703.800000", "090705.800000", "090707.800000", "090709.800000", "090711.800000", "090713.800000", "090715.800000", "090717.800000", "090719.800000", "090721.800000", "090723.800000", "090725.800000", "090727.800000", "090729.800000", "090731.800000", "090733.800000", "090735.800000", "090737.800000", "090739.800000", "090741.800000", "090743.800000", "090745.800000", "090747.800000", "090749.800000", "090751.800000", "090753.800000", "090755.800000", "090757.800000", "090759.800000", "090801.800000", "090803.800000", "090805.800000", "090807.800000", "090809.800000", "090811.800000", "090813.800000", "090815.800000", "090817.800000", "090819.800000", "090821.800000", "090823.800000", "090825.800000", "090827.800000", "090829.800000", "090831.800000", "090833.800000", "090835.800000", "090837.800000", "090839.800000", "090841.800000", "090843.800000", "090845.800000", "090847.800000", "090849.800000", "090851.800000", "090853.800000", "090855.800000", "090857.800000"],
      "ContentTime": ["090310.915000", "090310.918000", "090310.921000", "090310.923000", "090310.926000", "090310.929000", "090310.931000", "090310.933000", "090310.936000", "090310.938000", "090310.940000", "090310.943000", "090310.945000", "090310.948000", "090310.950000", "090310.952000", "090310.955000", "090310.957000", "090310.960000", "090310.963000", "090310.965000", "090310.968000", "090310.970000", "090310.972000", "090310.975000", "090350.911000", "090350.914000", "090350.917000", "090350.919000", "090350.921000", "090350.924000", "090350.926000", "090350.929000", "090350.931000", "090350.933000", "090350.936000", "090350.938000", "090350.940000", "090350.943000", "090350.945000", "090350.948000", "090350.950000", "090350.952000", "090350.955000", "090350.957000", "090430.910000", "090430.913000", "090430.915000", "090430.918000", "090430.920000", "090430.922000", "090430.925000", "090430.927000", "090430.930000", "090430.932000", "090430.934000", "090430.937000", "090430.939000", "090430.941000", "090430.944000", "090430.946000", "090430.956000", "090430.959000", "090430.962000", "090430.964000", "090510.910000", "090510.913000", "090510.915000", "090510.917000", "090510.920000", "090510.922000", "090510.924000", "090510.927000", "090510.929000", "090510.931000", "090510.934000", "090510.936000", "090510.939000", "090510.941000", "090510.943000", "090510.946000", "090510.948000", "090510.950000", "090510.953000", "090510.955000", "090550.911000", "090550.914000", "090550.916000", "090550.919000", "090550.921000", "090550.923000", "090550.926000", "090550.928000", "090550.930000", "090550.933000", "090550.935000", "090550.938000", "090550.940000", "090550.942000", "090550.945000", "090550.947000", "090550.949000", "090550.952000", "090550.954000", "090550.957000", "090630.910000", "090630.913000", "090630.915000", "090630.918000", "090630.920000", "090630.922000", "090630.925000", "090630.927000", "090630.930000", "090630.932000", "090630.934000", "090630.937000", "090630.939000", "090630.941000", "090630.944000", "090630.946000", "090630.949000", "090630.951000", "090630.953000", "090630.956000", "090710.910000", "090710.913000", "090710.915000", "090710.918000", "090710.920000", "090710.922000", "090710.925000", "090710.928000", "090710.930000", "090710.932000", "090710.935000", "090710.937000", "090710.939000", "090710.942000", "090710.944000", "090710.946000", "090710.949000", "090710.951000", "090710.954000", "090710.956000", "090750.910000", "090750.913000", "090750.915000", "090750.926000", "090750.928000", "090750.930000", "090750.933000", "090750.936000", "090750.938000", "090750.940000", "090750.943000", "090750.945000", "090750.947000", "090750.950000", "090750.952000", "090750.954000", "090750.958000", "090750.960000", "090750.963000", "090750.965000", "090830.911000", "090830.914000", "090830.916000", "090830.919000", "090830.921000", "090830.923000", "090830.926000", "090830.928000", "090830.930000", "090830.933000", "090830.935000", "090830.937000", "090830.940000", "090830.942000", "090830.944000", "090830.947000", "090830.949000", "090830.951000", "090830.954000", "090830.956000", "090858.991000", "090858.994000", "090858.996000", "090858.998000", "090859.002000", "090859.004000", "090859.007000", "090859.009000", "090859.011000", "090859.014000", "090859.016000", "090859.019000", "090859.023000", "090859.026000", "090859.028000"],
      "InstanceCreationTime": ["090310.915000", "090310.918000", "090310.921000", "090310.923000", "090310.926000", "090310.929000", "090310.931000", "090310.933000", "090310.936000", "090310.938000", "090310.940000", "090310.943000", "090310.945000", "090310.948000", "090310.950000", "090310.952000", "090310.955000", "090310.957000", "090310.960000", "090310.963000", "090310.965000", "090310.968000", "090310.970000", "090310.972000", "090310.975000", "090350.911000", "090350.914000", "090350.917000", "090350.919000", "090350.921000", "090350.924000", "090350.926000", "090350.929000", "090350.931000", "090350.933000", "090350.936000", "090350.938000", "090350.940000", "090350.943000", "090350.945000", "090350.948000", "090350.950000", "090350.952000", "090350.955000", "090350.957000", "090430.910000", "090430.913000", "090430.915000", "090430.918000", "090430.920000", "090430.922000", "090430.925000", "090430.927000", "090430.930000", "090430.932000", "090430.934000", "090430.937000", "090430.939000", "090430.941000", "090430.944000", "090430.946000", "090430.956000", "090430.959000", "090430.962000", "090430.964000", "090510.910000", "090510.913000", "090510.915000", "090510.917000", "090510.920000", "090510.922000", "090510.924000", "090510.927000", "090510.929000", "090510.931000", "090510.934000", "090510.936000", "090510.939000", "090510.941000", "090510.943000", "090510.946000", "090510.948000", "090510.950000", "090510.953000", "090510.955000", "090550.911000", "090550.914000", "090550.916000", "090550.919000", "090550.921000", "090550.923000", "090550.926000", "090550.928000", "090550.930000", "090550.933000", "090550.935000", "090550.938000", "090550.940000", "090550.942000", "090550.945000", "090550.947000", "090550.949000", "090550.952000", "090550.954000", "090550.957000", "090630.910000", "090630.913000", "090630.915000", "090630.918000", "090630.920000", "090630.922000", "090630.925000", "090630.927000", "090630.930000", "090630.932000", "090630.934000", "090630.937000", "090630.939000", "090630.941000", "090630.944000", "090630.946000", "090630.949000", "090630.951000", "090630.953000", "090630.956000", "090710.910000", "090710.913000", "090710.915000", "090710.918000", "090710.920000", "090710.922000", "090710.925000", "090710.928000", "090710.930000", "090710.932000", "090710.935000", "090710.937000", "090710.939000", "090710.942000", "090710.944000", "090710.946000", "090710.949000", "090710.951000", "090710.954000", "090710.956000", "090750.910000", "090750.913000", "090750.915000", "090750.926000", "090750.928000", "090750.930000", "090750.933000", "090750.936000", "090750.938000", "090750.940000", "090750.943000", "090750.945000", "090750.947000", "090750.950000", "090750.952000", "090750.954000", "090750.958000", "090750.960000", "090750.963000", "090750.965000", "090830.911000", "090830.914000", "090830.916000", "090830.919000", "090830.921000", "090830.923000", "090830.926000", "090830.928000", "090830.930000", "090830.933000", "090830.935000", "090830.937000", "090830.940000", "090830.942000", "090830.944000", "090830.947000", "090830.949000", "090830.951000", "090830.954000", "090830.956000", "090858.991000", "090858.994000", "090858.996000", "090858.998000", "090859.002000", "090859.004000", "090859.007000", "090859.009000", "090859.011000", "090859.014000", "090859.016000", "090859.019000", "090859.023000", "090859.026000", "090859.028000"],
      "InstanceNumber": [1, 2, 3, 4, 5, 6, 7, 8, 9, 10, 11, 12, 13, 14, 15, 16, 17, 18, 19, 20, 21, 22, 23, 24, 25, 26, 27, 28, 29, 30, 31, 32, 33, 34, 35, 36, 37, 38, 39, 40, 41, 42, 43, 44, 45, 46, 47, 48, 49, 50, 51, 52, 53, 54, 55, 56, 57, 58, 59, 60, 61, 62, 63, 64, 65, 66, 67, 68, 69, 70, 71, 72, 73, 74, 75, 76, 77, 78, 79, 80, 81, 82, 83, 84, 85, 86, 87, 88, 89, 90, 91, 92, 93, 94, 95, 96, 97, 98, 99, 100, 101, 102, 103, 104, 105, 106, 107, 108, 109, 110, 111, 112, 113, 114, 115, 116, 117, 118, 119, 120, 121, 122, 123, 124, 125, 126, 127, 128, 129, 130, 131, 132, 133, 134, 135, 136, 137, 138, 139, 140, 141, 142, 143, 144, 145, 146, 147, 148, 149, 150, 151, 152, 153, 154, 155, 156, 157, 158, 159, 160, 161, 162, 163, 164, 165, 166, 167, 168, 169, 170, 171, 172, 173, 174, 175, 176, 177, 178, 179, 180, 181, 182, 183, 184, 185, 186, 187, 188, 189, 190, 191, 192, 193, 194, 195, 196, 197, 198, 199, 200],
      "LargestImagePixelValue": [4029, 4029, 4028, 4028, 4042, 4032, 4031, 4024, 4023, 4033, 4028, 4031, 4031, 4032, 4037, 4029, 4035, 4041, 4038, 4031, 4035, 4038, 4039, 4034, 4034, 4038, 4036, 4036, 4040, 4037, 4042, 4048, 4040, 4039, 4040, 4049, 4039, 4045, 4045, 4045, 4049, 4055, 4048, 4046, 4055, 4042, 4045, 4053, 4049, 4043, 4047, 4046, 4057, 4052, 4053, 4047, 4038, 4055, 4047, 4050, 4057, 4054, 4053, 4055, 4050, 4057, 4055, 4065, 4059, 4064, 4060, 4059, 4059, 4054, 4064, 4061, 4061, 4060, 4057, 4064, 4061, 4062, 4059, 4066, 4065, 4061, 4061, 4068, 4070, 4064, 4070, 4067, 4069, 4073, 4071, 4064, 4071, 4073, 4062, 4067, 4074, 4070, 4066, 4074, 4076, 4072, 4070, 4074, 4073, 4074, 4078, 4079, 4076, 4079, 4071, 4075, 4081, 4080, 4072, 4074, 4072, 4081, 4082, 4075, 4081, 4089, 4077, 4082, 4073, 4085, 4082, 4089, 4087, 4078, 4083, 4086, 4080, 4087, 4091, 4082, 4079, 4094, 4082, 4085, 4087, 4090, 4085, 4089, 4087, 4094, 4088, 4090, 4093, 4074, 4092, 4095, 4084, 4087, 4080, 4086, 4095, 4087, 4089, 4087, 4095, 4095, 4088, 4095, 4095, 4095, 4095, 4090, 4095, 4085, 4091, 4095, 4095, 4095, 4095, 4092, 4095, 4095, 4095, 4095, 4095, 4095, 4095, 4095, 4095, 4095, 4095, 4095, 4095, 4095, 4095, 4095, 4095, 4095, 4095, 4095],
      "WindowCenter": [1494.0, 1493.0, 1493.0, 1494.0, 1493.0, 1493.0, 1493.0, 1493.0, 1493.0, 1493.0, 1493.0, 1493.0, 1493.0, 1492.0, 1493.0, 1493.0, 1493.0, 1493.0, 1493.0, 1493.0, 1493.0, 1493.0, 1493.0, 1493.0, 1493.0, 1493.0, 1493.0, 1493.0, 1492.0, 1493.0, 1493.0, 1492.0, 1493.0, 1492.0, 1493.0, 1493.0, 1492.0, 1492.0, 1492.0, 1492.0, 1492.0, 1491.0, 1493.0, 1492.0, 1492.0, 1492.0, 1492.0, 1492.0, 1492.0, 1493.0, 1491.0, 1493.0, 1491.0, 1492.0, 1492.0, 1493.0, 1492.0, 1492.0, 1492.0, 1491.0, 1492.0, 1491.0, 1492.0, 1491.0, 1492.0, 1491.0, 1492.0, 1492.0, 1491.0, 1492.0, 1492.0, 1492.0, 1491.0, 1491.0, 1491.0, 1491.0, 1491.0, 1492.0, 1491.0, 1491.0, 1490.0, 1491.0, 1490.0, 1490.0, 1492.0, 1491.0, 1491.0, 1492.0, 1491.0, 1491.0, 1491.0, 1490.0, 1490.0, 1490.0, 1491.0, 1490.0, 1490.0, 1491.0, 1491.0, 1491.0, 1490.0, 1490.0, 1491.0, 1490.0, 1490.0, 1491.0, 1490.0, 1490.0, 1491.0, 1491.0, 1490.0, 1491.0, 1490.0, 1490.0, 1490.0, 1490.0, 1490.0, 1489.0, 1490.0, 1490.0, 1490.0, 1489.0, 1490.0, 1489.0, 1490.0, 1489.0, 1490.0, 1489.0, 1489.0, 1489.0, 1489.0, 1490.0, 1490.0, 1490.0, 1490.0, 1490.0, 1489.0, 1490.0, 1490.0, 1489.0, 1490.0, 1489.0, 1490.0, 1489.0, 1489.0, 1489.0, 1489.0, 1490.0, 1489.0, 1490.0, 1490.0, 1489.0, 1489.0, 1489.0, 1488.0, 1489.0, 1489.0, 1489.0, 1489.0, 1489.0, 1488.0, 1489.0, 1489.0, 1489.0, 1490.0, 1488.0, 1488.0, 1488.0, 1489.0, 1489.0, 1489.0, 1488.0, 1489.0, 1488.0, 1489.0, 1489.0, 1489.0, 1488.0, 1489.0, 1488.0, 1489.0, 1489.0, 1489.0, 1488.0, 1489.0, 1489.0, 1489.0, 1488.0, 1488.0, 1488.0, 1488.0, 1488.0, 1489.0, 1489.0, 1488.0, 1488.0, 1488.0, 1488.0, 1488.0, 1488.0],
      "WindowWidth": [3386.0, 3385.0, 3385.0, 3384.0, 3385.0, 3384.0, 3384.0, 3384.0, 3384.0, 3384.0, 3384.0, 3384.0, 3384.0, 3385.0, 3384.0, 3384.0, 3384.0, 3384.0, 3384.0, 3384.0, 3384.0, 3384.0, 3384.0, 3384.0, 3384.0, 3384.0, 3384.0, 3384.0, 3385.0, 3384.0, 3385.0, 3385.0, 3385.0, 3385.0, 3385.0, 3384.0, 3385.0, 3385.0, 3385.0, 3385.0, 3385.0, 3385.0, 3384.0, 3385.0, 3385.0, 3385.0, 3385.0, 3385.0, 3385.0, 3385.0, 3385.0, 3385.0, 3385.0, 3385.0, 3385.0, 3385.0, 3385.0, 3385.0, 3385.0, 3385.0, 3385.0, 3385.0, 3385.0, 3385.0, 3385.0, 3385.0, 3385.0, 3385.0, 3385.0, 3385.0, 3385.0, 3385.0, 3385.0, 3385.0, 3385.0, 3386.0, 3385.0, 3385.0, 3385.0, 3385.0, 3385.0, 3385.0, 3385.0, 3385.0, 3385.0, 3385.0, 3385.0, 3385.0, 3385.0, 3385.0, 3385.0, 3385.0, 3385.0, 3385.0, 3385.0, 3385.0, 3385.0, 3384.0, 3385.0, 3384.0, 3385.0, 3385.0, 3384.0, 3385.0, 3385.0, 3384.0, 3385.0, 3385.0, 3384.0, 3384.0, 3384.0, 3384.0, 3384.0, 3385.0, 3384.0, 3385.0, 3384.0, 3385.0, 3384.0, 3384.0, 3384.0, 3385.0, 3384.0, 3385.0, 3384.0, 3385.0, 3384.0, 3385.0, 3385.0, 3385.0, 3385.0, 3384.0, 3384.0, 3384.0, 3384.0, 3384.0, 3385.0, 3384.0, 3384.0, 3385.0, 3384.0, 3385.0, 3384.0, 3385.0, 3385.0, 3385.0, 3384.0, 3384.0, 3384.0, 3384.0, 3384.0, 3385.0, 3385.0, 3384.0, 3385.0, 3385.0, 3384.0, 3385.0, 3384.0, 3384.0, 3385.0, 3384.0, 3384.0, 3384.0, 3384.0, 3384.0, 3385.0, 3385.0, 3385.0, 3384.0, 3385.0, 3385.0, 3384.0, 3385.0, 3384.0, 3384.0, 3384.0, 3385.0, 3384.0, 3385.0, 3384.0, 3384.0, 3384.0, 3385.0, 3384.0, 3384.0, 3384.0, 3384.0, 3384.0, 3384.0, 3384.0, 3384.0, 3384.0, 3384.0, 3385.0, 3384.0, 3384.0, 3384.0, 3385.0, 3384.0]
    },
    "slices": {}
  }
}