{
  "AcquisitionMatrixPE": 80,
  "AcquisitionNumber": 1,
  "AcquisitionTime": "12:16:11.212500",
  "BandwidthPerPixelPhaseEncode": 48.077,
  "BaseResolution": 80,
  "BodyPartExamined": "BRAIN",
  "CoilCombinationMethod": "Sum of Squares",
  "ConsistencyInfo": "N4_VE11C_LATEST_20160120",
  "ConversionSoftware": "dcm2niix",
  "ConversionSoftwareVersion": "v1.0.20220720",
  "DerivedVendorReportedEchoSpacing": 0.000519999,
  "DeviceSerialNumber": "66112",
  "DwellTime": 2.7e-06,
  "EchoTime": 0.035,
  "EchoTrainLength": 39,
  "EffectiveEchoSpacing": 0.00026,
  "FlipAngle": 90,
  "HeudiconvVersion": "0.13.1",
  "ImageOrientationPatientDICOM": [0.98121, 0.192451, 0.0138066, -0.187531, 0.934397, 0.302878],
  "ImageOrientationText": "Tra>Cor(17.5)>Sag(-2.6)",
  "ImageType": [
    "ORIGINAL",
    "PRIMARY",
    "M",
    "ND",
    "NORM",
    "MOSAIC"
],
  "ImagingFrequency": 123.252,
  "InPlanePhaseEncodingDirectionDICOM": "COL",
  "InstitutionAddress": "Maynard 3,Hanover,NH,US,03755",
  "InstitutionName": "Dartmouth College - PBS",
  "InstitutionalDepartmentName": "Department",
  "MRAcquisitionType": "2D",
  "MagneticFieldStrength": 3,
  "Manufacturer": "Siemens",
  "ManufacturersModelName": "Prisma",
  "MatrixCoilMode": "GRAPPA",
  "Modality": "MR",
  "NonlinearGradientCorrection": false,
  "ParallelReductionFactorInPlane": 2,
  "PartialFourier": 1,
  "PatientPosition": "HFS",
  "PercentPhaseFOV": 100,
  "PercentSampling": 100,
  "PhaseEncodingDirection": "j-",
  "PhaseEncodingSteps": 79,
  "PhaseResolution": 1,
  "PixelBandwidth": 2315,
  "ProcedureStepDescription": "dbic^QA",
  "ProtocolName": "func-bold_task-rest_acq-p2",
  "PulseSequenceDetails": "%SiemensSeq%\\ep2d_bold",
  "ReceiveCoilActiveElements": "HEA;HEP",
  "ReceiveCoilName": "Head_32",
  "ReconMatrixPE": 80,
  "RefLinesPE": 24,
  "RepetitionTime": 2,
  "SAR": 0.0556456,
  "ScanOptions": "FS",
  "ScanningSequence": "EP",
  "SequenceName": "*epfid2d1_80",
  "SequenceVariant": "SK",
  "SeriesDescription": "func-bold_task-rest_acq-p2",
  "SeriesNumber": 5,
  "ShimSetting": [4150, -7695, -7507, 316, -32, -267, -13, 34],
  "SliceThickness": 3.5,
  "SliceTiming": [0.99, 0, 1.055, 0.065, 1.1225, 0.1325, 1.1875, 0.1975, 1.2525, 0.265, 1.32, 0.33, 1.385, 0.395, 1.4525, 0.4625, 1.5175, 0.5275, 1.5825, 0.5925, 1.65, 0.66, 1.715, 0.725, 1.7825, 0.7925, 1.8475, 0.8575, 1.9125, 0.9225],
  "SoftwareVersions": "syngo MR E11",
  "SpacingBetweenSlices": 3.99,
  "StationName": "AWP66112",
  "TaskName": "rest",
  "TotalReadoutTime": 0.02054,
  "TxRefAmp": 229.432,
  "dcmmeta_affine": [
    [-2.9436285495758057, -0.5625922679901123, -0.18109914660453796, 146.17724609375],
    [-0.5773519277572632, 2.803189754486084, 1.196107029914856, -95.82697296142578],
    [0.041419871151447296, -0.9086347818374634, 3.80218768119812, -20.900075912475586],
    [0.0, 0.0, 0.0, 1.0]
],
  "dcmmeta_reorient_transform": [
    [0.0, -1.0, 0.0, 79.0],
    [1.0, 0.0, 0.0, 0.0],
    [0.0, 0.0, 1.0, 0.0],
    [0.0, 0.0, 0.0, 1.0]
],
  "dcmmeta_shape": [80, 80, 30, 200],
  "dcmmeta_slice_dim": 2,
  "dcmmeta_version": 0.6,
  "global": {
    "const": {
      "AccessionNumber": "qa",
      "AcquisitionMatrix": [80, 0, 0, 80],
      "AngioFlag": "N",
      "BitsAllocated": 16,
      "BitsStored": 12,
      "BodyPartExamined": "BRAIN",
      "Columns": 480,
      "EchoNumbers": 1,
      "EchoTime": 35.0,
      "EchoTrainLength": 39,
      "FlipAngle": 90.0,
      "HighBit": 11,
      "ImageOrientationPatient": [0.98120952140537, 0.19245064881675, 0.01380662426025, -0.1875307475417, 0.93439658279661, 0.30287826727002],
      "ImagePositionPatient": [-577.93972307939, -801.73335949905, -282.69316035394],
      "ImageType": [
        "ORIGINAL",
        "PRIMARY",
        "M",
        "ND",
        "NORM",
        "MOSAIC"
],
      "ImagedNucleus": "1H",
      "ImagingFrequency": 123.252407,
      "InPlanePhaseEncodingDirection": "COL",
      "MRAcquisitionType": "2D",
      "MagneticFieldStrength": 3.0,
      "Manufacturer": "SIEMENS",
      "ManufacturerModelName": "Prisma",
      "Modality": "MR",
      "NumberOfAverages": 1.0,
      "NumberOfPhaseEncodingSteps": 79,
      "PercentPhaseFieldOfView": 100.0,
      "PercentSampling": 100.0,
      "PerformedProcedureStepStartTime": "121325.090000",
      "PhotometricInterpretation": "MONOCHROME2",
      "PixelBandwidth": 2315.0,
      "PixelRepresentation": 0,
      "PixelSpacing": [3.0, 3.0],
      "ProtocolName": "func-bold_task-rest_acq-p2",
      "RepetitionTime": 2000.0,
      "Rows": 480,
      "SAR": 0.05564560380865,
      "SamplesPerPixel": 1,
      "ScanOptions": "FS",
      "ScanningSequence": "EP",
      "SequenceName": "*epfid2d1_80",
      "SequenceVariant": "SK",
      "SeriesDescription": "func-bold_task-rest_acq-p2",
      "SeriesNumber": 5,
      "SeriesTime": "121710.045000",
      "SliceLocation": -55.277669317357,
      "SliceThickness": 3.5,
      "SmallestImagePixelValue": 0,
      "SoftwareVersions": "syngo MR E11",
      "SpacingBetweenSlices": 3.9899999054336,
      "SpecificCharacterSet": "ISO_IR 100",
      "StudyID": "93",
      "StudyTime": "121325.008000",
      "TransmitCoilName": "Body",
      "VariableFlipAngleFlag": "N",
      "WindowCenterWidthExplanation": "Algo1",
      "dBdt": 0.0},
    "slices": {}
  },
  "time": {
    "samples": {
      "AcquisitionNumber": [1, 2, 3, 4, 5, 6, 7, 8, 9, 10, 11, 12, 13, 14, 15, 16, 17, 18, 19, 20, 21, 22, 23, 24, 25, 26, 27, 28, 29, 30, 31, 32, 33, 34, 35, 36, 37, 38, 39, 40, 41, 42, 43, 44, 45, 46, 47, 48, 49, 50, 51, 52, 53, 54, 55, 56, 57, 58, 59, 60, 61, 62, 63, 64, 65, 66, 67, 68, 69, 70, 71, 72, 73, 74, 75, 76, 77, 78, 79, 80, 81, 82, 83, 84, 85, 86, 87, 88, 89, 90, 91, 92, 93, 94, 95, 96, 97, 98, 99, 100, 101, 102, 103, 104, 105, 106, 107, 108, 109, 110, 111, 112, 113, 114, 115, 116, 117, 118, 119, 120, 121, 122, 123, 124, 125, 126, 127, 128, 129, 130, 131, 132, 133, 134, 135, 136, 137, 138, 139, 140, 141, 142, 143, 144, 145, 146, 147, 148, 149, 150, 151, 152, 153, 154, 155, 156, 157, 158, 159, 160, 161, 162, 163, 164, 165, 166, 167, 168, 169, 170, 171, 172, 173, 174, 175, 176, 177, 178, 179, 180, 181, 182, 183, 184, 185, 186, 187, 188, 189, 190, 191, 192, 193, 194, 195, 196, 197, 198, 199, 200],
      "AcquisitionTime": ["121611.212500", "121613.212500", "121615.212500", "121617.212500", "121619.212500", "121621.212500", "121623.212500", "121625.212500", "121627.212500", "121629.212500", "121631.212500", "121633.212500", "121635.212500", "121637.212500", "121639.212500", "121641.212500", "121643.212500", "121645.212500", "121647.212500", "121649.212500", "121651.212500", "121653.212500", "121655.212500", "121657.212500", "121659.212500", "121701.212500", "121703.212500", "121705.212500", "121707.212500", "121709.212500", "121711.212500", "121713.212500", "121715.212500", "121717.212500", "121719.212500", "121721.212500", "121723.212500", "121725.212500", "121727.212500", "121729.212500", "121731.212500", "121733.212500", "121735.212500", "121737.212500", "121739.212500", "121741.212500", "121743.212500", "121745.212500", "121747.212500", "121749.212500", "121751.212500", "121753.212500", "121755.212500", "121757.212500", "121759.212500", "121801.212500", "121803.212500", "121805.212500", "121807.212500", "121809.212500", "121811.212500", "121813.212500", "121815.212500", "121817.212500", "121819.212500", "121821.212500", "121823.212500", "121825.212500", "121827.212500", "121829.212500", "121831.212500", "121833.212500", "121835.212500", "121837.212500", "121839.212500", "121841.212500", "121843.212500", "121845.212500", "121847.212500", "121849.212500", "121851.212500", "121853.212500", "121855.212500", "121857.212500", "121859.212500", "121901.212500", "121903.212500", "121905.212500", "121907.212500", "121909.212500", "121911.212500", "121913.212500", "121915.212500", "121917.212500", "121919.212500", "121921.212500", "121923.212500", "121925.212500", "121927.212500", "121929.212500", "121931.212500", "121933.212500", "121935.212500", "121937.212500", "121939.212500", "121941.212500", "121943.212500", "121945.212500", "121947.212500", "121949.212500", "121951.212500", "121953.212500", "121955.212500", "121957.212500", "121959.212500", "122001.212500", "122003.212500", "122005.212500", "122007.212500", "122009.212500", "122011.212500", "122013.212500", "122015.212500", "122017.212500", "122019.212500", "122021.212500", "122023.212500", "122025.212500", "122027.212500", "122029.212500", "122031.212500", "122033.212500", "122035.212500", "122037.212500", "122039.212500", "122041.212500", "122043.212500", "122045.212500", "122047.212500", "122049.212500", "122051.212500", "122053.212500", "122055.212500", "122057.212500", "122059.212500", "122101.212500", "122103.212500", "122105.212500", "122107.212500", "122109.212500", "122111.212500", "122113.212500", "122115.212500", "122117.212500", "122119.212500", "122121.212500", "122123.212500", "122125.212500", "122127.212500", "122129.212500", "122131.212500", "122133.212500", "122135.212500", "122137.212500", "122139.212500", "122141.212500", "122143.212500", "122145.212500", "122147.212500", "122149.212500", "122151.212500", "122153.212500", "122155.212500", "122157.212500", "122159.212500", "122201.212500", "122203.212500", "122205.212500", "122207.212500", "122209.212500", "122211.212500", "122213.212500", "122215.212500", "122217.212500", "122219.212500", "122221.212500", "122223.212500", "122225.212500", "122227.212500", "122229.212500", "122231.212500", "122233.212500", "122235.212500", "122237.212500", "122239.212500", "122241.212500", "122243.212500", "122245.212500", "122247.212500", "122249.212500"],
      "ContentTime": ["121710.049000", "121710.053000", "121710.056000", "121710.058000", "121710.061000", "121710.063000", "121710.066000", "121710.069000", "121710.072000", "121710.074000", "121710.077000", "121710.079000", "121710.082000", "121710.085000", "121710.087000", "121710.090000", "121710.093000", "121710.095000", "121710.098000", "121710.101000", "121710.111000", "121710.114000", "121710.117000", "121710.119000", "121710.122000", "121710.125000", "121710.127000", "121710.130000", "121710.133000", "121750.030000", "121750.032000", "121750.035000", "121750.038000", "121750.040000", "121750.043000", "121750.046000", "121750.049000", "121750.051000", "121750.054000", "121750.056000", "121750.059000", "121750.062000", "121750.064000", "121750.067000", "121750.070000", "121750.072000", "121750.075000", "121750.077000", "121750.080000", "121830.029000", "121830.031000", "121830.034000", "121830.037000", "121830.039000", "121830.042000", "121830.045000", "121830.047000", "121830.050000", "121830.052000", "121830.055000", "121830.058000", "121830.060000", "121830.063000", "121830.065000", "121830.068000", "121830.070000", "121830.073000", "121830.076000", "121830.078000", "121910.030000", "121910.032000", "121910.035000", "121910.038000", "121910.040000", "121910.043000", "121910.046000", "121910.048000", "121910.051000", "121910.053000", "121910.056000", "121910.059000", "121910.061000", "121910.064000", "121910.066000", "121910.069000", "121910.072000", "121910.074000", "121910.077000", "121910.079000", "121950.029000", "121950.033000", "121950.035000", "121950.038000", "121950.041000", "121950.043000", "121950.046000", "121950.049000", "121950.051000", "121950.054000", "121950.057000", "121950.059000", "121950.072000", "121950.074000", "121950.077000", "121950.079000", "121950.082000", "121950.085000", "121950.087000", "121950.090000", "122030.029000", "122030.032000", "122030.034000", "122030.037000", "122030.039000", "122030.042000", "122030.045000", "122030.047000", "122030.050000", "122030.053000", "122030.055000", "122030.058000", "122030.060000", "122030.063000", "122030.065000", "122030.068000", "122030.071000", "122030.073000", "122030.076000", "122030.078000", "122110.029000", "122110.031000", "122110.034000", "122110.037000", "122110.039000", "122110.042000", "122110.045000", "122110.047000", "122110.050000", "122110.052000", "122110.055000", "122110.057000", "122110.060000", "122110.063000", "122110.065000", "122110.068000", "122110.071000", "122110.073000", "122110.076000", "122110.078000", "122150.030000", "122150.041000", "122150.044000", "122150.047000", "122150.049000", "122150.052000", "122150.055000", "122150.057000", "122150.060000", "122150.063000", "122150.065000", "122150.068000", "122150.071000", "122150.073000", "122150.076000", "122150.079000", "122150.081000", "122150.084000", "122150.086000", "122150.089000", "122230.030000", "122230.033000", "122230.035000", "122230.038000", "122230.041000", "122230.044000", "122230.046000", "122230.049000", "122230.051000", "122230.060000", "122230.063000", "122230.065000", "122230.068000", "122230.071000", "122230.073000", "122230.076000", "122230.079000", "122230.081000", "122230.084000", "122230.086000", "122250.924000", "122250.927000", "122250.929000", "122250.932000", "122250.935000", "122250.938000", "122250.940000", "122250.943000", "122250.945000", "122250.948000", "122250.951000"],
      "InstanceCreationTime": ["121710.049000", "121710.053000", "121710.056000", "121710.058000", "121710.061000", "121710.063000", "121710.066000", "121710.069000", "121710.072000", "121710.074000", "121710.077000", "121710.079000", "121710.082000", "121710.085000", "121710.087000", "121710.090000", "121710.093000", "121710.095000", "121710.098000", "121710.101000", "121710.111000", "121710.114000", "121710.117000", "121710.119000", "121710.122000", "121710.125000", "121710.127000", "121710.130000", "121710.133000", "121750.030000", "121750.032000", "121750.035000", "121750.038000", "121750.040000", "121750.043000", "121750.046000", "121750.049000", "121750.051000", "121750.054000", "121750.056000", "121750.059000", "121750.062000", "121750.064000", "121750.067000", "121750.070000", "121750.072000", "121750.075000", "121750.077000", "121750.080000", "121830.029000", "121830.031000", "121830.034000", "121830.037000", "121830.039000", "121830.042000", "121830.045000", "121830.047000", "121830.050000", "121830.052000", "121830.055000", "121830.058000", "121830.060000", "121830.063000", "121830.065000", "121830.068000", "121830.070000", "121830.073000", "121830.076000", "121830.078000", "121910.030000", "121910.032000", "121910.035000", "121910.038000", "121910.040000", "121910.043000", "121910.046000", "121910.048000", "121910.051000", "121910.053000", "121910.056000", "121910.059000", "121910.061000", "121910.064000", "121910.066000", "121910.069000", "121910.072000", "121910.074000", "121910.077000", "121910.079000", "121950.029000", "121950.033000", "121950.035000", "121950.038000", "121950.041000", "121950.043000", "121950.046000", "121950.049000", "121950.051000", "121950.054000", "121950.057000", "121950.059000", "121950.072000", "121950.074000", "121950.077000", "121950.079000", "121950.082000", "121950.085000", "121950.087000", "121950.090000", "122030.029000", "122030.032000", "122030.034000", "122030.037000", "122030.039000", "122030.042000", "122030.045000", "122030.047000", "122030.050000", "122030.053000", "122030.055000", "122030.058000", "122030.060000", "122030.063000", "122030.065000", "122030.068000", "122030.071000", "122030.073000", "122030.076000", "122030.078000", "122110.029000", "122110.031000", "122110.034000", "122110.037000", "122110.039000", "122110.042000", "122110.045000", "122110.047000", "122110.050000", "122110.052000", "122110.055000", "122110.057000", "122110.060000", "122110.063000", "122110.065000", "122110.068000", "122110.071000", "122110.073000", "122110.076000", "122110.078000", "122150.030000", "122150.041000", "122150.044000", "122150.047000", "122150.049000", "122150.052000", "122150.055000", "122150.057000", "122150.060000", "122150.063000", "122150.065000", "122150.068000", "122150.071000", "122150.073000", "122150.076000", "122150.079000", "122150.081000", "122150.084000", "122150.086000", "122150.089000", "122230.030000", "122230.033000", "122230.035000", "122230.038000", "122230.041000", "122230.044000", "122230.046000", "122230.049000", "122230.051000", "122230.060000", "122230.063000", "122230.065000", "122230.068000", "122230.071000", "122230.073000", "122230.076000", "122230.079000", "122230.081000", "122230.084000", "122230.086000", "122250.924000", "122250.927000", "122250.929000", "122250.932000", "122250.935000", "122250.938000", "122250.940000", "122250.943000", "122250.945000", "122250.948000", "122250.951000"],
      "InstanceNumber": [1, 2, 3, 4, 5, 6, 7, 8, 9, 10, 11, 12, 13, 14, 15, 16, 17, 18, 19, 20, 21, 22, 23, 24, 25, 26, 27, 28, 29, 30, 31, 32, 33, 34, 35, 36, 37, 38, 39, 40, 41, 42, 43, 44, 45, 46, 47, 48, 49, 50, 51, 52, 53, 54, 55, 56, 57, 58, 59, 60, 61, 62, 63, 64, 65, 66, 67, 68, 69, 70, 71, 72, 73, 74, 75, 76, 77, 78, 79, 80, 81, 82, 83, 84, 85, 86, 87, 88, 89, 90, 91, 92, 93, 94, 95, 96, 97, 98, 99, 100, 101, 102, 103, 104, 105, 106, 107, 108, 109, 110, 111, 112, 113, 114, 115, 116, 117, 118, 119, 120, 121, 122, 123, 124, 125, 126, 127, 128, 129, 130, 131, 132, 133, 134, 135, 136, 137, 138, 139, 140, 141, 142, 143, 144, 145, 146, 147, 148, 149, 150, 151, 152, 153, 154, 155, 156, 157, 158, 159, 160, 161, 162, 163, 164, 165, 166, 167, 168, 169, 170, 171, 172, 173, 174, 175, 176, 177, 178, 179, 180, 181, 182, 183, 184, 185, 186, 187, 188, 189, 190, 191, 192, 193, 194, 195, 196, 197, 198, 199, 200],
      "LargestImagePixelValue": [2019, 2016, 2016, 2012, 2009, 2008, 2012, 2017, 2011, 2015, 2016, 2016, 2015, 2016, 2011, 2018, 2017, 2018, 2015, 2011, 2011, 2017, 2020, 2014, 2015, 2019, 2023, 2015, 2019, 2016, 2014, 2015, 2013, 2013, 2009, 2018, 2015, 2012, 2013, 2011, 2017, 2017, 2016, 2017, 2018, 2015, 2016, 2013, 2013, 2015, 2015, 2018, 2008, 2014, 2016, 2018, 2009, 2014, 2008, 2010, 2018, 2016, 2019, 2012, 2013, 2019, 2017, 2019, 2015, 2010, 2021, 2012, 2008, 2022, 2016, 2015, 2013, 2015, 2011, 2020, 2016, 2013, 2018, 2008, 2009, 2018, 2010, 2012, 2014, 2017, 2018, 2020, 2015, 2022, 2010, 2019, 2016, 2017, 2014, 2016, 2017, 2010, 2017, 2018, 2011, 2015, 2012, 2010, 2013, 2014, 2010, 2021, 2013, 2019, 2017, 2008, 2019, 2016, 2012, 2015, 2020, 2009, 2021, 2020, 2017, 2007, 2016, 2012, 2021, 2010, 2024, 2014, 2011, 2018, 2020, 2023, 2016, 2016, 2018, 2016, 2019, 2016, 2014, 2017, 2023, 2018, 2014, 2016, 2015, 2021, 2016, 2016, 2010, 2017, 2012, 2021, 2016, 2013, 2015, 2018, 2014, 2016, 2012, 2014, 2017, 2018, 2011, 2021, 2012, 2014, 2014, 2015, 2009, 2020, 2015, 2021, 2012, 2016, 2015, 2016, 2016, 2016, 2017, 2011, 2012, 2018, 2014, 2015, 2009, 2013, 2013, 2014, 2013, 2021, 2016, 2014, 2006, 2020, 2015, 2021],
      "WindowCenter": [976.0, 975.0, 975.0, 975.0, 975.0, 975.0, 976.0, 975.0, 976.0, 975.0, 975.0, 975.0, 975.0, 976.0, 975.0, 975.0, 975.0, 975.0, 975.0, 975.0, 975.0, 975.0, 975.0, 975.0, 975.0, 975.0, 975.0, 975.0, 976.0, 975.0, 975.0, 975.0, 975.0, 975.0, 975.0, 975.0, 976.0, 975.0, 976.0, 975.0, 975.0, 975.0, 975.0, 975.0, 976.0, 975.0, 975.0, 975.0, 975.0, 975.0, 975.0, 975.0, 975.0, 976.0, 975.0, 976.0, 975.0, 975.0, 975.0, 975.0, 976.0, 975.0, 976.0, 975.0, 976.0, 975.0, 975.0, 975.0, 975.0, 975.0, 975.0, 975.0, 975.0, 975.0, 975.0, 975.0, 975.0, 976.0, 976.0, 976.0, 975.0, 975.0, 975.0, 975.0, 975.0, 976.0, 975.0, 975.0, 975.0, 975.0, 975.0, 975.0, 975.0, 976.0, 976.0, 975.0, 975.0, 976.0, 975.0, 975.0, 975.0, 976.0, 975.0, 975.0, 975.0, 975.0, 975.0, 976.0, 975.0, 975.0, 975.0, 975.0, 975.0, 975.0, 976.0, 975.0, 975.0, 975.0, 975.0, 975.0, 975.0, 976.0, 975.0, 976.0, 975.0, 975.0, 975.0, 975.0, 976.0, 975.0, 975.0, 976.0, 975.0, 975.0, 975.0, 975.0, 976.0, 976.0, 975.0, 975.0, 975.0, 975.0, 975.0, 975.0, 975.0, 975.0, 975.0, 975.0, 975.0, 975.0, 975.0, 975.0, 975.0, 975.0, 975.0, 975.0, 975.0, 975.0, 976.0, 975.0, 975.0, 975.0, 975.0, 976.0, 975.0, 975.0, 975.0, 975.0, 976.0, 975.0, 975.0, 975.0, 976.0, 976.0, 975.0, 976.0, 976.0, 975.0, 975.0, 976.0, 975.0, 975.0, 975.0, 975.0, 975.0, 975.0, 975.0, 975.0, 975.0, 975.0, 975.0, 975.0, 975.0, 975.0, 976.0, 976.0, 975.0, 975.0, 975.0, 975.0],
      "WindowWidth": [2131.0, 2130.0, 2130.0, 2130.0, 2130.0, 2129.0, 2130.0, 2130.0, 2130.0, 2129.0, 2130.0, 2130.0, 2130.0, 2130.0, 2130.0, 2130.0, 2130.0, 2130.0, 2130.0, 2130.0, 2130.0, 2130.0, 2130.0, 2130.0, 2130.0, 2130.0, 2130.0, 2130.0, 2130.0, 2130.0, 2130.0, 2130.0, 2130.0, 2130.0, 2130.0, 2130.0, 2130.0, 2129.0, 2130.0, 2129.0, 2129.0, 2129.0, 2129.0, 2129.0, 2130.0, 2129.0, 2129.0, 2129.0, 2129.0, 2129.0, 2129.0, 2129.0, 2129.0, 2129.0, 2129.0, 2129.0, 2129.0, 2129.0, 2129.0, 2129.0, 2130.0, 2129.0, 2129.0, 2129.0, 2129.0, 2129.0, 2129.0, 2129.0, 2129.0, 2129.0, 2129.0, 2129.0, 2129.0, 2129.0, 2129.0, 2129.0, 2129.0, 2130.0, 2129.0, 2130.0, 2129.0, 2129.0, 2129.0, 2129.0, 2129.0, 2130.0, 2129.0, 2129.0, 2129.0, 2129.0, 2129.0, 2129.0, 2129.0, 2129.0, 2130.0, 2129.0, 2129.0, 2129.0, 2129.0, 2129.0, 2129.0, 2130.0, 2129.0, 2129.0, 2129.0, 2129.0, 2129.0, 2130.0, 2129.0, 2129.0, 2129.0, 2128.0, 2129.0, 2129.0, 2130.0, 2129.0, 2129.0, 2129.0, 2129.0, 2129.0, 2129.0, 2129.0, 2129.0, 2129.0, 2129.0, 2129.0, 2129.0, 2129.0, 2130.0, 2129.0, 2129.0, 2130.0, 2129.0, 2129.0, 2129.0, 2129.0, 2130.0, 2130.0, 2129.0, 2129.0, 2129.0, 2129.0, 2129.0, 2130.0, 2129.0, 2129.0, 2129.0, 2129.0, 2129.0, 2129.0, 2129.0, 2129.0, 2130.0, 2129.0, 2129.0, 2130.0, 2129.0, 2129.0, 2129.0, 2129.0, 2129.0, 2129.0, 2129.0, 2130.0, 2130.0, 2129.0, 2129.0, 2129.0, 2130.0, 2130.0, 2129.0, 2130.0, 2130.0, 2130.0, 2129.0, 2130.0, 2130.0, 2129.0, 2129.0, 2130.0, 2129.0, 2130.0, 2129.0, 2129.0, 2129.0, 2129.0, 2129.0, 2129.0, 2129.0, 2129.0, 2129.0, 2129.0, 2129.0, 2129.0, 2129.0, 2129.0, 2129.0, 2129.0, 2129.0, 2129.0]
    },
    "slices": {}
  }
}