{
  "AcquisitionMatrixPE": 80,
  "AcquisitionNumber": 1,
  "AcquisitionTime": "09:57:31.475000",
  "BandwidthPerPixelPhaseEncode": 25,
  "BaseResolution": 80,
  "BodyPartExamined": "BRAIN",
  "CoilCombinationMethod": "Sum of Squares",
  "ConsistencyInfo": "N4_VE11E_LATEST_20181129",
  "ConversionSoftware": "dcm2niix",
  "ConversionSoftwareVersion": "v1.0.20220720",
  "DerivedVendorReportedEchoSpacing": 0.0005,
  "DeviceSerialNumber": "66112",
  "DwellTime": 2.7e-06,
  "EchoTime": 0.03,
  "EchoTrainLength": 80,
  "EffectiveEchoSpacing": 0.0005,
  "FlipAngle": 10,
  "HeudiconvVersion": "0.13.1",
  "ImageOrientationPatientDICOM": [0.99578, -0.0915083, 0.00694509, 0.0846682, 0.945264, 0.315131],
  "ImageOrientationText": "Tra>Cor(18.3)>Sag(2.0)",
  "ImageType": [
    "ORIGINAL",
    "PRIMARY",
    "M",
    "ND",
    "NORM",
    "MOSAIC"
],
  "ImagingFrequency": 123.252,
  "InPlanePhaseEncodingDirectionDICOM": "COL",
  "InstitutionAddress": "Maynard 3,Hanover,NH,US,03755",
  "InstitutionName": "Dartmouth College - PBS",
  "InstitutionalDepartmentName": "Department",
  "MRAcquisitionType": "2D",
  "MagneticFieldStrength": 3,
  "Manufacturer": "Siemens",
  "ManufacturersModelName": "Prisma",
  "MatrixCoilMode": "SENSE",
  "Modality": "MR",
  "NonlinearGradientCorrection": false,
  "PartialFourier": 1,
  "PatientPosition": "HFS",
  "PercentPhaseFOV": 100,
  "PercentSampling": 100,
  "PhaseEncodingDirection": "j-",
  "PhaseEncodingSteps": 80,
  "PhaseResolution": 1,
  "PixelBandwidth": 2315,
  "ProcedureStepDescription": "dbic^QA",
  "ProtocolName": "func-bold_fa-10",
  "PulseSequenceDetails": "%SiemensSeq%\\ep2d_bold",
  "ReceiveCoilActiveElements": "HEA;HEP",
  "ReceiveCoilName": "Head_32",
  "ReconMatrixPE": 80,
  "RepetitionTime": 2,
  "SAR": 0.0115759,
  "ScanOptions": "FS",
  "ScanningSequence": "EP",
  "SequenceName": "*epfid2d1_80",
  "SequenceVariant": "SK",
  "SeriesDescription": "func-bold_fa-10",
  "SeriesNumber": 10,
  "ShimSetting": [4144, -7702, -7512, 270, -60, -100, -43, 65],
  "SliceThickness": 3.5,
  "SliceTiming": [0.99, 0, 1.0575, 0.0675, 1.1225, 0.1325, 1.19, 0.2, 1.255, 0.265, 1.32, 0.33, 1.3875, 0.3975, 1.4525, 0.4625, 1.52, 0.53, 1.585, 0.595, 1.65, 0.66, 1.7175, 0.7275, 1.7825, 0.7925, 1.8475, 0.86, 1.915, 0.925],
  "SoftwareVersions": "syngo MR E11",
  "SpacingBetweenSlices": 3.99,
  "StationName": "AWP66112",
  "TotalReadoutTime": 0.0395,
  "TxRefAmp": 222.752,
  "dcmmeta_affine": [
    [-2.987340211868286, 0.254004567861557, 0.1412540078163147, 109.1512222290039],
    [0.2745249271392822, 2.835792064666748, 1.2497185468673706, -128.78269958496094],
    [0.020835282281041145, -0.9453915357589722, 3.7866015434265137, -21.19774627685547],
    [0.0, 0.0, 0.0, 1.0]
],
  "dcmmeta_reorient_transform": [
    [0.0, -1.0, 0.0, 79.0],
    [1.0, 0.0, 0.0, 0.0],
    [0.0, 0.0, 1.0, 0.0],
    [0.0, 0.0, 0.0, 1.0]
],
  "dcmmeta_shape": [80, 80, 30, 200],
  "dcmmeta_slice_dim": 2,
  "dcmmeta_version": 0.6,
  "global": {
    "const": {
      "AccessionNumber": "qa",
      "AcquisitionMatrix": [80, 0, 0, 80],
      "AngioFlag": "N",
      "BitsAllocated": 16,
      "BitsStored": 12,
      "BodyPartExamined": "BRAIN",
      "Columns": 480,
      "EchoNumbers": 1,
      "EchoTime": 30.0,
      "EchoTrainLength": 80,
      "FlipAngle": 10.0,
      "HighBit": 11,
      "ImageOrientationPatient": [0.99578009371357, -0.0915083090641, 0.00694509438504, 0.08466819234181, 0.94526401515522, 0.31513051083352],
      "ImagePositionPatient": [-777.48655261554, -607.49829593136, -289.1290396392],
      "ImageType": [
        "ORIGINAL",
        "PRIMARY",
        "M",
        "ND",
        "NORM",
        "MOSAIC"
],
      "ImagedNucleus": "1H",
      "ImagingFrequency": 123.252355,
      "InPlanePhaseEncodingDirection": "COL",
      "MRAcquisitionType": "2D",
      "MagneticFieldStrength": 3.0,
      "Manufacturer": "SIEMENS",
      "ManufacturerModelName": "Prisma",
      "Modality": "MR",
      "NumberOfAverages": 1.0,
      "NumberOfPhaseEncodingSteps": 80,
      "PercentPhaseFieldOfView": 100.0,
      "PercentSampling": 100.0,
      "PerformedProcedureStepStartTime": "093248.553000",
      "PhotometricInterpretation": "MONOCHROME2",
      "PixelBandwidth": 2315.0,
      "PixelRepresentation": 0,
      "PixelSpacing": [3.0, 3.0],
      "ProtocolName": "func-bold_fa-10",
      "RepetitionTime": 2000.0,
      "Rows": 480,
      "SAR": 0.01157594059485,
      "SamplesPerPixel": 1,
      "ScanOptions": "FS",
      "ScanningSequence": "EP",
      "SequenceName": "*epfid2d1_80",
      "SequenceVariant": "SK",
      "SeriesDescription": "func-bold_fa-10",
      "SeriesNumber": 10,
      "SeriesTime": "095823.626000",
      "SliceLocation": -56.58934615024,
      "SliceThickness": 3.5,
      "SmallestImagePixelValue": 0,
      "SoftwareVersions": "syngo MR E11",
      "SpacingBetweenSlices": 3.989999987615,
      "SpecificCharacterSet": "ISO_IR 100",
      "StudyID": "6",
      "StudyTime": "093248.515000",
      "TransmitCoilName": "Body",
      "VariableFlipAngleFlag": "N",
      "WindowCenterWidthExplanation": "Algo1"
    },
    "slices": {}
  },
  "time": {
    "samples": {
      "AcquisitionNumber": [1, 2, 3, 4, 5, 6, 7, 8, 9, 10, 11, 12, 13, 14, 15, 16, 17, 18, 19, 20, 21, 22, 23, 24, 25, 26, 27, 28, 29, 30, 31, 32, 33, 34, 35, 36, 37, 38, 39, 40, 41, 42, 43, 44, 45, 46, 47, 48, 49, 50, 51, 52, 53, 54, 55, 56, 57, 58, 59, 60, 61, 62, 63, 64, 65, 66, 67, 68, 69, 70, 71, 72, 73, 74, 75, 76, 77, 78, 79, 80, 81, 82, 83, 84, 85, 86, 87, 88, 89, 90, 91, 92, 93, 94, 95, 96, 97, 98, 99, 100, 101, 102, 103, 104, 105, 106, 107, 108, 109, 110, 111, 112, 113, 114, 115, 116, 117, 118, 119, 120, 121, 122, 123, 124, 125, 126, 127, 128, 129, 130, 131, 132, 133, 134, 135, 136, 137, 138, 139, 140, 141, 142, 143, 144, 145, 146, 147, 148, 149, 150, 151, 152, 153, 154, 155, 156, 157, 158, 159, 160, 161, 162, 163, 164, 165, 166, 167, 168, 169, 170, 171, 172, 173, 174, 175, 176, 177, 178, 179, 180, 181, 182, 183, 184, 185, 186, 187, 188, 189, 190, 191, 192, 193, 194, 195, 196, 197, 198, 199, 200],
      "AcquisitionTime": ["095731.475000", "095733.475000", "095735.475000", "095737.475000", "095739.475000", "095741.475000", "095743.475000", "095745.475000", "095747.475000", "095749.475000", "095751.475000", "095753.475000", "095755.475000", "095757.475000", "095759.475000", "095801.475000", "095803.475000", "095805.475000", "095807.475000", "095809.475000", "095811.475000", "095813.475000", "095815.475000", "095817.475000", "095819.475000", "095821.475000", "095823.475000", "095825.475000", "095827.475000", "095829.475000", "095831.475000", "095833.475000", "095835.475000", "095837.475000", "095839.475000", "095841.475000", "095843.475000", "095845.475000", "095847.475000", "095849.475000", "095851.475000", "095853.475000", "095855.475000", "095857.475000", "095859.475000", "095901.475000", "095903.475000", "095905.475000", "095907.475000", "095909.475000", "095911.475000", "095913.475000", "095915.475000", "095917.475000", "095919.475000", "095921.475000", "095923.475000", "095925.475000", "095927.475000", "095929.475000", "095931.475000", "095933.475000", "095935.475000", "095937.475000", "095939.475000", "095941.475000", "095943.475000", "095945.475000", "095947.475000", "095949.475000", "095951.475000", "095953.475000", "095955.475000", "095957.475000", "095959.475000", "100001.475000", "100003.475000", "100005.475000", "100007.475000", "100009.475000", "100011.475000", "100013.475000", "100015.475000", "100017.475000", "100019.475000", "100021.475000", "100023.475000", "100025.475000", "100027.475000", "100029.475000", "100031.475000", "100033.475000", "100035.475000", "100037.475000", "100039.475000", "100041.475000", "100043.475000", "100045.475000", "100047.475000", "100049.475000", "100051.475000", "100053.475000", "100055.475000", "100057.475000", "100059.475000", "100101.475000", "100103.475000", "100105.475000", "100107.475000", "100109.475000", "100111.475000", "100113.475000", "100115.475000", "100117.475000", "100119.475000", "100121.475000", "100123.475000", "100125.475000", "100127.475000", "100129.475000", "100131.475000", "100133.475000", "100135.475000", "100137.475000", "100139.475000", "100141.475000", "100143.475000", "100145.475000", "100147.475000", "100149.475000", "100151.475000", "100153.475000", "100155.475000", "100157.475000", "100159.475000", "100201.475000", "100203.475000", "100205.475000", "100207.475000", "100209.475000", "100211.475000", "100213.475000", "100215.475000", "100217.475000", "100219.475000", "100221.475000", "100223.475000", "100225.475000", "100227.475000", "100229.475000", "100231.475000", "100233.475000", "100235.475000", "100237.475000", "100239.475000", "100241.475000", "100243.475000", "100245.475000", "100247.475000", "100249.475000", "100251.475000", "100253.475000", "100255.475000", "100257.475000", "100259.475000", "100301.475000", "100303.475000", "100305.475000", "100307.475000", "100309.475000", "100311.475000", "100313.475000", "100315.475000", "100317.475000", "100319.475000", "100321.475000", "100323.475000", "100325.475000", "100327.475000", "100329.475000", "100331.475000", "100333.475000", "100335.475000", "100337.475000", "100339.475000", "100341.475000", "100343.475000", "100345.475000", "100347.475000", "100349.475000", "100351.475000", "100353.475000", "100355.475000", "100357.475000", "100359.475000", "100401.475000", "100403.475000", "100405.475000", "100407.475000", "100409.475000"],
      "ContentTime": ["095823.630000", "095823.644000", "095823.646000", "095823.648000", "095823.650000", "095823.653000", "095823.655000", "095823.657000", "095823.660000", "095823.662000", "095823.664000", "095823.667000", "095823.669000", "095823.671000", "095823.673000", "095823.676000", "095823.678000", "095823.680000", "095823.683000", "095823.685000", "095823.687000", "095823.689000", "095823.692000", "095823.694000", "095823.696000", "095823.699000", "095903.625000", "095903.628000", "095903.630000", "095903.632000", "095903.635000", "095903.637000", "095903.639000", "095903.642000", "095903.644000", "095903.646000", "095903.648000", "095903.651000", "095903.653000", "095903.655000", "095903.666000", "095903.668000", "095903.671000", "095903.673000", "095903.675000", "095903.678000", "095943.625000", "095943.628000", "095943.630000", "095943.632000", "095943.635000", "095943.637000", "095943.639000", "095943.641000", "095943.644000", "095943.646000", "095943.648000", "095943.651000", "095943.653000", "095943.655000", "095943.658000", "095943.660000", "095943.662000", "095943.664000", "095943.667000", "095943.669000", "100023.625000", "100023.628000", "100023.630000", "100023.632000", "100023.635000", "100023.637000", "100023.639000", "100023.642000", "100023.644000", "100023.646000", "100023.648000", "100023.651000", "100023.653000", "100023.655000", "100023.658000", "100023.660000", "100023.662000", "100023.664000", "100023.667000", "100023.669000", "100103.625000", "100103.628000", "100103.630000", "100103.632000", "100103.635000", "100103.637000", "100103.639000", "100103.642000", "100103.644000", "100103.646000", "100103.649000", "100103.651000", "100103.653000", "100103.656000", "100103.658000", "100103.660000", "100103.663000", "100103.665000", "100103.667000", "100103.669000", "100143.625000", "100143.628000", "100143.630000", "100143.632000", "100143.635000", "100143.637000", "100143.639000", "100143.642000", "100143.644000", "100143.646000", "100143.648000", "100143.651000", "100143.653000", "100143.656000", "100143.658000", "100143.660000", "100143.662000", "100143.665000", "100143.667000", "100143.669000", "100223.625000", "100223.628000", "100223.630000", "100223.632000", "100223.635000", "100223.637000", "100223.639000", "100223.642000", "100223.644000", "100223.646000", "100223.649000", "100223.651000", "100223.654000", "100223.656000", "100223.658000", "100223.661000", "100223.663000", "100223.665000", "100223.667000", "100223.670000", "100303.625000", "100303.628000", "100303.630000", "100303.632000", "100303.635000", "100303.637000", "100303.639000", "100303.642000", "100303.644000", "100303.646000", "100303.649000", "100303.651000", "100303.653000", "100303.655000", "100303.658000", "100303.660000", "100303.662000", "100303.665000", "100303.667000", "100303.669000", "100323.625000", "100323.628000", "100323.630000", "100323.633000", "100323.635000", "100323.637000", "100323.640000", "100323.642000", "100323.644000", "100323.647000", "100403.625000", "100403.628000", "100403.630000", "100403.632000", "100403.635000", "100403.637000", "100403.639000", "100403.642000", "100403.644000", "100403.646000", "100403.648000", "100403.651000", "100403.653000", "100403.655000", "100403.658000", "100403.660000", "100403.662000", "100403.665000", "100403.667000", "100403.669000", "100410.740000", "100410.742000", "100410.745000", "100410.747000"],
      "InstanceCreationTime": ["095823.630000", "095823.644000", "095823.646000", "095823.648000", "095823.650000", "095823.653000", "095823.655000", "095823.657000", "095823.660000", "095823.662000", "095823.664000", "095823.667000", "095823.669000", "095823.671000", "095823.673000", "095823.676000", "095823.678000", "095823.680000", "095823.683000", "095823.685000", "095823.687000", "095823.689000", "095823.692000", "095823.694000", "095823.696000", "095823.699000", "095903.625000", "095903.628000", "095903.630000", "095903.632000", "095903.635000", "095903.637000", "095903.639000", "095903.642000", "095903.644000", "095903.646000", "095903.648000", "095903.651000", "095903.653000", "095903.655000", "095903.666000", "095903.668000", "095903.671000", "095903.673000", "095903.675000", "095903.678000", "095943.625000", "095943.628000", "095943.630000", "095943.632000", "095943.635000", "095943.637000", "095943.639000", "095943.641000", "095943.644000", "095943.646000", "095943.648000", "095943.651000", "095943.653000", "095943.655000", "095943.658000", "095943.660000", "095943.662000", "095943.664000", "095943.667000", "095943.669000", "100023.625000", "100023.628000", "100023.630000", "100023.632000", "100023.635000", "100023.637000", "100023.639000", "100023.642000", "100023.644000", "100023.646000", "100023.648000", "100023.651000", "100023.653000", "100023.655000", "100023.658000", "100023.660000", "100023.662000", "100023.664000", "100023.667000", "100023.669000", "100103.625000", "100103.628000", "100103.630000", "100103.632000", "100103.635000", "100103.637000", "100103.639000", "100103.642000", "100103.644000", "100103.646000", "100103.649000", "100103.651000", "100103.653000", "100103.656000", "100103.658000", "100103.660000", "100103.663000", "100103.665000", "100103.667000", "100103.669000", "100143.625000", "100143.628000", "100143.630000", "100143.632000", "100143.635000", "100143.637000", "100143.639000", "100143.642000", "100143.644000", "100143.646000", "100143.648000", "100143.651000", "100143.653000", "100143.656000", "100143.658000", "100143.660000", "100143.662000", "100143.665000", "100143.667000", "100143.669000", "100223.625000", "100223.628000", "100223.630000", "100223.632000", "100223.635000", "100223.637000", "100223.639000", "100223.642000", "100223.644000", "100223.646000", "100223.649000", "100223.651000", "100223.654000", "100223.656000", "100223.658000", "100223.661000", "100223.663000", "100223.665000", "100223.667000", "100223.670000", "100303.625000", "100303.628000", "100303.630000", "100303.632000", "100303.635000", "100303.637000", "100303.639000", "100303.642000", "100303.644000", "100303.646000", "100303.649000", "100303.651000", "100303.653000", "100303.655000", "100303.658000", "100303.660000", "100303.662000", "100303.665000", "100303.667000", "100303.669000", "100323.625000", "100323.628000", "100323.630000", "100323.633000", "100323.635000", "100323.637000", "100323.640000", "100323.642000", "100323.644000", "100323.647000", "100403.625000", "100403.628000", "100403.630000", "100403.632000", "100403.635000", "100403.637000", "100403.639000", "100403.642000", "100403.644000", "100403.646000", "100403.648000", "100403.651000", "100403.653000", "100403.655000", "100403.658000", "100403.660000", "100403.662000", "100403.665000", "100403.667000", "100403.669000", "100410.740000", "100410.742000", "100410.745000", "100410.747000"],
      "InstanceNumber": [1, 2, 3, 4, 5, 6, 7, 8, 9, 10, 11, 12, 13, 14, 15, 16, 17, 18, 19, 20, 21, 22, 23, 24, 25, 26, 27, 28, 29, 30, 31, 32, 33, 34, 35, 36, 37, 38, 39, 40, 41, 42, 43, 44, 45, 46, 47, 48, 49, 50, 51, 52, 53, 54, 55, 56, 57, 58, 59, 60, 61, 62, 63, 64, 65, 66, 67, 68, 69, 70, 71, 72, 73, 74, 75, 76, 77, 78, 79, 80, 81, 82, 83, 84, 85, 86, 87, 88, 89, 90, 91, 92, 93, 94, 95, 96, 97, 98, 99, 100, 101, 102, 103, 104, 105, 106, 107, 108, 109, 110, 111, 112, 113, 114, 115, 116, 117, 118, 119, 120, 121, 122, 123, 124, 125, 126, 127, 128, 129, 130, 131, 132, 133, 134, 135, 136, 137, 138, 139, 140, 141, 142, 143, 144, 145, 146, 147, 148, 149, 150, 151, 152, 153, 154, 155, 156, 157, 158, 159, 160, 161, 162, 163, 164, 165, 166, 167, 168, 169, 170, 171, 172, 173, 174, 175, 176, 177, 178, 179, 180, 181, 182, 183, 184, 185, 186, 187, 188, 189, 190, 191, 192, 193, 194, 195, 196, 197, 198, 199, 200],
      "LargestImagePixelValue": [321, 324, 322, 322, 320, 323, 325, 320, 324, 324, 321, 321, 323, 320, 320, 323, 321, 324, 326, 324, 321, 325, 319, 323, 322, 322, 320, 324, 320, 322, 321, 323, 321, 321, 321, 322, 321, 325, 324, 321, 324, 323, 322, 321, 324, 325, 320, 321, 320, 324, 325, 323, 323, 321, 320, 321, 321, 323, 321, 325, 323, 321, 320, 324, 321, 320, 319, 321, 322, 321, 325, 319, 321, 323, 321, 323, 322, 322, 322, 322, 322, 323, 320, 320, 322, 323, 319, 324, 323, 319, 322, 323, 321, 322, 319, 321, 322, 324, 321, 323, 322, 321, 322, 321, 322, 326, 320, 320, 320, 325, 321, 322, 324, 322, 323, 320, 323, 324, 325, 319, 323, 320, 320, 320, 325, 322, 322, 320, 325, 322, 325, 324, 321, 322, 321, 320, 321, 321, 322, 322, 320, 321, 322, 319, 322, 320, 321, 322, 323, 322, 323, 321, 321, 320, 322, 321, 322, 324, 321, 322, 321, 323, 320, 320, 319, 321, 320, 322, 323, 322, 321, 323, 323, 322, 321, 321, 322, 321, 324, 320, 324, 320, 319, 325, 319, 322, 321, 321, 319, 319, 319, 321, 319, 323, 320, 319, 320, 321, 321, 319],
      "WindowCenter": [269.0, 269.0, 269.0, 269.0, 269.0, 269.0, 269.0, 269.0, 269.0, 269.0, 269.0, 269.0, 269.0, 269.0, 269.0, 269.0, 269.0, 269.0, 269.0, 269.0, 269.0, 269.0, 269.0, 269.0, 269.0, 269.0, 269.0, 269.0, 269.0, 268.0, 269.0, 269.0, 269.0, 269.0, 269.0, 269.0, 269.0, 269.0, 269.0, 269.0, 269.0, 269.0, 269.0, 269.0, 268.0, 269.0, 269.0, 268.0, 269.0, 269.0, 269.0, 269.0, 269.0, 269.0, 269.0, 269.0, 269.0, 269.0, 269.0, 269.0, 269.0, 269.0, 269.0, 269.0, 269.0, 269.0, 269.0, 269.0, 269.0, 269.0, 268.0, 268.0, 269.0, 269.0, 269.0, 269.0, 269.0, 269.0, 269.0, 269.0, 269.0, 269.0, 268.0, 269.0, 269.0, 269.0, 269.0, 269.0, 269.0, 269.0, 269.0, 269.0, 269.0, 269.0, 269.0, 269.0, 269.0, 269.0, 269.0, 269.0, 269.0, 269.0, 269.0, 269.0, 269.0, 269.0, 269.0, 269.0, 269.0, 268.0, 269.0, 269.0, 269.0, 269.0, 269.0, 269.0, 269.0, 269.0, 269.0, 269.0, 269.0, 269.0, 268.0, 268.0, 269.0, 269.0, 269.0, 269.0, 269.0, 268.0, 269.0, 268.0, 268.0, 269.0, 269.0, 269.0, 269.0, 268.0, 269.0, 269.0, 269.0, 269.0, 268.0, 269.0, 269.0, 269.0, 269.0, 269.0, 269.0, 269.0, 268.0, 269.0, 269.0, 269.0, 269.0, 269.0, 268.0, 268.0, 268.0, 268.0, 269.0, 269.0, 269.0, 268.0, 268.0, 268.0, 269.0, 269.0, 269.0, 268.0, 268.0, 268.0, 268.0, 269.0, 269.0, 268.0, 268.0, 268.0, 268.0, 268.0, 269.0, 269.0, 269.0, 268.0, 268.0, 268.0, 269.0, 269.0, 268.0, 268.0, 268.0, 268.0, 268.0, 268.0, 269.0, 269.0, 268.0, 268.0, 268.0, 268.0],
      "WindowWidth": [592.0, 592.0, 592.0, 592.0, 592.0, 592.0, 592.0, 592.0, 592.0, 591.0, 591.0, 592.0, 592.0, 592.0, 592.0, 592.0, 592.0, 591.0, 592.0, 592.0, 592.0, 592.0, 592.0, 592.0, 592.0, 592.0, 592.0, 592.0, 591.0, 591.0, 592.0, 591.0, 592.0, 591.0, 592.0, 592.0, 591.0, 592.0, 592.0, 592.0, 592.0, 592.0, 591.0, 591.0, 591.0, 592.0, 592.0, 591.0, 592.0, 592.0, 591.0, 592.0, 592.0, 591.0, 592.0, 591.0, 591.0, 591.0, 591.0, 591.0, 592.0, 591.0, 591.0, 592.0, 592.0, 592.0, 592.0, 592.0, 591.0, 591.0, 590.0, 591.0, 591.0, 592.0, 591.0, 592.0, 591.0, 591.0, 592.0, 591.0, 591.0, 592.0, 591.0, 591.0, 591.0, 591.0, 592.0, 591.0, 591.0, 591.0, 591.0, 591.0, 592.0, 591.0, 591.0, 591.0, 591.0, 591.0, 591.0, 591.0, 591.0, 592.0, 591.0, 591.0, 591.0, 591.0, 592.0, 591.0, 591.0, 590.0, 591.0, 591.0, 591.0, 592.0, 591.0, 591.0, 591.0, 591.0, 591.0, 591.0, 591.0, 592.0, 590.0, 591.0, 591.0, 591.0, 591.0, 591.0, 591.0, 590.0, 591.0, 590.0, 590.0, 592.0, 591.0, 591.0, 591.0, 590.0, 591.0, 592.0, 591.0, 591.0, 591.0, 591.0, 591.0, 591.0, 591.0, 592.0, 591.0, 591.0, 590.0, 591.0, 591.0, 591.0, 591.0, 591.0, 590.0, 590.0, 590.0, 590.0, 591.0, 591.0, 591.0, 590.0, 590.0, 590.0, 591.0, 591.0, 591.0, 590.0, 590.0, 590.0, 590.0, 591.0, 591.0, 590.0, 590.0, 590.0, 590.0, 591.0, 591.0, 591.0, 591.0, 590.0, 590.0, 590.0, 591.0, 591.0, 590.0, 591.0, 590.0, 590.0, 590.0, 590.0, 591.0, 591.0, 590.0, 590.0, 590.0, 590.0]
    },
    "slices": {}
  }
}