{
  "AcquisitionMatrixPE": 80,
  "AcquisitionNumber": 1,
  "AcquisitionTime": "09:50:44.487500",
  "BandwidthPerPixelPhaseEncode": 25,
  "BaseResolution": 80,
  "BodyPartExamined": "BRAIN",
  "CoilCombinationMethod": "Sum of Squares",
  "ConsistencyInfo": "N4_VE11E_LATEST_20181129",
  "ConversionSoftware": "dcm2niix",
  "ConversionSoftwareVersion": "v1.0.20220720",
  "DerivedVendorReportedEchoSpacing": 0.0005,
  "DeviceSerialNumber": "66112",
  "DwellTime": 2.7e-06,
  "EchoTime": 0.03,
  "EchoTrainLength": 80,
  "EffectiveEchoSpacing": 0.0005,
  "FlipAngle": 77,
  "HeudiconvVersion": "0.13.1",
  "ImageOrientationPatientDICOM": [0.99578, -0.0915083, 0.00694509, 0.0846682, 0.945264, 0.315131],
  "ImageOrientationText": "Tra>Cor(18.3)>Sag(2.0)",
  "ImageType": [
    "ORIGINAL",
    "PRIMARY",
    "M",
    "ND",
    "NORM",
    "MOSAIC"
],
  "ImagingFrequency": 123.252,
  "InPlanePhaseEncodingDirectionDICOM": "COL",
  "InstitutionAddress": "Maynard 3,Hanover,NH,US,03755",
  "InstitutionName": "Dartmouth College - PBS",
  "InstitutionalDepartmentName": "Department",
  "MRAcquisitionType": "2D",
  "MagneticFieldStrength": 3,
  "Manufacturer": "Siemens",
  "ManufacturersModelName": "Prisma",
  "MatrixCoilMode": "SENSE",
  "Modality": "MR",
  "NonlinearGradientCorrection": false,
  "PartialFourier": 1,
  "PatientPosition": "HFS",
  "PercentPhaseFOV": 100,
  "PercentSampling": 100,
  "PhaseEncodingDirection": "j-",
  "PhaseEncodingSteps": 80,
  "PhaseResolution": 1,
  "PixelBandwidth": 2315,
  "ProcedureStepDescription": "dbic^QA",
  "ProtocolName": "func-bold_fa-77",
  "PulseSequenceDetails": "%SiemensSeq%\\ep2d_bold",
  "ReceiveCoilActiveElements": "HEA;HEP",
  "ReceiveCoilName": "Head_32",
  "ReconMatrixPE": 80,
  "RepetitionTime": 2,
  "SAR": 0.0431537,
  "ScanOptions": "FS",
  "ScanningSequence": "EP",
  "SequenceName": "*epfid2d1_80",
  "SequenceVariant": "SK",
  "SeriesDescription": "func-bold_fa-77",
  "SeriesNumber": 8,
  "ShimSetting": [4144, -7702, -7512, 270, -60, -100, -43, 65],
  "SliceThickness": 3.5,
  "SliceTiming": [0.99, 0, 1.055, 0.065, 1.1225, 0.1325, 1.1875, 0.1975, 1.255, 0.265, 1.32, 0.33, 1.385, 0.395, 1.4525, 0.4625, 1.5175, 0.5275, 1.585, 0.595, 1.65, 0.66, 1.715, 0.725, 1.7825, 0.7925, 1.8475, 0.8575, 1.915, 0.925],
  "SoftwareVersions": "syngo MR E11",
  "SpacingBetweenSlices": 3.99,
  "StationName": "AWP66112",
  "TotalReadoutTime": 0.0395,
  "TxRefAmp": 222.752,
  "dcmmeta_affine": [
    [-2.987340211868286, 0.254004567861557, 0.1412540078163147, 109.1512222290039],
    [0.2745249271392822, 2.835792064666748, 1.2497185468673706, -128.78269958496094],
    [0.020835282281041145, -0.9453915357589722, 3.7866015434265137, -21.19774627685547],
    [0.0, 0.0, 0.0, 1.0]
],
  "dcmmeta_reorient_transform": [
    [0.0, -1.0, 0.0, 79.0],
    [1.0, 0.0, 0.0, 0.0],
    [0.0, 0.0, 1.0, 0.0],
    [0.0, 0.0, 0.0, 1.0]
],
  "dcmmeta_shape": [80, 80, 30, 200],
  "dcmmeta_slice_dim": 2,
  "dcmmeta_version": 0.6,
  "global": {
    "const": {
      "AccessionNumber": "qa",
      "AcquisitionMatrix": [80, 0, 0, 80],
      "AngioFlag": "N",
      "BitsAllocated": 16,
      "BitsStored": 12,
      "BodyPartExamined": "BRAIN",
      "Columns": 480,
      "EchoNumbers": 1,
      "EchoTime": 30.0,
      "EchoTrainLength": 80,
      "FlipAngle": 77.0,
      "HighBit": 11,
      "ImageOrientationPatient": [0.99578009371357, -0.0915083090641, 0.00694509438504, 0.08466819234181, 0.94526401515522, 0.31513051083352],
      "ImagePositionPatient": [-777.48655261554, -607.49829593136, -289.1290396392],
      "ImageType": [
        "ORIGINAL",
        "PRIMARY",
        "M",
        "ND",
        "NORM",
        "MOSAIC"
],
      "ImagedNucleus": "1H",
      "ImagingFrequency": 123.252354,
      "InPlanePhaseEncodingDirection": "COL",
      "MRAcquisitionType": "2D",
      "MagneticFieldStrength": 3.0,
      "Manufacturer": "SIEMENS",
      "ManufacturerModelName": "Prisma",
      "Modality": "MR",
      "NumberOfAverages": 1.0,
      "NumberOfPhaseEncodingSteps": 80,
      "PercentPhaseFieldOfView": 100.0,
      "PercentSampling": 100.0,
      "PerformedProcedureStepStartTime": "093248.553000",
      "PhotometricInterpretation": "MONOCHROME2",
      "PixelBandwidth": 2315.0,
      "PixelRepresentation": 0,
      "PixelSpacing": [3.0, 3.0],
      "ProtocolName": "func-bold_fa-77",
      "RepetitionTime": 2000.0,
      "Rows": 480,
      "SAR": 0.04315369421572,
      "SamplesPerPixel": 1,
      "ScanOptions": "FS",
      "ScanningSequence": "EP",
      "SequenceName": "*epfid2d1_80",
      "SequenceVariant": "SK",
      "SeriesDescription": "func-bold_fa-77",
      "SeriesNumber": 8,
      "SeriesTime": "095143.802000",
      "SliceLocation": -56.58934615024,
      "SliceThickness": 3.5,
      "SmallestImagePixelValue": 0,
      "SoftwareVersions": "syngo MR E11",
      "SpacingBetweenSlices": 3.989999987615,
      "SpecificCharacterSet": "ISO_IR 100",
      "StudyID": "6",
      "StudyTime": "093248.515000",
      "TransmitCoilName": "Body",
      "VariableFlipAngleFlag": "N",
      "WindowCenterWidthExplanation": "Algo1"
    },
    "slices": {}
  },
  "time": {
    "samples": {
      "AcquisitionNumber": [1, 2, 3, 4, 5, 6, 7, 8, 9, 10, 11, 12, 13, 14, 15, 16, 17, 18, 19, 20, 21, 22, 23, 24, 25, 26, 27, 28, 29, 30, 31, 32, 33, 34, 35, 36, 37, 38, 39, 40, 41, 42, 43, 44, 45, 46, 47, 48, 49, 50, 51, 52, 53, 54, 55, 56, 57, 58, 59, 60, 61, 62, 63, 64, 65, 66, 67, 68, 69, 70, 71, 72, 73, 74, 75, 76, 77, 78, 79, 80, 81, 82, 83, 84, 85, 86, 87, 88, 89, 90, 91, 92, 93, 94, 95, 96, 97, 98, 99, 100, 101, 102, 103, 104, 105, 106, 107, 108, 109, 110, 111, 112, 113, 114, 115, 116, 117, 118, 119, 120, 121, 122, 123, 124, 125, 126, 127, 128, 129, 130, 131, 132, 133, 134, 135, 136, 137, 138, 139, 140, 141, 142, 143, 144, 145, 146, 147, 148, 149, 150, 151, 152, 153, 154, 155, 156, 157, 158, 159, 160, 161, 162, 163, 164, 165, 166, 167, 168, 169, 170, 171, 172, 173, 174, 175, 176, 177, 178, 179, 180, 181, 182, 183, 184, 185, 186, 187, 188, 189, 190, 191, 192, 193, 194, 195, 196, 197, 198, 199, 200],
      "AcquisitionTime": ["095044.487500", "095046.487500", "095048.487500", "095050.487500", "095052.487500", "095054.487500", "095056.487500", "095058.487500", "095100.487500", "095102.487500", "095104.487500", "095106.487500", "095108.487500", "095110.487500", "095112.487500", "095114.487500", "095116.487500", "095118.487500", "095120.487500", "095122.487500", "095124.487500", "095126.487500", "095128.487500", "095130.487500", "095132.487500", "095134.487500", "095136.487500", "095138.487500", "095140.487500", "095142.487500", "095144.487500", "095146.487500", "095148.487500", "095150.487500", "095152.487500", "095154.487500", "095156.487500", "095158.487500", "095200.487500", "095202.487500", "095204.487500", "095206.487500", "095208.487500", "095210.487500", "095212.487500", "095214.487500", "095216.487500", "095218.487500", "095220.487500", "095222.487500", "095224.487500", "095226.487500", "095228.487500", "095230.487500", "095232.487500", "095234.487500", "095236.487500", "095238.487500", "095240.487500", "095242.487500", "095244.487500", "095246.487500", "095248.487500", "095250.487500", "095252.487500", "095254.487500", "095256.487500", "095258.487500", "095300.487500", "095302.487500", "095304.487500", "095306.487500", "095308.487500", "095310.487500", "095312.487500", "095314.487500", "095316.487500", "095318.487500", "095320.487500", "095322.487500", "095324.487500", "095326.487500", "095328.487500", "095330.487500", "095332.487500", "095334.487500", "095336.487500", "095338.487500", "095340.487500", "095342.487500", "095344.487500", "095346.487500", "095348.487500", "095350.487500", "095352.487500", "095354.487500", "095356.487500", "095358.487500", "095400.487500", "095402.487500", "095404.487500", "095406.487500", "095408.487500", "095410.487500", "095412.487500", "095414.487500", "095416.487500", "095418.487500", "095420.487500", "095422.487500", "095424.487500", "095426.487500", "095428.487500", "095430.487500", "095432.487500", "095434.487500", "095436.487500", "095438.487500", "095440.487500", "095442.487500", "095444.487500", "095446.487500", "095448.487500", "095450.487500", "095452.487500", "095454.487500", "095456.487500", "095458.487500", "095500.487500", "095502.487500", "095504.487500", "095506.487500", "095508.487500", "095510.487500", "095512.487500", "095514.487500", "095516.487500", "095518.487500", "095520.487500", "095522.487500", "095524.487500", "095526.487500", "095528.487500", "095530.487500", "095532.487500", "095534.487500", "095536.487500", "095538.487500", "095540.487500", "095542.487500", "095544.487500", "095546.487500", "095548.487500", "095550.487500", "095552.487500", "095554.487500", "095556.487500", "095558.487500", "095600.487500", "095602.487500", "095604.487500", "095606.487500", "095608.487500", "095610.487500", "095612.487500", "095614.487500", "095616.487500", "095618.487500", "095620.487500", "095622.487500", "095624.487500", "095626.487500", "095628.487500", "095630.487500", "095632.487500", "095634.487500", "095636.487500", "095638.487500", "095640.487500", "095642.487500", "095644.487500", "095646.487500", "095648.487500", "095650.487500", "095652.487500", "095654.487500", "095656.487500", "095658.487500", "095700.487500", "095702.487500", "095704.487500", "095706.487500", "095708.487500", "095710.487500", "095712.487500", "095714.487500", "095716.487500", "095718.487500", "095720.487500", "095722.487500"],
      "ContentTime": ["095143.806000", "095143.809000", "095143.811000", "095143.813000", "095143.816000", "095143.818000", "095143.820000", "095143.822000", "095143.825000", "095143.827000", "095143.829000", "095143.832000", "095143.834000", "095143.836000", "095143.839000", "095143.841000", "095143.843000", "095143.846000", "095143.848000", "095143.850000", "095143.853000", "095143.855000", "095143.857000", "095143.860000", "095143.862000", "095143.864000", "095143.867000", "095143.872000", "095143.874000", "095223.801000", "095223.804000", "095223.806000", "095223.808000", "095223.810000", "095223.813000", "095223.815000", "095223.817000", "095223.820000", "095223.822000", "095223.824000", "095223.827000", "095223.829000", "095223.831000", "095223.833000", "095223.836000", "095223.838000", "095223.840000", "095223.843000", "095223.845000", "095303.801000", "095303.804000", "095303.806000", "095303.809000", "095303.811000", "095303.813000", "095303.815000", "095303.818000", "095303.820000", "095303.822000", "095303.825000", "095303.827000", "095303.829000", "095303.832000", "095303.834000", "095303.836000", "095303.839000", "095303.841000", "095303.843000", "095303.846000", "095343.801000", "095343.804000", "095343.806000", "095343.808000", "095343.811000", "095343.813000", "095343.815000", "095343.818000", "095343.820000", "095343.822000", "095343.825000", "095343.827000", "095343.829000", "095343.832000", "095343.834000", "095343.836000", "095343.839000", "095343.841000", "095343.843000", "095343.845000", "095423.801000", "095423.804000", "095423.806000", "095423.808000", "095423.811000", "095423.813000", "095423.815000", "095423.818000", "095423.820000", "095423.822000", "095423.824000", "095423.827000", "095423.829000", "095423.831000", "095423.834000", "095423.836000", "095423.838000", "095423.841000", "095423.843000", "095423.845000", "095503.801000", "095503.804000", "095503.806000", "095503.809000", "095503.811000", "095503.813000", "095503.816000", "095503.818000", "095503.820000", "095503.823000", "095503.825000", "095503.827000", "095503.830000", "095503.832000", "095503.834000", "095503.837000", "095503.839000", "095503.841000", "095503.843000", "095503.846000", "095543.801000", "095543.804000", "095543.806000", "095543.808000", "095543.811000", "095543.813000", "095543.816000", "095543.818000", "095543.820000", "095543.823000", "095543.825000", "095543.827000", "095543.829000", "095543.832000", "095543.834000", "095543.836000", "095543.839000", "095543.841000", "095543.879000", "095543.882000", "095623.801000", "095623.804000", "095623.806000", "095623.809000", "095623.811000", "095623.813000", "095623.816000", "095623.818000", "095623.820000", "095623.822000", "095623.825000", "095623.827000", "095623.829000", "095623.832000", "095623.834000", "095623.836000", "095623.839000", "095623.841000", "095623.843000", "095623.846000", "095703.801000", "095703.804000", "095703.806000", "095703.809000", "095703.811000", "095703.813000", "095703.815000", "095703.818000", "095703.820000", "095703.822000", "095703.825000", "095703.827000", "095703.829000", "095703.832000", "095703.834000", "095703.836000", "095703.839000", "095703.841000", "095703.843000", "095703.846000", "095724.426000", "095724.429000", "095724.431000", "095724.433000", "095724.436000", "095724.438000", "095724.440000", "095724.443000", "095724.445000", "095724.447000", "095724.450000"],
      "InstanceCreationTime": ["095143.806000", "095143.809000", "095143.811000", "095143.813000", "095143.816000", "095143.818000", "095143.820000", "095143.822000", "095143.825000", "095143.827000", "095143.829000", "095143.832000", "095143.834000", "095143.836000", "095143.839000", "095143.841000", "095143.843000", "095143.846000", "095143.848000", "095143.850000", "095143.853000", "095143.855000", "095143.857000", "095143.860000", "095143.862000", "095143.864000", "095143.867000", "095143.872000", "095143.874000", "095223.801000", "095223.804000", "095223.806000", "095223.808000", "095223.810000", "095223.813000", "095223.815000", "095223.817000", "095223.820000", "095223.822000", "095223.824000", "095223.827000", "095223.829000", "095223.831000", "095223.833000", "095223.836000", "095223.838000", "095223.840000", "095223.843000", "095223.845000", "095303.801000", "095303.804000", "095303.806000", "095303.809000", "095303.811000", "095303.813000", "095303.815000", "095303.818000", "095303.820000", "095303.822000", "095303.825000", "095303.827000", "095303.829000", "095303.832000", "095303.834000", "095303.836000", "095303.839000", "095303.841000", "095303.843000", "095303.846000", "095343.801000", "095343.804000", "095343.806000", "095343.808000", "095343.811000", "095343.813000", "095343.815000", "095343.818000", "095343.820000", "095343.822000", "095343.825000", "095343.827000", "095343.829000", "095343.832000", "095343.834000", "095343.836000", "095343.839000", "095343.841000", "095343.843000", "095343.845000", "095423.801000", "095423.804000", "095423.806000", "095423.808000", "095423.811000", "095423.813000", "095423.815000", "095423.818000", "095423.820000", "095423.822000", "095423.824000", "095423.827000", "095423.829000", "095423.831000", "095423.834000", "095423.836000", "095423.838000", "095423.841000", "095423.843000", "095423.845000", "095503.801000", "095503.804000", "095503.806000", "095503.809000", "095503.811000", "095503.813000", "095503.816000", "095503.818000", "095503.820000", "095503.823000", "095503.825000", "095503.827000", "095503.830000", "095503.832000", "095503.834000", "095503.837000", "095503.839000", "095503.841000", "095503.843000", "095503.846000", "095543.801000", "095543.804000", "095543.806000", "095543.808000", "095543.811000", "095543.813000", "095543.816000", "095543.818000", "095543.820000", "095543.823000", "095543.825000", "095543.827000", "095543.829000", "095543.832000", "095543.834000", "095543.836000", "095543.839000", "095543.841000", "095543.879000", "095543.882000", "095623.801000", "095623.804000", "095623.806000", "095623.809000", "095623.811000", "095623.813000", "095623.816000", "095623.818000", "095623.820000", "095623.822000", "095623.825000", "095623.827000", "095623.829000", "095623.832000", "095623.834000", "095623.836000", "095623.839000", "095623.841000", "095623.843000", "095623.846000", "095703.801000", "095703.804000", "095703.806000", "095703.809000", "095703.811000", "095703.813000", "095703.815000", "095703.818000", "095703.820000", "095703.822000", "095703.825000", "095703.827000", "095703.829000", "095703.832000", "095703.834000", "095703.836000", "095703.839000", "095703.841000", "095703.843000", "095703.846000", "095724.426000", "095724.429000", "095724.431000", "095724.433000", "095724.436000", "095724.438000", "095724.440000", "095724.443000", "095724.445000", "095724.447000", "095724.450000"],
      "InstanceNumber": [1, 2, 3, 4, 5, 6, 7, 8, 9, 10, 11, 12, 13, 14, 15, 16, 17, 18, 19, 20, 21, 22, 23, 24, 25, 26, 27, 28, 29, 30, 31, 32, 33, 34, 35, 36, 37, 38, 39, 40, 41, 42, 43, 44, 45, 46, 47, 48, 49, 50, 51, 52, 53, 54, 55, 56, 57, 58, 59, 60, 61, 62, 63, 64, 65, 66, 67, 68, 69, 70, 71, 72, 73, 74, 75, 76, 77, 78, 79, 80, 81, 82, 83, 84, 85, 86, 87, 88, 89, 90, 91, 92, 93, 94, 95, 96, 97, 98, 99, 100, 101, 102, 103, 104, 105, 106, 107, 108, 109, 110, 111, 112, 113, 114, 115, 116, 117, 118, 119, 120, 121, 122, 123, 124, 125, 126, 127, 128, 129, 130, 131, 132, 133, 134, 135, 136, 137, 138, 139, 140, 141, 142, 143, 144, 145, 146, 147, 148, 149, 150, 151, 152, 153, 154, 155, 156, 157, 158, 159, 160, 161, 162, 163, 164, 165, 166, 167, 168, 169, 170, 171, 172, 173, 174, 175, 176, 177, 178, 179, 180, 181, 182, 183, 184, 185, 186, 187, 188, 189, 190, 191, 192, 193, 194, 195, 196, 197, 198, 199, 200],
      "LargestImagePixelValue": [1821, 1821, 1822, 1818, 1821, 1823, 1825, 1825, 1826, 1823, 1821, 1820, 1821, 1819, 1823, 1825, 1826, 1824, 1824, 1824, 1826, 1824, 1820, 1821, 1824, 1823, 1825, 1822, 1819, 1820, 1818, 1820, 1821, 1821, 1820, 1818, 1822, 1824, 1825, 1823, 1824, 1826, 1825, 1822, 1816, 1818, 1821, 1823, 1823, 1822, 1820, 1822, 1824, 1822, 1821, 1823, 1823, 1822, 1822, 1821, 1823, 1829, 1831, 1828, 1823, 1821, 1827, 1826, 1823, 1823, 1823, 1824, 1824, 1826, 1829, 1825, 1824, 1825, 1825, 1826, 1824, 1824, 1826, 1825, 1826, 1827, 1827, 1826, 1823, 1823, 1824, 1827, 1824, 1826, 1825, 1829, 1828, 1826, 1824, 1825, 1824, 1824, 1822, 1821, 1822, 1824, 1824, 1822, 1824, 1826, 1824, 1823, 1824, 1825, 1825, 1827, 1825, 1825, 1826, 1826, 1826, 1826, 1827, 1830, 1830, 1826, 1822, 1827, 1828, 1828, 1823, 1824, 1822, 1822, 1823, 1824, 1823, 1824, 1823, 1823, 1825, 1825, 1827, 1825, 1822, 1824, 1824, 1823, 1823, 1825, 1828, 1825, 1824, 1823, 1824, 1825, 1827, 1825, 1824, 1824, 1826, 1827, 1826, 1825, 1826, 1827, 1825, 1824, 1825, 1824, 1826, 1823, 1823, 1824, 1822, 1824, 1822, 1827, 1827, 1826, 1823, 1826, 1825, 1827, 1826, 1825, 1827, 1827, 1827, 1826, 1825, 1827, 1824, 1823, 1822, 1826, 1824, 1825, 1826, 1827],
      "WindowCenter": [954.0, 954.0, 954.0, 953.0, 953.0, 953.0, 953.0, 953.0, 954.0, 953.0, 952.0, 953.0, 953.0, 954.0, 953.0, 953.0, 953.0, 954.0, 953.0, 953.0, 954.0, 954.0, 954.0, 950.0, 953.0, 953.0, 954.0, 953.0, 952.0, 953.0, 953.0, 953.0, 953.0, 953.0, 954.0, 954.0, 953.0, 953.0, 953.0, 952.0, 952.0, 953.0, 953.0, 952.0, 953.0, 952.0, 954.0, 953.0, 953.0, 953.0, 953.0, 952.0, 953.0, 954.0, 951.0, 953.0, 952.0, 952.0, 953.0, 954.0, 953.0, 954.0, 953.0, 953.0, 954.0, 952.0, 953.0, 954.0, 953.0, 954.0, 952.0, 954.0, 954.0, 953.0, 954.0, 953.0, 953.0, 953.0, 953.0, 953.0, 953.0, 953.0, 953.0, 953.0, 953.0, 953.0, 953.0, 953.0, 953.0, 953.0, 953.0, 952.0, 953.0, 953.0, 953.0, 953.0, 953.0, 953.0, 953.0, 952.0, 952.0, 952.0, 953.0, 952.0, 953.0, 953.0, 953.0, 953.0, 953.0, 953.0, 953.0, 953.0, 953.0, 953.0, 952.0, 953.0, 952.0, 952.0, 953.0, 953.0, 952.0, 952.0, 953.0, 952.0, 952.0, 952.0, 953.0, 953.0, 952.0, 952.0, 952.0, 952.0, 953.0, 952.0, 952.0, 953.0, 952.0, 952.0, 952.0, 952.0, 953.0, 952.0, 952.0, 952.0, 953.0, 952.0, 952.0, 952.0, 952.0, 953.0, 952.0, 952.0, 952.0, 952.0, 953.0, 952.0, 953.0, 953.0, 952.0, 953.0, 952.0, 952.0, 952.0, 953.0, 952.0, 952.0, 953.0, 952.0, 952.0, 951.0, 952.0, 952.0, 952.0, 951.0, 951.0, 952.0, 952.0, 952.0, 953.0, 951.0, 952.0, 952.0, 953.0, 952.0, 953.0, 952.0, 951.0, 952.0, 952.0, 952.0, 952.0, 952.0, 951.0, 952.0, 952.0, 952.0, 952.0, 952.0, 952.0, 952.0],
      "WindowWidth": [2078.0, 2078.0, 2078.0, 2077.0, 2077.0, 2077.0, 2076.0, 2077.0, 2078.0, 2077.0, 2076.0, 2077.0, 2077.0, 2078.0, 2077.0, 2077.0, 2077.0, 2078.0, 2077.0, 2077.0, 2078.0, 2078.0, 2078.0, 2074.0, 2077.0, 2077.0, 2078.0, 2077.0, 2076.0, 2077.0, 2077.0, 2077.0, 2077.0, 2077.0, 2078.0, 2078.0, 2077.0, 2077.0, 2077.0, 2076.0, 2076.0, 2077.0, 2077.0, 2076.0, 2077.0, 2076.0, 2078.0, 2077.0, 2077.0, 2077.0, 2077.0, 2076.0, 2077.0, 2077.0, 2075.0, 2076.0, 2076.0, 2076.0, 2077.0, 2077.0, 2077.0, 2077.0, 2077.0, 2077.0, 2077.0, 2076.0, 2076.0, 2077.0, 2076.0, 2077.0, 2076.0, 2077.0, 2077.0, 2076.0, 2077.0, 2077.0, 2077.0, 2077.0, 2076.0, 2077.0, 2077.0, 2076.0, 2076.0, 2077.0, 2076.0, 2076.0, 2076.0, 2076.0, 2076.0, 2077.0, 2076.0, 2075.0, 2076.0, 2076.0, 2076.0, 2077.0, 2077.0, 2077.0, 2076.0, 2075.0, 2075.0, 2075.0, 2076.0, 2075.0, 2076.0, 2076.0, 2076.0, 2076.0, 2076.0, 2076.0, 2076.0, 2076.0, 2076.0, 2076.0, 2075.0, 2076.0, 2075.0, 2075.0, 2076.0, 2076.0, 2076.0, 2076.0, 2076.0, 2076.0, 2076.0, 2075.0, 2076.0, 2076.0, 2075.0, 2075.0, 2075.0, 2075.0, 2076.0, 2075.0, 2075.0, 2076.0, 2075.0, 2075.0, 2076.0, 2075.0, 2076.0, 2075.0, 2075.0, 2076.0, 2076.0, 2075.0, 2075.0, 2076.0, 2075.0, 2076.0, 2075.0, 2075.0, 2075.0, 2075.0, 2076.0, 2075.0, 2076.0, 2076.0, 2075.0, 2076.0, 2075.0, 2075.0, 2075.0, 2076.0, 2075.0, 2075.0, 2076.0, 2075.0, 2075.0, 2075.0, 2075.0, 2075.0, 2074.0, 2074.0, 2075.0, 2075.0, 2075.0, 2075.0, 2076.0, 2074.0, 2075.0, 2075.0, 2075.0, 2075.0, 2075.0, 2075.0, 2074.0, 2075.0, 2075.0, 2075.0, 2075.0, 2075.0, 2074.0, 2075.0, 2075.0, 2075.0, 2075.0, 2075.0, 2075.0, 2075.0]
    },
    "slices": {}
  }
}