{
  "AcquisitionMatrixPE": 122,
  "AcquisitionNumber": 1,
  "AcquisitionTime": "10:32:36.017500",
  "BandwidthPerPixelPhaseEncode": 28.76,
  "BaseResolution": 122,
  "BodyPartExamined": "BRAIN",
  "CoilCombinationMethod": "Adaptive Combine",
  "ConsistencyInfo": "N4_VE11C_LATEST_20160120",
  "ConversionSoftware": "dcm2niix",
  "ConversionSoftwareVersion": "v1.0.20220720",
  "DerivedVendorReportedEchoSpacing": 0.000570008,
  "DeviceSerialNumber": "66112",
  "DiffusionScheme": "Monopolar",
  "DwellTime": 2e-06,
  "EchoTime": 0.075,
  "EchoTrainLength": 61,
  "EffectiveEchoSpacing": 0.000285004,
  "FlipAngle": 90,
  "HeudiconvVersion": "0.13.1",
  "ImageOrientationPatientDICOM": [0.986525, 0.16333, 0.00957343, -0.158546, 0.939905, 0.302395],
  "ImageOrientationText": "Tra>Cor(17.5)>Sag(-2.3)",
  "ImageType": [
    "ORIGINAL",
    "PRIMARY",
    "DIFFUSION",
    "NONE",
    "ND",
    "NORM"
],
  "ImagingFrequency": 123.252,
  "InPlanePhaseEncodingDirectionDICOM": "COL",
  "InstitutionAddress": "Maynard 3,Hanover,NH,US,03755",
  "InstitutionName": "Dartmouth College - PBS",
  "InstitutionalDepartmentName": "Department",
  "MRAcquisitionType": "2D",
  "MagneticFieldStrength": 3,
  "Manufacturer": "Siemens",
  "ManufacturersModelName": "Prisma",
  "MatrixCoilMode": "GRAPPA",
  "Modality": "MR",
  "NonlinearGradientCorrection": false,
  "ParallelReductionFactorInPlane": 2,
  "PartialFourier": 1,
  "PatientPosition": "HFS",
  "PercentPhaseFOV": 100,
  "PercentSampling": 100,
  "PhaseEncodingDirection": "j-",
  "PhaseEncodingSteps": 122,
  "PhaseResolution": 1,
  "PixelBandwidth": 2050,
  "ProcedureStepDescription": "dbic^QA",
  "ProtocolName": "dwi_acq-DTI-30-p2",
  "PulseSequenceDetails": "%SiemensSeq%\\ep2d_diff",
  "ReceiveCoilActiveElements": "HEA;HEP",
  "ReceiveCoilName": "Head_32",
  "ReconMatrixPE": 122,
  "RefLinesPE": 38,
  "RepetitionTime": 7.7,
  "SAR": 0.101955,
  "ScanOptions": "FS",
  "ScanningSequence": "EP",
  "SequenceName": "*ep_b0",
  "SequenceVariant": "SK\\SP",
  "SeriesDescription": "dwi_acq-DTI-30-p2",
  "SeriesNumber": 12,
  "ShimSetting": [4146, -7707, -7517, 286, -92, -84, 8, 51],
  "SliceThickness": 2,
  "SliceTiming": [3.83594, 0, 3.94531, 0.10938, 4.05469, 0.21875, 4.16406, 0.32812, 4.28125, 0.4375, 4.39062, 0.54688, 4.5, 0.65625, 4.60938, 0.76562, 4.71875, 0.875, 4.82812, 0.98438, 4.9375, 1.09375, 5.04688, 1.20312, 5.15625, 1.3125, 5.26562, 1.42188, 5.375, 1.53906, 5.48438, 1.64844, 5.59375, 1.75781, 5.70312, 1.85938, 5.8125, 1.97656, 5.92188, 2.08594, 6.03125, 2.19531, 6.14062, 2.30469, 6.25, 2.41406, 6.35938, 2.52344, 6.47656, 2.63281, 6.57812, 2.74219, 6.6875, 2.85156, 6.79688, 2.96094, 6.91406, 3.07031, 7.02344, 3.17969, 7.13281, 3.28906, 7.24219, 3.39844, 7.35156, 3.50781, 7.46094, 3.61719, 7.57031, 3.72656],
  "SoftwareVersions": "syngo MR E11",
  "SpacingBetweenSlices": 2,
  "SpoilingState": true,
  "StationName": "AWP66112",
  "TotalReadoutTime": 0.0344855,
  "TxRefAmp": 222.185,
  "dcmmeta_affine": [
    [-1.9407051801681519, -0.3118929862976074, -0.08078396320343018, 142.05657958984375],
    [-0.32130420207977295, 1.8489924669265747, 0.5996761322021484, -100.72904205322266],
    [0.018832972273230553, -0.594875693321228, 1.9062690734863281, -35.59358596801758],
    [0.0, 0.0, 0.0, 1.0]
],
  "dcmmeta_reorient_transform": [
    [0.0, -1.0, 0.0, 121.0],
    [1.0, 0.0, 0.0, 0.0],
    [0.0, 0.0, -1.0, 69.0],
    [0.0, 0.0, 0.0, 1.0]
],
  "dcmmeta_shape": [122, 122, 70, 31],
  "dcmmeta_slice_dim": 2,
  "dcmmeta_version": 0.6,
  "global": {
    "const": {
      "AccessionNumber": "qa",
      "AcquisitionMatrix": [122, 0, 0, 122],
      "AngioFlag": "N",
      "BitsAllocated": 16,
      "BitsStored": 12,
      "BodyPartExamined": "BRAIN",
      "Columns": 122,
      "EchoNumbers": 1,
      "EchoTime": 75.0,
      "EchoTrainLength": 61,
      "FlipAngle": 90.0,
      "HighBit": 11,
      "ImageOrientationPatient": [0.98652510400858, 0.16332963189227, 0.00957342711897, -0.1585455997463, 0.93990450299287, 0.30239513563353],
      "ImageType": [
        "ORIGINAL",
        "PRIMARY",
        "DIFFUSION",
        "NONE",
        "ND",
        "NORM"
],
      "ImagedNucleus": "1H",
      "ImagingFrequency": 123.252352,
      "InPlanePhaseEncodingDirection": "COL",
      "MRAcquisitionType": "2D",
      "MagneticFieldStrength": 3.0,
      "Manufacturer": "SIEMENS",
      "ManufacturerModelName": "Prisma",
      "Modality": "MR",
      "NumberOfAverages": 1.0,
      "NumberOfPhaseEncodingSteps": 122,
      "PercentPhaseFieldOfView": 100.0,
      "PercentSampling": 100.0,
      "PerformedProcedureStepStartTime": "100200.682000",
      "PhotometricInterpretation": "MONOCHROME2",
      "PixelBandwidth": 2050.0,
      "PixelRepresentation": 0,
      "PixelSpacing": [1.9672131538391, 1.9672131538391],
      "ProtocolName": "dwi_acq-DTI-30-p2",
      "RepetitionTime": 7700.0,
      "Rows": 122,
      "SAR": 0.10195485979095,
      "SamplesPerPixel": 1,
      "ScanOptions": "FS",
      "ScanningSequence": "EP",
      "SequenceVariant": [
        "SK",
        "SP"
],
      "SeriesDescription": "dwi_acq-DTI-30-p2",
      "SeriesNumber": 12,
      "SeriesTime": "103238.149000",
      "SliceThickness": 2.0,
      "SmallestImagePixelValue": 0,
      "SoftwareVersions": "syngo MR E11",
      "SpacingBetweenSlices": 2.0,
      "SpecificCharacterSet": "ISO_IR 100",
      "StudyID": "20",
      "StudyTime": "100200.638000",
      "TransmitCoilName": "Body",
      "VariableFlipAngleFlag": "N",
      "WindowCenterWidthExplanation": "Algo1",
      "dBdt": 0.0},
    "slices": {
      "AcquisitionTime": ["103236.017500", "103232.177500", "103236.127500", "103232.287500", "103236.237500", "103232.397500", "103236.347500", "103232.507500", "103236.457500", "103232.617500", "103236.567500", "103232.727500", "103236.677500", "103232.837500", "103236.787500", "103232.947500", "103236.895000", "103233.055000", "103237.005000", "103233.165000", "103237.115000", "103233.275000", "103237.225000", "103233.385000", "103237.335000", "103233.495000", "103237.445000", "103233.605000", "103237.555000", "103233.715000", "103237.665000", "103233.825000", "103237.772500", "103233.935000", "103237.882500", "103234.042500", "103237.992500", "103234.152500", "103238.102500", "103234.262500", "103238.212500", "103234.372500", "103238.322500", "103234.482500", "103238.432500", "103234.592500", "103238.542500", "103234.702500", "103238.652500", "103234.812500", "103238.760000", "103234.922500", "103238.870000", "103235.030000", "103238.980000", "103235.140000", "103239.090000", "103235.250000", "103239.200000", "103235.360000", "103239.310000", "103235.470000", "103239.420000", "103235.580000", "103239.530000", "103235.690000", "103239.640000", "103235.800000", "103239.747500", "103235.907500", "103243.717500", "103239.877500", "103243.827500", "103239.987500", "103243.937500", "103240.097500", "103244.047500", "103240.207500", "103244.157500", "103240.317500", "103244.267500", "103240.427500", "103244.377500", "103240.537500", "103244.487500", "103240.647500", "103244.595000", "103240.755000", "103244.705000", "103240.865000", "103244.815000", "103240.975000", "103244.925000", "103241.085000", "103245.035000", "103241.195000", "103245.145000", "103241.305000", "103245.255000", "103241.415000", "103245.365000", "103241.525000", "103245.472500", "103241.635000", "103245.582500", "103241.742500", "103245.692500", "103241.852500", "103245.802500", "103241.962500", "103245.912500", "103242.072500", "103246.022500", "103242.182500", "103246.132500", "103242.292500", "103246.242500", "103242.402500", "103246.352500", "103242.512500", "103246.460000", "103242.622500", "103246.570000", "103242.730000", "103246.680000", "103242.840000", "103246.790000", "103242.950000", "103246.900000", "103243.060000", "103247.010000", "103243.170000", "103247.120000", "103243.280000", "103247.230000", "103243.390000", "103247.340000", "103243.500000", "103247.447500", "103243.607500", "103251.417500", "103247.577500", "103251.527500", "103247.687500", "103251.637500", "103247.797500", "103251.747500", "103247.907500", "103251.857500", "103248.017500", "103251.967500", "103248.127500", "103252.077500", "103248.237500", "103252.187500", "103248.347500", "103252.295000", "103248.455000", "103252.405000", "103248.565000", "103252.515000", "103248.675000", "103252.625000", "103248.785000", "103252.735000", "103248.895000", "103252.845000", "103249.005000", "103252.955000", "103249.115000", "103253.065000", "103249.225000", "103253.172500", "103249.335000", "103253.282500", "103249.442500", "103253.392500", "103249.552500", "103253.502500", "103249.662500", "103253.612500", "103249.772500", "103253.722500", "103249.882500", "103253.832500", "103249.992500", "103253.942500", "103250.102500", "103254.052500", "103250.212500", "103254.160000", "103250.322500", "103254.270000", "103250.430000", "103254.380000", "103250.540000", "103254.490000", "103250.650000", "103254.600000", "103250.760000", "103254.710000", "103250.870000", "103254.820000", "103250.980000", "103254.930000", "103251.090000", "103255.040000", "103251.200000", "103255.147500", "103251.307500", "103259.117500", "103255.277500", "103259.227500", "103255.387500", "103259.337500", "103255.497500", "103259.447500", "103255.607500", "103259.557500", "103255.717500", "103259.667500", "103255.827500", "103259.777500", "103255.937500", "103259.887500", "103256.047500", "103259.995000", "103256.155000", "103300.105000", "103256.265000", "103300.215000", "103256.375000", "103300.325000", "103256.485000", "103300.435000", "103256.595000", "103300.545000", "103256.705000", "103300.655000", "103256.815000", "103300.765000", "103256.925000", "103300.872500", "103257.035000", "103300.982500", "103257.142500", "103301.092500", "103257.252500", "103301.202500", "103257.362500", "103301.312500", "103257.472500", "103301.422500", "103257.582500", "103301.532500", "103257.692500", "103301.642500", "103257.802500", "103301.752500", "103257.912500", "103301.860000", "103258.022500", "103301.970000", "103258.130000", "103302.080000", "103258.240000", "103302.190000", "103258.350000", "103302.300000", "103258.460000", "103302.410000", "103258.570000", "103302.520000", "103258.680000", "103302.630000", "103258.790000", "103302.740000", "103258.900000", "103302.847500", "103259.007500", "103306.817500", "103302.977500", "103306.927500", "103303.087500", "103307.037500", "103303.197500", "103307.147500", "103303.307500", "103307.257500", "103303.417500", "103307.367500", "103303.527500", "103307.477500", "103303.637500", "103307.587500", "103303.747500", "103307.695000", "103303.855000", "103307.805000", "103303.965000", "103307.915000", "103304.075000", "103308.025000", "103304.185000", "103308.135000", "103304.295000", "103308.245000", "103304.405000", "103308.355000", "103304.515000", "103308.465000", "103304.625000", "103308.572500", "103304.735000", "103308.682500", "103304.842500", "103308.792500", "103304.952500", "103308.902500", "103305.062500", "103309.012500", "103305.172500", "103309.122500", "103305.282500", "103309.232500", "103305.392500", "103309.342500", "103305.502500", "103309.452500", "103305.612500", "103309.560000", "103305.722500", "103309.670000", "103305.830000", "103309.780000", "103305.940000", "103309.890000", "103306.050000", "103310.000000", "103306.160000", "103310.110000", "103306.270000", "103310.220000", "103306.380000", "103310.330000", "103306.490000", "103310.440000", "103306.600000", "103310.547500", "103306.707500", "103314.517500", "103310.677500", "103314.627500", "103310.787500", "103314.737500", "103310.897500", "103314.847500", "103311.007500", "103314.957500", "103311.117500", "103315.067500", "103311.227500", "103315.177500", "103311.337500", "103315.287500", "103311.447500", "103315.395000", "103311.555000", "103315.505000", "103311.665000", "103315.615000", "103311.775000", "103315.725000", "103311.885000", "103315.835000", "103311.995000", "103315.945000", "103312.105000", "103316.055000", "103312.215000", "103316.165000", "103312.325000", "103316.272500", "103312.435000", "103316.382500", "103312.542500", "103316.492500", "103312.652500", "103316.602500", "103312.762500", "103316.712500", "103312.872500", "103316.822500", "103312.982500", "103316.932500", "103313.092500", "103317.042500", "103313.202500", "103317.152500", "103313.312500", "103317.260000", "103313.422500", "103317.370000", "103313.530000", "103317.480000", "103313.640000", "103317.590000", "103313.750000", "103317.700000", "103313.860000", "103317.810000", "103313.970000", "103317.920000", "103314.080000", "103318.030000", "103314.190000", "103318.140000", "103314.300000", "103318.247500", "103314.407500", "103322.217500", "103318.377500", "103322.327500", "103318.487500", "103322.437500", "103318.597500", "103322.547500", "103318.707500", "103322.657500", "103318.817500", "103322.767500", "103318.927500", "103322.877500", "103319.037500", "103322.987500", "103319.147500", "103323.095000", "103319.255000", "103323.205000", "103319.365000", "103323.315000", "103319.475000", "103323.425000", "103319.585000", "103323.535000", "103319.695000", "103323.645000", "103319.805000", "103323.755000", "103319.915000", "103323.865000", "103320.025000", "103323.972500", "103320.135000", "103324.082500", "103320.242500", "103324.192500", "103320.352500", "103324.302500", "103320.462500", "103324.412500", "103320.572500", "103324.522500", "103320.682500", "103324.632500", "103320.792500", "103324.742500", "103320.902500", "103324.852500", "103321.012500", "103324.960000", "103321.122500", "103325.070000", "103321.230000", "103325.180000", "103321.340000", "103325.290000", "103321.450000", "103325.400000", "103321.560000", "103325.510000", "103321.670000", "103325.620000", "103321.780000", "103325.730000", "103321.890000", "103325.840000", "103322.000000", "103325.947500", "103322.107500", "103329.917500", "103326.077500", "103330.027500", "103326.187500", "103330.137500", "103326.297500", "103330.247500", "103326.407500", "103330.357500", "103326.517500", "103330.467500", "103326.627500", "103330.577500", "103326.737500", "103330.687500", "103326.847500", "103330.795000", "103326.955000", "103330.905000", "103327.065000", "103331.015000", "103327.175000", "103331.125000", "103327.285000", "103331.235000", "103327.395000", "103331.345000", "103327.505000", "103331.455000", "103327.615000", "103331.565000", "103327.725000", "103331.672500", "103327.835000", "103331.782500", "103327.942500", "103331.892500", "103328.052500", "103332.002500", "103328.162500", "103332.112500", "103328.272500", "103332.222500", "103328.382500", "103332.332500", "103328.492500", "103332.442500", "103328.602500", "103332.552500", "103328.712500", "103332.660000", "103328.822500", "103332.770000", "103328.930000", "103332.880000", "103329.040000", "103332.990000", "103329.150000", "103333.100000", "103329.260000", "103333.210000", "103329.370000", "103333.320000", "103329.480000", "103333.430000", "103329.590000", "103333.540000", "103329.700000", "103333.647500", "103329.807500", "103337.617500", "103333.777500", "103337.727500", "103333.887500", "103337.837500", "103333.997500", "103337.947500", "103334.107500", "103338.057500", "103334.217500", "103338.167500", "103334.327500", "103338.277500", "103334.437500", "103338.387500", "103334.547500", "103338.495000", "103334.655000", "103338.605000", "103334.765000", "103338.715000", "103334.875000", "103338.825000", "103334.985000", "103338.935000", "103335.095000", "103339.045000", "103335.205000", "103339.155000", "103335.315000", "103339.265000", "103335.425000", "103339.372500", "103335.535000", "103339.482500", "103335.642500", "103339.592500", "103335.752500", "103339.702500", "103335.862500", "103339.812500", "103335.972500", "103339.922500", "103336.082500", "103340.032500", "103336.192500", "103340.142500", "103336.302500", "103340.252500", "103336.412500", "103340.360000", "103336.522500", "103340.470000", "103336.630000", "103340.580000", "103336.740000", "103340.690000", "103336.850000", "103340.800000", "103336.960000", "103340.910000", "103337.070000", "103341.020000", "103337.180000", "103341.130000", "103337.290000", "103341.240000", "103337.400000", "103341.347500", "103337.507500", "103345.317500", "103341.477500", "103345.427500", "103341.587500", "103345.537500", "103341.697500", "103345.647500", "103341.807500", "103345.757500", "103341.917500", "103345.867500", "103342.027500", "103345.977500", "103342.137500", "103346.087500", "103342.247500", "103346.195000", "103342.355000", "103346.305000", "103342.465000", "103346.415000", "103342.575000", "103346.525000", "103342.685000", "103346.635000", "103342.795000", "103346.745000", "103342.905000", "103346.855000", "103343.015000", "103346.965000", "103343.125000", "103347.072500", "103343.235000", "103347.182500", "103343.342500", "103347.292500", "103343.452500", "103347.402500", "103343.562500", "103347.512500", "103343.672500", "103347.622500", "103343.782500", "103347.732500", "103343.892500", "103347.842500", "103344.002500", "103347.952500", "103344.112500", "103348.060000", "103344.222500", "103348.170000", "103344.330000", "103348.280000", "103344.440000", "103348.390000", "103344.550000", "103348.500000", "103344.660000", "103348.610000", "103344.770000", "103348.720000", "103344.880000", "103348.830000", "103344.990000", "103348.940000", "103345.100000", "103349.047500", "103345.207500", "103353.017500", "103349.177500", "103353.127500", "103349.287500", "103353.237500", "103349.397500", "103353.347500", "103349.507500", "103353.457500", "103349.617500", "103353.567500", "103349.727500", "103353.677500", "103349.837500", "103353.787500", "103349.947500", "103353.895000", "103350.055000", "103354.005000", "103350.165000", "103354.115000", "103350.275000", "103354.225000", "103350.385000", "103354.335000", "103350.495000", "103354.445000", "103350.605000", "103354.555000", "103350.715000", "103354.665000", "103350.825000", "103354.772500", "103350.935000", "103354.882500", "103351.042500", "103354.992500", "103351.152500", "103355.102500", "103351.262500", "103355.212500", "103351.372500", "103355.322500", "103351.482500", "103355.432500", "103351.592500", "103355.542500", "103351.702500", "103355.652500", "103351.812500", "103355.760000", "103351.922500", "103355.870000", "103352.030000", "103355.980000", "103352.140000", "103356.090000", "103352.250000", "103356.200000", "103352.360000", "103356.310000", "103352.470000", "103356.420000", "103352.580000", "103356.530000", "103352.690000", "103356.640000", "103352.800000", "103356.747500", "103352.907500", "103400.717500", "103356.877500", "103400.827500", "103356.987500", "103400.937500", "103357.097500", "103401.047500", "103357.207500", "103401.157500", "103357.317500", "103401.267500", "103357.427500", "103401.377500", "103357.537500", "103401.487500", "103357.647500", "103401.595000", "103357.755000", "103401.705000", "103357.865000", "103401.815000", "103357.975000", "103401.925000", "103358.085000", "103402.035000", "103358.195000", "103402.145000", "103358.305000", "103402.255000", "103358.415000", "103402.365000", "103358.525000", "103402.472500", "103358.635000", "103402.582500", "103358.742500", "103402.692500", "103358.852500", "103402.802500", "103358.962500", "103402.912500", "103359.072500", "103403.022500", "103359.182500", "103403.132500", "103359.292500", "103403.242500", "103359.402500", "103403.352500", "103359.512500", "103403.460000", "103359.622500", "103403.570000", "103359.730000", "103403.680000", "103359.840000", "103403.790000", "103359.950000", "103403.900000", "103400.060000", "103404.010000", "103400.170000", "103404.120000", "103400.280000", "103404.230000", "103400.390000", "103404.340000", "103400.500000", "103404.447500", "103400.607500", "103408.417500", "103404.577500", "103408.527500", "103404.687500", "103408.637500", "103404.797500", "103408.747500", "103404.907500", "103408.857500", "103405.017500", "103408.967500", "103405.127500", "103409.077500", "103405.237500", "103409.187500", "103405.347500", "103409.295000", "103405.455000", "103409.405000", "103405.565000", "103409.515000", "103405.675000", "103409.625000", "103405.785000", "103409.735000", "103405.895000", "103409.845000", "103406.005000", "103409.955000", "103406.115000", "103410.065000", "103406.225000", "103410.172500", "103406.335000", "103410.282500", "103406.442500", "103410.392500", "103406.552500", "103410.502500", "103406.662500", "103410.612500", "103406.772500", "103410.722500", "103406.882500", "103410.832500", "103406.992500", "103410.942500", "103407.102500", "103411.052500", "103407.212500", "103411.160000", "103407.322500", "103411.270000", "103407.430000", "103411.380000", "103407.540000", "103411.490000", "103407.650000", "103411.600000", "103407.760000", "103411.710000", "103407.870000", "103411.820000", "103407.980000", "103411.930000", "103408.090000", "103412.040000", "103408.200000", "103412.147500", "103408.307500", "103416.117500", "103412.277500", "103416.227500", "103412.387500", "103416.337500", "103412.497500", "103416.447500", "103412.607500", "103416.557500", "103412.717500", "103416.667500", "103412.827500", "103416.777500", "103412.937500", "103416.887500", "103413.047500", "103416.995000", "103413.155000", "103417.105000", "103413.265000", "103417.215000", "103413.375000", "103417.325000", "103413.485000", "103417.435000", "103413.595000", "103417.545000", "103413.705000", "103417.655000", "103413.815000", "103417.765000", "103413.925000", "103417.872500", "103414.035000", "103417.982500", "103414.142500", "103418.092500", "103414.252500", "103418.202500", "103414.362500", "103418.312500", "103414.472500", "103418.422500", "103414.582500", "103418.532500", "103414.692500", "103418.642500", "103414.802500", "103418.752500", "103414.912500", "103418.860000", "103415.022500", "103418.970000", "103415.130000", "103419.080000", "103415.240000", "103419.190000", "103415.350000", "103419.300000", "103415.460000", "103419.410000", "103415.570000", "103419.520000", "103415.680000", "103419.630000", "103415.790000", "103419.740000", "103415.900000", "103419.847500", "103416.007500", "103423.817500", "103419.977500", "103423.927500", "103420.087500", "103424.037500", "103420.197500", "103424.147500", "103420.307500", "103424.257500", "103420.417500", "103424.367500", "103420.527500", "103424.477500", "103420.637500", "103424.587500", "103420.747500", "103424.695000", "103420.855000", "103424.805000", "103420.965000", "103424.915000", "103421.075000", "103425.025000", "103421.185000", "103425.135000", "103421.295000", "103425.245000", "103421.405000", "103425.355000", "103421.515000", "103425.465000", "103421.625000", "103425.572500", "103421.735000", "103425.682500", "103421.842500", "103425.792500", "103421.952500", "103425.902500", "103422.062500", "103426.012500", "103422.172500", "103426.122500", "103422.282500", "103426.232500", "103422.392500", "103426.342500", "103422.502500", "103426.452500", "103422.612500", "103426.560000", "103422.722500", "103426.670000", "103422.830000", "103426.780000", "103422.940000", "103426.890000", "103423.050000", "103427.000000", "103423.160000", "103427.110000", "103423.270000", "103427.220000", "103423.380000", "103427.330000", "103423.490000", "103427.440000", "103423.600000", "103427.547500", "103423.707500", "103431.517500", "103427.677500", "103431.627500", "103427.787500", "103431.737500", "103427.897500", "103431.847500", "103428.007500", "103431.957500", "103428.117500", "103432.067500", "103428.227500", "103432.177500", "103428.337500", "103432.287500", "103428.447500", "103432.395000", "103428.555000", "103432.505000", "103428.665000", "103432.615000", "103428.775000", "103432.725000", "103428.885000", "103432.835000", "103428.995000", "103432.945000", "103429.105000", "103433.055000", "103429.215000", "103433.165000", "103429.325000", "103433.272500", "103429.435000", "103433.382500", "103429.542500", "103433.492500", "103429.652500", "103433.602500", "103429.762500", "103433.712500", "103429.872500", "103433.822500", "103429.982500", "103433.932500", "103430.092500", "103434.042500", "103430.202500", "103434.152500", "103430.312500", "103434.260000", "103430.422500", "103434.370000", "103430.530000", "103434.480000", "103430.640000", "103434.590000", "103430.750000", "103434.700000", "103430.860000", "103434.810000", "103430.970000", "103434.920000", "103431.080000", "103435.030000", "103431.190000", "103435.140000", "103431.300000", "103435.247500", "103431.407500", "103439.217500", "103435.377500", "103439.327500", "103435.487500", "103439.437500", "103435.597500", "103439.547500", "103435.707500", "103439.657500", "103435.817500", "103439.767500", "103435.927500", "103439.877500", "103436.037500", "103439.987500", "103436.147500", "103440.095000", "103436.255000", "103440.205000", "103436.365000", "103440.315000", "103436.475000", "103440.425000", "103436.585000", "103440.535000", "103436.695000", "103440.645000", "103436.805000", "103440.755000", "103436.915000", "103440.865000", "103437.025000", "103440.972500", "103437.135000", "103441.082500", "103437.242500", "103441.192500", "103437.352500", "103441.302500", "103437.462500", "103441.412500", "103437.572500", "103441.522500", "103437.682500", "103441.632500", "103437.792500", "103441.742500", "103437.902500", "103441.852500", "103438.012500", "103441.960000", "103438.122500", "103442.070000", "103438.230000", "103442.180000", "103438.340000", "103442.290000", "103438.450000", "103442.400000", "103438.560000", "103442.510000", "103438.670000", "103442.620000", "103438.780000", "103442.730000", "103438.890000", "103442.840000", "103439.000000", "103442.947500", "103439.107500", "103446.917500", "103443.077500", "103447.027500", "103443.187500", "103447.137500", "103443.297500", "103447.247500", "103443.407500", "103447.357500", "103443.517500", "103447.467500", "103443.627500", "103447.577500", "103443.737500", "103447.687500", "103443.847500", "103447.795000", "103443.955000", "103447.905000", "103444.065000", "103448.015000", "103444.175000", "103448.125000", "103444.285000", "103448.235000", "103444.395000", "103448.345000", "103444.505000", "103448.455000", "103444.615000", "103448.565000", "103444.725000", "103448.672500", "103444.835000", "103448.782500", "103444.942500", "103448.892500", "103445.052500", "103449.002500", "103445.162500", "103449.112500", "103445.272500", "103449.222500", "103445.382500", "103449.332500", "103445.492500", "103449.442500", "103445.602500", "103449.552500", "103445.712500", "103449.660000", "103445.822500", "103449.770000", "103445.930000", "103449.880000", "103446.040000", "103449.990000", "103446.150000", "103450.100000", "103446.260000", "103450.210000", "103446.370000", "103450.320000", "103446.480000", "103450.430000", "103446.590000", "103450.540000", "103446.700000", "103450.647500", "103446.807500", "103454.617500", "103450.777500", "103454.727500", "103450.887500", "103454.837500", "103450.997500", "103454.947500", "103451.107500", "103455.057500", "103451.217500", "103455.167500", "103451.327500", "103455.277500", "103451.437500", "103455.387500", "103451.547500", "103455.495000", "103451.655000", "103455.605000", "103451.765000", "103455.715000", "103451.875000", "103455.825000", "103451.985000", "103455.935000", "103452.095000", "103456.045000", "103452.205000", "103456.155000", "103452.315000", "103456.265000", "103452.425000", "103456.372500", "103452.535000", "103456.482500", "103452.642500", "103456.592500", "103452.752500", "103456.702500", "103452.862500", "103456.812500", "103452.972500", "103456.922500", "103453.082500", "103457.032500", "103453.192500", "103457.142500", "103453.302500", "103457.252500", "103453.412500", "103457.360000", "103453.522500", "103457.470000", "103453.630000", "103457.580000", "103453.740000", "103457.690000", "103453.850000", "103457.800000", "103453.960000", "103457.910000", "103454.070000", "103458.020000", "103454.180000", "103458.130000", "103454.290000", "103458.240000", "103454.400000", "103458.347500", "103454.507500", "103502.317500", "103458.477500", "103502.427500", "103458.587500", "103502.537500", "103458.697500", "103502.647500", "103458.807500", "103502.757500", "103458.917500", "103502.867500", "103459.027500", "103502.977500", "103459.137500", "103503.087500", "103459.247500", "103503.195000", "103459.355000", "103503.305000", "103459.465000", "103503.415000", "103459.575000", "103503.525000", "103459.685000", "103503.635000", "103459.795000", "103503.745000", "103459.905000", "103503.855000", "103500.015000", "103503.965000", "103500.125000", "103504.072500", "103500.235000", "103504.182500", "103500.342500", "103504.292500", "103500.452500", "103504.402500", "103500.562500", "103504.512500", "103500.672500", "103504.622500", "103500.782500", "103504.732500", "103500.892500", "103504.842500", "103501.002500", "103504.952500", "103501.112500", "103505.060000", "103501.222500", "103505.170000", "103501.330000", "103505.280000", "103501.440000", "103505.390000", "103501.550000", "103505.500000", "103501.660000", "103505.610000", "103501.770000", "103505.720000", "103501.880000", "103505.830000", "103501.990000", "103505.940000", "103502.100000", "103506.047500", "103502.207500", "103510.017500", "103506.177500", "103510.127500", "103506.287500", "103510.237500", "103506.397500", "103510.347500", "103506.507500", "103510.457500", "103506.617500", "103510.567500", "103506.727500", "103510.677500", "103506.837500", "103510.787500", "103506.947500", "103510.895000", "103507.055000", "103511.005000", "103507.165000", "103511.115000", "103507.275000", "103511.225000", "103507.385000", "103511.335000", "103507.495000", "103511.445000", "103507.605000", "103511.555000", "103507.715000", "103511.665000", "103507.825000", "103511.772500", "103507.935000", "103511.882500",