{
  "AcquisitionMatrixPE": 122,
  "AcquisitionNumber": 1,
  "AcquisitionTime": "13:19:41.485000",
  "BandwidthPerPixelPhaseEncode": 27.785,
  "BaseResolution": 122,
  "BodyPartExamined": "BRAIN",
  "CoilCombinationMethod": "Adaptive Combine",
  "ConsistencyInfo": "N4_VE11C_LATEST_20160120",
  "ConversionSoftware": "dcm2niix",
  "ConversionSoftwareVersion": "v1.0.20220720",
  "DerivedVendorReportedEchoSpacing": 0.000590011,
  "DeviceSerialNumber": "66112",
  "DiffusionScheme": "Monopolar",
  "DwellTime": 2e-06,
  "EchoTime": 0.068,
  "EchoTrainLength": 61,
  "EffectiveEchoSpacing": 0.000295005,
  "FlipAngle": 90,
  "HeudiconvVersion": "0.13.1",
  "ImageOrientationPatientDICOM": [0.98148, 0.191449, 0.00660503, -0.184211, 0.933788, 0.306767],
  "ImageOrientationText": "Tra>Cor(17.6)>Sag(-3.0)",
  "ImageType": [
    "ORIGINAL",
    "PRIMARY",
    "DIFFUSION",
    "NONE",
    "ND",
    "NORM"
],
  "ImagingFrequency": 123.252,
  "InPlanePhaseEncodingDirectionDICOM": "COL",
  "InstitutionAddress": "Maynard 3,Hanover,NH,US,03755",
  "InstitutionName": "Dartmouth College - PBS",
  "InstitutionalDepartmentName": "Department",
  "MRAcquisitionType": "2D",
  "MagneticFieldStrength": 3,
  "Manufacturer": "Siemens",
  "ManufacturersModelName": "Prisma",
  "Modality": "MR",
  "MultibandAccelerationFactor": 4,
  "NonlinearGradientCorrection": false,
  "ParallelReductionFactorInPlane": 2,
  "PartialFourier": 1,
  "PatientPosition": "HFS",
  "PercentPhaseFOV": 100,
  "PercentSampling": 100,
  "PhaseEncodingDirection": "j-",
  "PhaseEncodingSteps": 122,
  "PhaseResolution": 1,
  "PixelBandwidth": 2050,
  "ProcedureStepDescription": "dbic^QA",
  "ProtocolName": "dwi_acq-DTI-30-p2-s4",
  "PulseSequenceDetails": "%SiemensSeq%\\ep2d_diff",
  "ReceiveCoilActiveElements": "HEA;HEP",
  "ReceiveCoilName": "Head_32",
  "ReconMatrixPE": 122,
  "RefLinesPE": 38,
  "RepetitionTime": 3.6,
  "SAR": 0.158992,
  "ScanOptions": "FS",
  "ScanningSequence": "EP",
  "SequenceName": "*ep_b0",
  "SequenceVariant": "SK\\SP",
  "SeriesDescription": "dwi_acq-DTI-30-p2-s4",
  "SeriesNumber": 13,
  "ShimSetting": [4153, -7717, -7511, 279, -68, -39, 82, 83],
  "SliceThickness": 2,
  "SliceTiming": [2.59375, 0, 1.79688, 0.20312, 2, 0.40625, 2.20312, 0.60938, 2.39062, 1, 2.79688, 1.20312, 2.98438, 1.40625, 3.1875, 1.59375, 3.39062, 0.79688, 2.59375, 0, 1.79688, 0.20312, 2, 0.40625, 2.20312, 0.60938, 2.39062, 1, 2.79688, 1.20312, 2.98438, 1.40625, 3.1875, 1.59375, 3.39062, 0.79688, 2.59375, 0, 1.79688, 0.20312, 2, 0.40625, 2.20312, 0.60938, 2.39062, 1, 2.79688, 1.20312, 2.98438, 1.40625, 3.1875, 1.59375, 3.39062, 0.79688, 2.59375, 0, 1.79688, 0.20312, 2, 0.40625, 2.20312, 0.60938, 2.39062, 1, 2.79688, 1.20312, 2.98438, 1.40625, 3.1875, 1.59375, 3.39062, 0.79688],
  "SoftwareVersions": "syngo MR E11",
  "SpacingBetweenSlices": 2,
  "SpoilingState": true,
  "StationName": "AWP66112",
  "TotalReadoutTime": 0.0356956,
  "TxRefAmp": 228.116,
  "dcmmeta_affine": [
    [-1.9307808876037598, -0.3623822033405304, -0.10512518882751465, 144.21067810058594],
    [-0.3766217827796936, 1.8369605541229248, 0.6046047210693359, -102.60424041748047],
    [0.012993494980037212, -0.6034755706787109, 1.9035263061523438, -24.083168029785156],
    [0.0, 0.0, 0.0, 1.0]
],
  "dcmmeta_reorient_transform": [
    [0.0, -1.0, 0.0, 121.0],
    [1.0, 0.0, 0.0, 0.0],
    [0.0, 0.0, -1.0, 71.0],
    [0.0, 0.0, 0.0, 1.0]
],
  "dcmmeta_shape": [122, 122, 72, 31],
  "dcmmeta_slice_dim": 2,
  "dcmmeta_version": 0.6,
  "global": {
    "const": {
      "AccessionNumber": "qa",
      "AcquisitionMatrix": [122, 0, 0, 122],
      "AngioFlag": "N",
      "BitsAllocated": 16,
      "BitsStored": 12,
      "BodyPartExamined": "BRAIN",
      "Columns": 122,
      "EchoNumbers": 1,
      "EchoTime": 68.0,
      "EchoTrainLength": 61,
      "FlipAngle": 90.0,
      "HighBit": 11,
      "ImageOrientationPatient": [0.98148025988059, 0.19144940085517, 0.00660502664096, -0.184210942144, 0.93378824934645, 0.30676674229272],
      "ImageType": [
        "ORIGINAL",
        "PRIMARY",
        "DIFFUSION",
        "NONE",
        "ND",
        "NORM"
],
      "ImagedNucleus": "1H",
      "ImagingFrequency": 123.252313,
      "InPlanePhaseEncodingDirection": "COL",
      "MRAcquisitionType": "2D",
      "MagneticFieldStrength": 3.0,
      "Manufacturer": "SIEMENS",
      "ManufacturerModelName": "Prisma",
      "Modality": "MR",
      "NumberOfAverages": 1.0,
      "NumberOfPhaseEncodingSteps": 122,
      "PercentPhaseFieldOfView": 100.0,
      "PercentSampling": 100.0,
      "PerformedProcedureStepStartTime": "124500.619000",
      "PhotometricInterpretation": "MONOCHROME2",
      "PixelBandwidth": 2050.0,
      "PixelRepresentation": 0,
      "PixelSpacing": [1.9672131538391, 1.9672131538391],
      "ProtocolName": "dwi_acq-DTI-30-p2-s4",
      "RepetitionTime": 3600.0,
      "Rows": 122,
      "SAR": 0.15899222978173,
      "SamplesPerPixel": 1,
      "ScanOptions": "FS",
      "ScanningSequence": "EP",
      "SequenceVariant": [
        "SK",
        "SP"
],
      "SeriesDescription": "dwi_acq-DTI-30-p2-s4",
      "SeriesNumber": 13,
      "SeriesTime": "131950.154000",
      "SliceThickness": 2.0,
      "SmallestImagePixelValue": 0,
      "SoftwareVersions": "syngo MR E11",
      "SpacingBetweenSlices": 2.0,
      "SpecificCharacterSet": "ISO_IR 100",
      "StudyID": "1",
      "StudyTime": "124500.559000",
      "TransmitCoilName": "Body",
      "VariableFlipAngleFlag": "N",
      "WindowCenterWidthExplanation": "Algo1",
      "dBdt": 0.0},
    "slices": {
      "AcquisitionTime": ["131941.485000", "131938.897500", "131940.687500", "131939.097500", "131940.887500", "131939.297500", "131941.087500", "131939.495000", "131941.285000", "131939.892500", "131941.682500", "131940.092500", "131941.882500", "131940.290000", "131942.080000", "131940.490000", "131942.280000", "131939.695000", "131941.485000", "131938.897500", "131940.687500", "131939.097500", "131940.887500", "131939.297500", "131941.087500", "131939.495000", "131941.285000", "131939.892500", "131941.682500", "131940.092500", "131941.882500", "131940.290000", "131942.080000", "131940.490000", "131942.280000", "131939.695000", "131941.485000", "131938.897500", "131940.687500", "131939.097500", "131940.887500", "131939.297500", "131941.087500", "131939.495000", "131941.285000", "131939.892500", "131941.682500", "131940.092500", "131941.882500", "131940.290000", "131942.080000", "131940.490000", "131942.280000", "131939.695000", "131941.485000", "131938.897500", "131940.687500", "131939.097500", "131940.887500", "131939.297500", "131941.087500", "131939.495000", "131941.285000", "131939.892500", "131941.682500", "131940.092500", "131941.882500", "131940.290000", "131942.080000", "131940.490000", "131942.280000", "131939.695000", "131945.085000", "131942.497500", "131944.287500", "131942.697500", "131944.487500", "131942.897500", "131944.687500", "131943.095000", "131944.885000", "131943.492500", "131945.282500", "131943.692500", "131945.482500", "131943.890000", "131945.680000", "131944.090000", "131945.880000", "131943.295000", "131945.085000", "131942.497500", "131944.287500", "131942.697500", "131944.487500", "131942.897500", "131944.687500", "131943.095000", "131944.885000", "131943.492500", "131945.282500", "131943.692500", "131945.482500", "131943.890000", "131945.680000", "131944.090000", "131945.880000", "131943.295000", "131945.085000", "131942.497500", "131944.287500", "131942.697500", "131944.487500", "131942.897500", "131944.687500", "131943.095000", "131944.885000", "131943.492500", "131945.282500", "131943.692500", "131945.482500", "131943.890000", "131945.680000", "131944.090000", "131945.880000", "131943.295000", "131945.085000", "131942.497500", "131944.287500", "131942.697500", "131944.487500", "131942.897500", "131944.687500", "131943.095000", "131944.885000", "131943.492500", "131945.282500", "131943.692500", "131945.482500", "131943.890000", "131945.680000", "131944.090000", "131945.880000", "131943.295000", "131948.685000", "131946.097500", "131947.887500", "131946.297500", "131948.087500", "131946.497500", "131948.287500", "131946.695000", "131948.485000", "131947.092500", "131948.882500", "131947.292500", "131949.082500", "131947.490000", "131949.280000", "131947.690000", "131949.480000", "131946.895000", "131948.685000", "131946.097500", "131947.887500", "131946.297500", "131948.087500", "131946.497500", "131948.287500", "131946.695000", "131948.485000", "131947.092500", "131948.882500", "131947.292500", "131949.082500", "131947.490000", "131949.280000", "131947.690000", "131949.480000", "131946.895000", "131948.685000", "131946.097500", "131947.887500", "131946.297500", "131948.087500", "131946.497500", "131948.287500", "131946.695000", "131948.485000", "131947.092500", "131948.882500", "131947.292500", "131949.082500", "131947.490000", "131949.280000", "131947.690000", "131949.480000", "131946.895000", "131948.685000", "131946.097500", "131947.887500", "131946.297500", "131948.087500", "131946.497500", "131948.287500", "131946.695000", "131948.485000", "131947.092500", "131948.882500", "131947.292500", "131949.082500", "131947.490000", "131949.280000", "131947.690000", "131949.480000", "131946.895000", "131952.285000", "131949.697500", "131951.487500", "131949.897500", "131951.687500", "131950.097500", "131951.887500", "131950.295000", "131952.085000", "131950.692500", "131952.482500", "131950.892500", "131952.682500", "131951.090000", "131952.880000", "131951.290000", "131953.080000", "131950.495000", "131952.285000", "131949.697500", "131951.487500", "131949.897500", "131951.687500", "131950.097500", "131951.887500", "131950.295000", "131952.085000", "131950.692500", "131952.482500", "131950.892500", "131952.682500", "131951.090000", "131952.880000", "131951.290000", "131953.080000", "131950.495000", "131952.285000", "131949.697500", "131951.487500", "131949.897500", "131951.687500", "131950.097500", "131951.887500", "131950.295000", "131952.085000", "131950.692500", "131952.482500", "131950.892500", "131952.682500", "131951.090000", "131952.880000", "131951.290000", "131953.080000", "131950.495000", "131952.285000", "131949.697500", "131951.487500", "131949.897500", "131951.687500", "131950.097500", "131951.887500", "131950.295000", "131952.085000", "131950.692500", "131952.482500", "131950.892500", "131952.682500", "131951.090000", "131952.880000", "131951.290000", "131953.080000", "131950.495000", "131955.885000", "131953.297500", "131955.087500", "131953.497500", "131955.287500", "131953.697500", "131955.487500", "131953.895000", "131955.685000", "131954.292500", "131956.082500", "131954.492500", "131956.282500", "131954.690000", "131956.480000", "131954.890000", "131956.680000", "131954.095000", "131955.885000", "131953.297500", "131955.087500", "131953.497500", "131955.287500", "131953.697500", "131955.487500", "131953.895000", "131955.685000", "131954.292500", "131956.082500", "131954.492500", "131956.282500", "131954.690000", "131956.480000", "131954.890000", "131956.680000", "131954.095000", "131955.885000", "131953.297500", "131955.087500", "131953.497500", "131955.287500", "131953.697500", "131955.487500", "131953.895000", "131955.685000", "131954.292500", "131956.082500", "131954.492500", "131956.282500", "131954.690000", "131956.480000", "131954.890000", "131956.680000", "131954.095000", "131955.885000", "131953.297500", "131955.087500", "131953.497500", "131955.287500", "131953.697500", "131955.487500", "131953.895000", "131955.685000", "131954.292500", "131956.082500", "131954.492500", "131956.282500", "131954.690000", "131956.480000", "131954.890000", "131956.680000", "131954.095000", "131959.485000", "131956.897500", "131958.687500", "131957.097500", "131958.887500", "131957.297500", "131959.087500", "131957.495000", "131959.285000", "131957.892500", "131959.682500", "131958.092500", "131959.882500", "131958.290000", "132000.080000", "131958.490000", "132000.280000", "131957.695000", "131959.485000", "131956.897500", "131958.687500", "131957.097500", "131958.887500", "131957.297500", "131959.087500", "131957.495000", "131959.285000", "131957.892500", "131959.682500", "131958.092500", "131959.882500", "131958.290000", "132000.080000", "131958.490000", "132000.280000", "131957.695000", "131959.485000", "131956.897500", "131958.687500", "131957.097500", "131958.887500", "131957.297500", "131959.087500", "131957.495000", "131959.285000", "131957.892500", "131959.682500", "131958.092500", "131959.882500", "131958.290000", "132000.080000", "131958.490000", "132000.280000", "131957.695000", "131959.485000", "131956.897500", "131958.687500", "131957.097500", "131958.887500", "131957.297500", "131959.087500", "131957.495000", "131959.285000", "131957.892500", "131959.682500", "131958.092500", "131959.882500", "131958.290000", "132000.080000", "131958.490000", "132000.280000", "131957.695000", "132003.085000", "132000.497500", "132002.287500", "132000.697500", "132002.487500", "132000.897500", "132002.687500", "132001.095000", "132002.885000", "132001.492500", "132003.282500", "132001.692500", "132003.482500", "132001.890000", "132003.680000", "132002.090000", "132003.880000", "132001.295000", "132003.085000", "132000.497500", "132002.287500", "132000.697500", "132002.487500", "132000.897500", "132002.687500", "132001.095000", "132002.885000", "132001.492500", "132003.282500", "132001.692500", "132003.482500", "132001.890000", "132003.680000", "132002.090000", "132003.880000", "132001.295000", "132003.085000", "132000.497500", "132002.287500", "132000.697500", "132002.487500", "132000.897500", "132002.687500", "132001.095000", "132002.885000", "132001.492500", "132003.282500", "132001.692500", "132003.482500", "132001.890000", "132003.680000", "132002.090000", "132003.880000", "132001.295000", "132003.085000", "132000.497500", "132002.287500", "132000.697500", "132002.487500", "132000.897500", "132002.687500", "132001.095000", "132002.885000", "132001.492500", "132003.282500", "132001.692500", "132003.482500", "132001.890000", "132003.680000", "132002.090000", "132003.880000", "132001.295000", "132006.685000", "132004.097500", "132005.887500", "132004.297500", "132006.087500", "132004.497500", "132006.287500", "132004.695000", "132006.485000", "132005.092500", "132006.882500", "132005.292500", "132007.082500", "132005.490000", "132007.280000", "132005.690000", "132007.480000", "132004.895000", "132006.685000", "132004.097500", "132005.887500", "132004.297500", "132006.087500", "132004.497500", "132006.287500", "132004.695000", "132006.485000", "132005.092500", "132006.882500", "132005.292500", "132007.082500", "132005.490000", "132007.280000", "132005.690000", "132007.480000", "132004.895000", "132006.685000", "132004.097500", "132005.887500", "132004.297500", "132006.087500", "132004.497500", "132006.287500", "132004.695000", "132006.485000", "132005.092500", "132006.882500", "132005.292500", "132007.082500", "132005.490000", "132007.280000", "132005.690000", "132007.480000", "132004.895000", "132006.685000", "132004.097500", "132005.887500", "132004.297500", "132006.087500", "132004.497500", "132006.287500", "132004.695000", "132006.485000", "132005.092500", "132006.882500", "132005.292500", "132007.082500", "132005.490000", "132007.280000", "132005.690000", "132007.480000", "132004.895000", "132010.285000", "132007.697500", "132009.487500", "132007.897500", "132009.687500", "132008.097500", "132009.887500", "132008.295000", "132010.085000", "132008.692500", "132010.482500", "132008.892500", "132010.682500", "132009.090000", "132010.880000", "132009.290000", "132011.080000", "132008.495000", "132010.285000", "132007.697500", "132009.487500", "132007.897500", "132009.687500", "132008.097500", "132009.887500", "132008.295000", "132010.085000", "132008.692500", "132010.482500", "132008.892500", "132010.682500", "132009.090000", "132010.880000", "132009.290000", "132011.080000", "132008.495000", "132010.285000", "132007.697500", "132009.487500", "132007.897500", "132009.687500", "132008.097500", "132009.887500", "132008.295000", "132010.085000", "132008.692500", "132010.482500", "132008.892500", "132010.682500", "132009.090000", "132010.880000", "132009.290000", "132011.080000", "132008.495000", "132010.285000", "132007.697500", "132009.487500", "132007.897500", "132009.687500", "132008.097500", "132009.887500", "132008.295000", "132010.085000", "132008.692500", "132010.482500", "132008.892500", "132010.682500", "132009.090000", "132010.880000", "132009.290000", "132011.080000", "132008.495000", "132013.885000", "132011.297500", "132013.087500", "132011.497500", "132013.287500", "132011.697500", "132013.487500", "132011.895000", "132013.685000", "132012.292500", "132014.082500", "132012.492500", "132014.282500", "132012.690000", "132014.480000", "132012.890000", "132014.680000", "132012.095000", "132013.885000", "132011.297500", "132013.087500", "132011.497500", "132013.287500", "132011.697500", "132013.487500", "132011.895000", "132013.685000", "132012.292500", "132014.082500", "132012.492500", "132014.282500", "132012.690000", "132014.480000", "132012.890000", "132014.680000", "132012.095000", "132013.885000", "132011.297500", "132013.087500", "132011.497500", "132013.287500", "132011.697500", "132013.487500", "132011.895000", "132013.685000", "132012.292500", "132014.082500", "132012.492500", "132014.282500", "132012.690000", "132014.480000", "132012.890000", "132014.680000", "132012.095000", "132013.885000", "132011.297500", "132013.087500", "132011.497500", "132013.287500", "132011.697500", "132013.487500", "132011.895000", "132013.685000", "132012.292500", "132014.082500", "132012.492500", "132014.282500", "132012.690000", "132014.480000", "132012.890000", "132014.680000", "132012.095000", "132017.485000", "132014.897500", "132016.687500", "132015.097500", "132016.887500", "132015.297500", "132017.087500", "132015.495000", "132017.285000", "132015.892500", "132017.682500", "132016.092500", "132017.882500", "132016.290000", "132018.080000", "132016.490000", "132018.280000", "132015.695000", "132017.485000", "132014.897500", "132016.687500", "132015.097500", "132016.887500", "132015.297500", "132017.087500", "132015.495000", "132017.285000", "132015.892500", "132017.682500", "132016.092500", "132017.882500", "132016.290000", "132018.080000", "132016.490000", "132018.280000", "132015.695000", "132017.485000", "132014.897500", "132016.687500", "132015.097500", "132016.887500", "132015.297500", "132017.087500", "132015.495000", "132017.285000", "132015.892500", "132017.682500", "132016.092500", "132017.882500", "132016.290000", "132018.080000", "132016.490000", "132018.280000", "132015.695000", "132017.485000", "132014.897500", "132016.687500", "132015.097500", "132016.887500", "132015.297500", "132017.087500", "132015.495000", "132017.285000", "132015.892500", "132017.682500", "132016.092500", "132017.882500", "132016.290000", "132018.080000", "132016.490000", "132018.280000", "132015.695000", "132021.085000", "132018.497500", "132020.287500", "132018.697500", "132020.487500", "132018.897500", "132020.687500", "132019.095000", "132020.885000", "132019.492500", "132021.282500", "132019.692500", "132021.482500", "132019.890000", "132021.680000", "132020.090000", "132021.880000", "132019.295000", "132021.085000", "132018.497500", "132020.287500", "132018.697500", "132020.487500", "132018.897500", "132020.687500", "132019.095000", "132020.885000", "132019.492500", "132021.282500", "132019.692500", "132021.482500", "132019.890000", "132021.680000", "132020.090000", "132021.880000", "132019.295000", "132021.085000", "132018.497500", "132020.287500", "132018.697500", "132020.487500", "132018.897500", "132020.687500", "132019.095000", "132020.885000", "132019.492500", "132021.282500", "132019.692500", "132021.482500", "132019.890000", "132021.680000", "132020.090000", "132021.880000", "132019.295000", "132021.085000", "132018.497500", "132020.287500", "132018.697500", "132020.487500", "132018.897500", "132020.687500", "132019.095000", "132020.885000", "132019.492500", "132021.282500", "132019.692500", "132021.482500", "132019.890000", "132021.680000", "132020.090000", "132021.880000", "132019.295000", "132024.685000", "132022.097500", "132023.887500", "132022.297500", "132024.087500", "132022.497500", "132024.287500", "132022.695000", "132024.485000", "132023.092500", "132024.882500", "132023.292500", "132025.082500", "132023.490000", "132025.280000", "132023.690000", "132025.480000", "132022.895000", "132024.685000", "132022.097500", "132023.887500", "132022.297500", "132024.087500", "132022.497500", "132024.287500", "132022.695000", "132024.485000", "132023.092500", "132024.882500", "132023.292500", "132025.082500", "132023.490000", "132025.280000", "132023.690000", "132025.480000", "132022.895000", "132024.685000", "132022.097500", "132023.887500", "132022.297500", "132024.087500", "132022.497500", "132024.287500", "132022.695000", "132024.485000", "132023.092500", "132024.882500", "132023.292500", "132025.082500", "132023.490000", "132025.280000", "132023.690000", "132025.480000", "132022.895000", "132024.685000", "132022.097500", "132023.887500", "132022.297500", "132024.087500", "132022.497500", "132024.287500", "132022.695000", "132024.485000", "132023.092500", "132024.882500", "132023.292500", "132025.082500", "132023.490000", "132025.280000", "132023.690000", "132025.480000", "132022.895000", "132028.285000", "132025.697500", "132027.487500", "132025.897500", "132027.687500", "132026.097500", "132027.887500", "132026.295000", "132028.085000", "132026.692500", "132028.482500", "132026.892500", "132028.682500", "132027.090000", "132028.880000", "132027.290000", "132029.080000", "132026.495000", "132028.285000", "132025.697500", "132027.487500", "132025.897500", "132027.687500", "132026.097500", "132027.887500", "132026.295000", "132028.085000", "132026.692500", "132028.482500", "132026.892500", "132028.682500", "132027.090000", "132028.880000", "132027.290000", "132029.080000", "132026.495000", "132028.285000", "132025.697500", "132027.487500", "132025.897500", "132027.687500", "132026.097500", "132027.887500", "132026.295000", "132028.085000", "132026.692500", "132028.482500", "132026.892500", "132028.682500", "132027.090000", "132028.880000", "132027.290000", "132029.080000", "132026.495000", "132028.285000", "132025.697500", "132027.487500", "132025.897500", "132027.687500", "132026.097500", "132027.887500", "132026.295000", "132028.085000", "132026.692500", "132028.482500", "132026.892500", "132028.682500", "132027.090000", "132028.880000", "132027.290000", "132029.080000", "132026.495000", "132031.885000", "132029.297500", "132031.087500", "132029.497500", "132031.287500", "132029.697500", "132031.487500", "132029.895000", "132031.685000", "132030.292500", "132032.082500", "132030.492500", "132032.282500", "132030.690000", "132032.480000", "132030.890000", "132032.680000", "132030.095000", "132031.885000", "132029.297500", "132031.087500", "132029.497500", "132031.287500", "132029.697500", "132031.487500", "132029.895000", "132031.685000", "132030.292500", "132032.082500", "132030.492500", "132032.282500", "132030.690000", "132032.480000", "132030.890000", "132032.680000", "132030.095000", "132031.885000", "132029.297500", "132031.087500", "132029.497500", "132031.287500", "132029.697500", "132031.487500", "132029.895000", "132031.685000", "132030.292500", "132032.082500", "132030.492500", "132032.282500", "132030.690000", "132032.480000", "132030.890000", "132032.680000", "132030.095000", "132031.885000", "132029.297500", "132031.087500", "132029.497500", "132031.287500", "132029.697500", "132031.487500", "132029.895000", "132031.685000", "132030.292500", "132032.082500", "132030.492500", "132032.282500", "132030.690000", "132032.480000", "132030.890000", "132032.680000", "132030.095000", "132035.485000", "132032.897500", "132034.687500", "132033.097500", "132034.887500", "132033.297500", "132035.087500", "132033.495000", "132035.285000", "132033.892500", "132035.682500", "132034.092500", "132035.882500", "132034.290000", "132036.080000", "132034.490000", "132036.280000", "132033.695000", "132035.485000", "132032.897500", "132034.687500", "132033.097500", "132034.887500", "132033.297500", "132035.087500", "132033.495000", "132035.285000", "132033.892500", "132035.682500", "132034.092500", "132035.882500", "132034.290000", "132036.080000", "132034.490000", "132036.280000", "132033.695000", "132035.485000", "132032.897500", "132034.687500", "132033.097500", "132034.887500", "132033.297500", "132035.087500", "132033.495000", "132035.285000", "132033.892500", "132035.682500", "132034.092500", "132035.882500", "132034.290000", "132036.080000", "132034.490000", "132036.280000", "132033.695000", "132035.485000", "132032.897500", "132034.687500", "132033.097500", "132034.887500", "132033.297500", "132035.087500", "132033.495000", "132035.285000", "132033.892500", "132035.682500", "132034.092500", "132035.882500", "132034.290000", "132036.080000", "132034.490000", "132036.280000", "132033.695000", "132039.085000", "132036.497500", "132038.287500", "132036.697500", "132038.487500", "132036.897500", "132038.687500", "132037.095000", "132038.885000", "132037.492500", "132039.282500", "132037.692500", "132039.482500", "132037.890000", "132039.680000", "132038.090000", "132039.880000", "132037.295000", "132039.085000", "132036.497500", "132038.287500", "132036.697500", "132038.487500", "132036.897500", "132038.687500", "132037.095000", "132038.885000", "132037.492500", "132039.282500", "132037.692500", "132039.482500", "132037.890000", "132039.680000", "132038.090000", "132039.880000", "132037.295000", "132039.085000", "132036.497500", "132038.287500", "132036.697500", "132038.487500", "132036.897500", "132038.687500", "132037.095000", "132038.885000", "132037.492500", "132039.282500", "132037.692500", "132039.482500", "132037.890000", "132039.680000", "132038.090000", "132039.880000", "132037.295000", "132039.085000", "132036.497500", "132038.287500", "132036.697500", "132038.487500", "132036.897500", "132038.687500", "132037.095000", "132038.885000", "132037.492500", "132039.282500", "132037.692500", "132039.482500", "132037.890000", "132039.680000", "132038.090000", "132039.880000", "132037.295000", "132042.685000", "132040.097500", "132041.887500", "132040.297500", "132042.087500", "132040.497500", "132042.287500", "132040.695000", "132042.485000", "132041.092500", "132042.882500", "132041.292500", "132043.082500", "132041.490000", "132043.280000", "132041.690000", "132043.480000", "132040.895000", "132042.685000", "132040.097500", "132041.887500", "132040.297500", "132042.087500", "132040.497500", "132042.287500", "132040.695000", "132042.485000", "132041.092500", "132042.882500", "132041.292500", "132043.082500", "132041.490000", "132043.280000", "132041.690000", "132043.480000", "132040.895000", "132042.685000", "132040.097500", "132041.887500", "132040.297500", "132042.087500", "132040.497500", "132042.287500", "132040.695000", "132042.485000", "132041.092500", "132042.882500", "132041.292500", "132043.082500", "132041.490000", "132043.280000", "132041.690000", "132043.480000", "132040.895000", "132042.685000", "132040.097500", "132041.887500", "132040.297500", "132042.087500", "132040.497500", "132042.287500", "132040.695000", "132042.485000", "132041.092500", "132042.882500", "132041.292500", "132043.082500", "132041.490000", "132043.280000", "132041.690000", "132043.480000", "132040.895000", "132046.285000", "132043.697500", "132045.487500", "132043.897500", "132045.687500", "132044.097500", "132045.887500", "132044.295000", "132046.085000", "132044.692500", "132046.482500", "132044.892500", "132046.682500", "132045.090000", "132046.880000", "132045.290000", "132047.080000", "132044.495000", "132046.285000", "132043.697500", "132045.487500", "132043.897500", "132045.687500", "132044.097500", "132045.887500", "132044.295000", "132046.085000", "132044.692500", "132046.482500", "132044.892500", "132046.682500", "132045.090000", "132046.880000", "132045.290000", "132047.080000", "132044.495000", "132046.285000", "132043.697500", "132045.487500", "132043.897500", "132045.687500", "132044.097500", "132045.887500", "132044.295000", "132046.085000", "132044.692500", "132046.482500", "132044.892500", "132046.682500", "132045.090000", "132046.880000", "132045.290000", "132047.080000", "132044.495000", "132046.285000", "132043.697500", "132045.487500", "132043.897500", "132045.687500", "132044.097500", "132045.887500", "132044.295000", "132046.085000", "132044.692500", "132046.482500", "132044.892500", "132046.682500", "132045.090000", "132046.880000", "132045.290000", "132047.080000", "132044.495000", "132049.885000", "132047.297500", "132049.087500", "132047.497500", "132049.287500", "132047.697500", "132049.487500", "132047.895000", "132049.685000", "132048.292500", "132050.082500", "132048.492500", "132050.282500", "132048.690000", "132050.480000", "132048.890000", "132050.680000", "132048.095000", "132049.885000", "132047.297500", "132049.087500", "132047.497500", "132049.287500", "132047.697500", "132049.487500", "132047.895000", "132049.685000", "132048.292500", "132050.082500", "132048.492500", "132050.282500", "132048.690000", "132050.480000", "132048.890000", "132050.680000", "132048.095000", "132049.885000", "132047.297500", "132049.087500", "132047.497500", "132049.287500", "132047.697500", "132049.487500", "132047.895000", "132049.685000", "132048.292500", "132050.082500", "132048.492500", "132050.282500", "132048.690000", "132050.480000", "132048.890000", "132050.680000", "132048.095000", "132049.885000", "132047.297500", "132049.087500", "132047.497500", "132049.287500", "132047.697500", "132049.487500", "132047.895000", "132049.685000", "132048.292500", "132050.082500", "132048.492500", "132050.282500", "132048.690000",