{
  "AcquisitionMatrixPE": 80,
  "AcquisitionNumber": 1,
  "AcquisitionTime": "08:57:59.527500",
  "BandwidthPerPixelPhaseEncode": 25,
  "BaseResolution": 80,
  "BodyPartExamined": "BRAIN",
  "CoilCombinationMethod": "Sum of Squares",
  "ConsistencyInfo": "N4_VE11C_LATEST_20160120",
  "ConversionSoftware": "dcm2niix",
  "ConversionSoftwareVersion": "v1.0.20220720",
  "DerivedVendorReportedEchoSpacing": 0.0005,
  "DeviceSerialNumber": "66112",
  "DwellTime": 2.7e-06,
  "EchoTime": 0.03,
  "EchoTrainLength": 80,
  "EffectiveEchoSpacing": 0.0005,
  "FlipAngle": 77,
  "HeudiconvVersion": "0.13.1",
  "ImageOrientationPatientDICOM": [0.984831, 0.173134, -0.0114908, -0.158979, 0.926881, 0.340025],
  "ImageOrientationText": "Tra>Cor(19.5)>Sag(-4.0)",
  "ImageType": [
    "ORIGINAL",
    "PRIMARY",
    "M",
    "ND",
    "NORM",
    "MOSAIC"
],
  "ImagingFrequency": 123.252,
  "InPlanePhaseEncodingDirectionDICOM": "COL",
  "InstitutionAddress": "Maynard 3,Hanover,NH,US,03755",
  "InstitutionName": "Dartmouth College - PBS",
  "InstitutionalDepartmentName": "Department",
  "MRAcquisitionType": "2D",
  "MagneticFieldStrength": 3,
  "Manufacturer": "Siemens",
  "ManufacturersModelName": "Prisma",
  "MatrixCoilMode": "SENSE",
  "Modality": "MR",
  "NonlinearGradientCorrection": false,
  "PartialFourier": 1,
  "PatientPosition": "HFS",
  "PercentPhaseFOV": 100,
  "PercentSampling": 100,
  "PhaseEncodingDirection": "j-",
  "PhaseEncodingSteps": 80,
  "PhaseResolution": 1,
  "PixelBandwidth": 2315,
  "ProcedureStepDescription": "dbic^QA",
  "ProtocolName": "func-bold_fa-77",
  "PulseSequenceDetails": "%SiemensSeq%\\ep2d_bold",
  "ReceiveCoilActiveElements": "HC1-7;NC1,2",
  "ReceiveCoilName": "HeadNeck_64",
  "ReconMatrixPE": 80,
  "RepetitionTime": 2,
  "SAR": 0.0320846,
  "ScanOptions": "FS",
  "ScanningSequence": "EP",
  "SequenceName": "*epfid2d1_80",
  "SequenceVariant": "SK",
  "SeriesDescription": "func-bold_fa-77",
  "SeriesNumber": 7,
  "ShimSetting": [4136, -7713, -7514, 199, -49, -221, -32, 130],
  "SliceThickness": 3.5,
  "SliceTiming": [0.99, 0, 1.055, 0.065, 1.12, 0.1325, 1.1875, 0.1975, 1.2525, 0.2625, 1.32, 0.33, 1.385, 0.395, 1.45, 0.4625, 1.5175, 0.5275, 1.5825, 0.5925, 1.65, 0.66, 1.715, 0.725, 1.78, 0.7925, 1.8475, 0.8575, 1.9125, 0.9225],
  "SoftwareVersions": "syngo MR E11",
  "SpacingBetweenSlices": 3.99,
  "StationName": "AWP66112",
  "TotalReadoutTime": 0.0395,
  "TxRefAmp": 210.331,
  "dcmmeta_affine": [
    [-2.954493999481201, -0.4769360423088074, -0.27738603949546814, 141.47235107421875],
    [-0.5194008946418762, 2.7806437015533447, 1.3288308382034302, -89.11832427978516],
    [-0.03447228670120239, -1.020074486732483, 3.751981496810913, -17.69148826599121],
    [0.0, 0.0, 0.0, 1.0]
],
  "dcmmeta_reorient_transform": [
    [0.0, -1.0, 0.0, 79.0],
    [1.0, 0.0, 0.0, 0.0],
    [0.0, 0.0, 1.0, 0.0],
    [0.0, 0.0, 0.0, 1.0]
],
  "dcmmeta_shape": [80, 80, 30, 200],
  "dcmmeta_slice_dim": 2,
  "dcmmeta_version": 0.6,
  "global": {
    "const": {
      "AccessionNumber": "qa64",
      "AcquisitionMatrix": [80, 0, 0, 80],
      "AngioFlag": "N",
      "BitsAllocated": 16,
      "BitsStored": 12,
      "BodyPartExamined": "BRAIN",
      "Columns": 480,
      "EchoNumbers": 1,
      "EchoTime": 30.0,
      "EchoTrainLength": 80,
      "FlipAngle": 77.0,
      "HighBit": 11,
      "ImageOrientationPatient": [0.98483130793155, 0.17313363999885, -0.0114907623152, -0.1589786821278, 0.92688126959661, 0.34002483835725],
      "ImagePositionPatient": [-599.30598252052, -790.56148528353, -295.39782149342],
      "ImageType": [
        "ORIGINAL",
        "PRIMARY",
        "M",
        "ND",
        "NORM",
        "MOSAIC"
],
      "ImagedNucleus": "1H",
      "ImagingFrequency": 123.252367,
      "InPlanePhaseEncodingDirection": "COL",
      "MRAcquisitionType": "2D",
      "MagneticFieldStrength": 3.0,
      "Manufacturer": "SIEMENS",
      "ManufacturerModelName": "Prisma",
      "Modality": "MR",
      "NumberOfAverages": 1.0,
      "NumberOfPhaseEncodingSteps": 80,
      "PercentPhaseFieldOfView": 100.0,
      "PercentSampling": 100.0,
      "PerformedProcedureStepStartTime": "084917.121000",
      "PhotometricInterpretation": "MONOCHROME2",
      "PixelBandwidth": 2315.0,
      "PixelRepresentation": 0,
      "PixelSpacing": [3.0, 3.0],
      "ProtocolName": "func-bold_fa-77",
      "RepetitionTime": 2000.0,
      "Rows": 480,
      "SAR": 0.0320845707087,
      "SamplesPerPixel": 1,
      "ScanOptions": "FS",
      "ScanningSequence": "EP",
      "SequenceName": "*epfid2d1_80",
      "SequenceVariant": "SK",
      "SeriesDescription": "func-bold_fa-77",
      "SeriesNumber": 7,
      "SeriesTime": "085841.306000",
      "SliceLocation": -56.151321792035,
      "SliceThickness": 3.5,
      "SmallestImagePixelValue": 0,
      "SoftwareVersions": "syngo MR E11",
      "SpacingBetweenSlices": 3.9899998731663,
      "SpecificCharacterSet": "ISO_IR 100",
      "StudyID": "41",
      "StudyTime": "084917.055000",
      "TransmitCoilName": "Body",
      "VariableFlipAngleFlag": "N",
      "WindowCenterWidthExplanation": "Algo1",
      "dBdt": 0.0},
    "slices": {}
  },
  "time": {
    "samples": {
      "AcquisitionNumber": [1, 2, 3, 4, 5, 6, 7, 8, 9, 10, 11, 12, 13, 14, 15, 16, 17, 18, 19, 20, 21, 22, 23, 24, 25, 26, 27, 28, 29, 30, 31, 32, 33, 34, 35, 36, 37, 38, 39, 40, 41, 42, 43, 44, 45, 46, 47, 48, 49, 50, 51, 52, 53, 54, 55, 56, 57, 58, 59, 60, 61, 62, 63, 64, 65, 66, 67, 68, 69, 70, 71, 72, 73, 74, 75, 76, 77, 78, 79, 80, 81, 82, 83, 84, 85, 86, 87, 88, 89, 90, 91, 92, 93, 94, 95, 96, 97, 98, 99, 100, 101, 102, 103, 104, 105, 106, 107, 108, 109, 110, 111, 112, 113, 114, 115, 116, 117, 118, 119, 120, 121, 122, 123, 124, 125, 126, 127, 128, 129, 130, 131, 132, 133, 134, 135, 136, 137, 138, 139, 140, 141, 142, 143, 144, 145, 146, 147, 148, 149, 150, 151, 152, 153, 154, 155, 156, 157, 158, 159, 160, 161, 162, 163, 164, 165, 166, 167, 168, 169, 170, 171, 172, 173, 174, 175, 176, 177, 178, 179, 180, 181, 182, 183, 184, 185, 186, 187, 188, 189, 190, 191, 192, 193, 194, 195, 196, 197, 198, 199, 200],
      "AcquisitionTime": ["085759.527500", "085801.527500", "085803.527500", "085805.527500", "085807.527500", "085809.527500", "085811.527500", "085813.527500", "085815.527500", "085817.527500", "085819.527500", "085821.527500", "085823.527500", "085825.527500", "085827.527500", "085829.527500", "085831.527500", "085833.527500", "085835.527500", "085837.527500", "085839.527500", "085841.527500", "085843.527500", "085845.527500", "085847.527500", "085849.527500", "085851.527500", "085853.527500", "085855.527500", "085857.527500", "085859.527500", "085901.527500", "085903.527500", "085905.527500", "085907.527500", "085909.527500", "085911.527500", "085913.527500", "085915.527500", "085917.527500", "085919.527500", "085921.527500", "085923.527500", "085925.527500", "085927.527500", "085929.527500", "085931.527500", "085933.527500", "085935.527500", "085937.527500", "085939.527500", "085941.527500", "085943.527500", "085945.527500", "085947.527500", "085949.527500", "085951.527500", "085953.527500", "085955.527500", "085957.527500", "085959.527500", "090001.527500", "090003.527500", "090005.527500", "090007.527500", "090009.527500", "090011.527500", "090013.527500", "090015.527500", "090017.527500", "090019.527500", "090021.527500", "090023.527500", "090025.527500", "090027.527500", "090029.527500", "090031.527500", "090033.527500", "090035.527500", "090037.527500", "090039.527500", "090041.527500", "090043.527500", "090045.527500", "090047.527500", "090049.527500", "090051.527500", "090053.527500", "090055.527500", "090057.527500", "090059.527500", "090101.527500", "090103.527500", "090105.527500", "090107.527500", "090109.527500", "090111.527500", "090113.527500", "090115.527500", "090117.527500", "090119.527500", "090121.527500", "090123.527500", "090125.527500", "090127.527500", "090129.527500", "090131.527500", "090133.527500", "090135.527500", "090137.527500", "090139.527500", "090141.527500", "090143.527500", "090145.527500", "090147.527500", "090149.527500", "090151.527500", "090153.527500", "090155.527500", "090157.527500", "090159.527500", "090201.527500", "090203.527500", "090205.527500", "090207.527500", "090209.527500", "090211.527500", "090213.527500", "090215.527500", "090217.527500", "090219.527500", "090221.527500", "090223.527500", "090225.527500", "090227.527500", "090229.527500", "090231.527500", "090233.527500", "090235.527500", "090237.527500", "090239.527500", "090241.527500", "090243.527500", "090245.527500", "090247.527500", "090249.527500", "090251.527500", "090253.527500", "090255.527500", "090257.527500", "090259.527500", "090301.527500", "090303.527500", "090305.527500", "090307.527500", "090309.527500", "090311.527500", "090313.527500", "090315.527500", "090317.527500", "090319.527500", "090321.527500", "090323.527500", "090325.527500", "090327.527500", "090329.527500", "090331.527500", "090333.527500", "090335.527500", "090337.527500", "090339.527500", "090341.527500", "090343.527500", "090345.527500", "090347.527500", "090349.527500", "090351.527500", "090353.527500", "090355.527500", "090357.527500", "090359.527500", "090401.527500", "090403.527500", "090405.527500", "090407.527500", "090409.527500", "090411.527500", "090413.527500", "090415.527500", "090417.527500", "090419.527500", "090421.527500", "090423.527500", "090425.527500", "090427.527500", "090429.527500", "090431.527500", "090433.527500", "090435.527500", "090437.527500"],
      "ContentTime": ["085841.309000", "085841.313000", "085841.315000", "085841.318000", "085841.320000", "085841.323000", "085841.325000", "085841.328000", "085841.330000", "085841.333000", "085841.335000", "085841.338000", "085841.340000", "085841.344000", "085841.347000", "085841.350000", "085841.353000", "085841.356000", "085841.359000", "085841.361000", "085921.304000", "085921.307000", "085921.310000", "085921.312000", "085921.315000", "085921.317000", "085921.320000", "085921.322000", "085921.325000", "085921.327000", "085921.330000", "085921.332000", "085921.335000", "085921.337000", "085921.340000", "085921.343000", "085921.345000", "085921.348000", "085921.351000", "085921.354000", "090001.305000", "090001.308000", "090001.311000", "090001.313000", "090001.316000", "090001.318000", "090001.321000", "090001.323000", "090001.326000", "090001.328000", "090001.331000", "090001.333000", "090001.336000", "090001.338000", "090001.341000", "090001.344000", "090001.347000", "090001.350000", "090001.353000", "090001.356000", "090041.304000", "090041.307000", "090041.310000", "090041.312000", "090041.315000", "090041.317000", "090041.320000", "090041.322000", "090041.325000", "090041.328000", "090041.330000", "090041.333000", "090041.335000", "090041.338000", "090041.340000", "090041.343000", "090041.346000", "090041.349000", "090041.352000", "090041.354000", "090121.305000", "090121.307000", "090121.310000", "090121.312000", "090121.315000", "090121.317000", "090121.320000", "090121.322000", "090121.325000", "090121.327000", "090121.330000", "090121.332000", "090121.335000", "090121.338000", "090121.340000", "090121.343000", "090121.345000", "090121.349000", "090121.352000", "090121.355000", "090201.305000", "090201.308000", "090201.311000", "090201.313000", "090201.316000", "090201.318000", "090201.321000", "090201.323000", "090201.326000", "090201.328000", "090201.331000", "090201.333000", "090201.336000", "090201.339000", "090201.341000", "090201.344000", "090201.346000", "090201.350000", "090201.353000", "090201.355000", "090241.304000", "090241.307000", "090241.310000", "090241.312000", "090241.315000", "090241.317000", "090241.320000", "090241.322000", "090241.325000", "090241.327000", "090241.330000", "090241.332000", "090241.335000", "090241.338000", "090241.340000", "090241.343000", "090241.346000", "090241.349000", "090241.352000", "090241.354000", "090321.304000", "090321.307000", "090321.310000", "090321.312000", "090321.315000", "090321.317000", "090321.320000", "090321.322000", "090321.325000", "090321.327000", "090321.330000", "090321.333000", "090321.335000", "090321.338000", "090321.340000", "090321.343000", "090321.346000", "090321.349000", "090321.352000", "090321.354000", "090401.305000", "090401.308000", "090401.311000", "090401.313000", "090401.316000", "090401.318000", "090401.321000", "090401.323000", "090401.326000", "090401.329000", "090401.331000", "090401.333000", "090401.337000", "090401.340000", "090401.343000", "090401.347000", "090401.349000", "090401.352000", "090401.355000", "090401.357000", "090439.397000", "090439.400000", "090439.403000", "090439.405000", "090439.408000", "090439.410000", "090439.413000", "090439.416000", "090439.418000", "090439.421000", "090439.423000", "090439.426000", "090439.434000", "090439.442000", "090439.445000", "090439.450000", "090439.453000", "090439.455000", "090439.458000", "090439.460000"],
      "InstanceCreationTime": ["085841.309000", "085841.313000", "085841.315000", "085841.318000", "085841.320000", "085841.323000", "085841.325000", "085841.328000", "085841.330000", "085841.333000", "085841.335000", "085841.338000", "085841.340000", "085841.344000", "085841.347000", "085841.350000", "085841.353000", "085841.356000", "085841.359000", "085841.361000", "085921.304000", "085921.307000", "085921.310000", "085921.312000", "085921.315000", "085921.317000", "085921.320000", "085921.322000", "085921.325000", "085921.327000", "085921.330000", "085921.332000", "085921.335000", "085921.337000", "085921.340000", "085921.343000", "085921.345000", "085921.348000", "085921.351000", "085921.354000", "090001.305000", "090001.308000", "090001.311000", "090001.313000", "090001.316000", "090001.318000", "090001.321000", "090001.323000", "090001.326000", "090001.328000", "090001.331000", "090001.333000", "090001.336000", "090001.338000", "090001.341000", "090001.344000", "090001.347000", "090001.350000", "090001.353000", "090001.356000", "090041.304000", "090041.307000", "090041.310000", "090041.312000", "090041.315000", "090041.317000", "090041.320000", "090041.322000", "090041.325000", "090041.328000", "090041.330000", "090041.333000", "090041.335000", "090041.338000", "090041.340000", "090041.343000", "090041.346000", "090041.349000", "090041.352000", "090041.354000", "090121.305000", "090121.307000", "090121.310000", "090121.312000", "090121.315000", "090121.317000", "090121.320000", "090121.322000", "090121.325000", "090121.327000", "090121.330000", "090121.332000", "090121.335000", "090121.338000", "090121.340000", "090121.343000", "090121.345000", "090121.349000", "090121.352000", "090121.355000", "090201.305000", "090201.308000", "090201.311000", "090201.313000", "090201.316000", "090201.318000", "090201.321000", "090201.323000", "090201.326000", "090201.328000", "090201.331000", "090201.333000", "090201.336000", "090201.339000", "090201.341000", "090201.344000", "090201.346000", "090201.350000", "090201.353000", "090201.355000", "090241.304000", "090241.307000", "090241.310000", "090241.312000", "090241.315000", "090241.317000", "090241.320000", "090241.322000", "090241.325000", "090241.327000", "090241.330000", "090241.332000", "090241.335000", "090241.338000", "090241.340000", "090241.343000", "090241.346000", "090241.349000", "090241.352000", "090241.354000", "090321.304000", "090321.307000", "090321.310000", "090321.312000", "090321.315000", "090321.317000", "090321.320000", "090321.322000", "090321.325000", "090321.327000", "090321.330000", "090321.333000", "090321.335000", "090321.338000", "090321.340000", "090321.343000", "090321.346000", "090321.349000", "090321.352000", "090321.354000", "090401.305000", "090401.308000", "090401.311000", "090401.313000", "090401.316000", "090401.318000", "090401.321000", "090401.323000", "090401.326000", "090401.329000", "090401.331000", "090401.333000", "090401.337000", "090401.340000", "090401.343000", "090401.347000", "090401.349000", "090401.352000", "090401.355000", "090401.357000", "090439.397000", "090439.400000", "090439.403000", "090439.405000", "090439.408000", "090439.410000", "090439.413000", "090439.416000", "090439.418000", "090439.421000", "090439.423000", "090439.426000", "090439.434000", "090439.442000", "090439.445000", "090439.450000", "090439.453000", "090439.455000", "090439.458000", "090439.460000"],
      "InstanceNumber": [1, 2, 3, 4, 5, 6, 7, 8, 9, 10, 11, 12, 13, 14, 15, 16, 17, 18, 19, 20, 21, 22, 23, 24, 25, 26, 27, 28, 29, 30, 31, 32, 33, 34, 35, 36, 37, 38, 39, 40, 41, 42, 43, 44, 45, 46, 47, 48, 49, 50, 51, 52, 53, 54, 55, 56, 57, 58, 59, 60, 61, 62, 63, 64, 65, 66, 67, 68, 69, 70, 71, 72, 73, 74, 75, 76, 77, 78, 79, 80, 81, 82, 83, 84, 85, 86, 87, 88, 89, 90, 91, 92, 93, 94, 95, 96, 97, 98, 99, 100, 101, 102, 103, 104, 105, 106, 107, 108, 109, 110, 111, 112, 113, 114, 115, 116, 117, 118, 119, 120, 121, 122, 123, 124, 125, 126, 127, 128, 129, 130, 131, 132, 133, 134, 135, 136, 137, 138, 139, 140, 141, 142, 143, 144, 145, 146, 147, 148, 149, 150, 151, 152, 153, 154, 155, 156, 157, 158, 159, 160, 161, 162, 163, 164, 165, 166, 167, 168, 169, 170, 171, 172, 173, 174, 175, 176, 177, 178, 179, 180, 181, 182, 183, 184, 185, 186, 187, 188, 189, 190, 191, 192, 193, 194, 195, 196, 197, 198, 199, 200],
      "LargestImagePixelValue": [3581, 3583, 3583, 3585, 3581, 3582, 3582, 3582, 3584, 3583, 3579, 3583, 3580, 3583, 3582, 3577, 3583, 3580, 3583, 3583, 3579, 3582, 3583, 3587, 3585, 3584, 3583, 3581, 3581, 3582, 3583, 3580, 3582, 3583, 3581, 3579, 3579, 3580, 3579, 3577, 3581, 3582, 3575, 3575, 3581, 3581, 3577, 3579, 3579, 3578, 3577, 3580, 3576, 3578, 3581, 3577, 3579, 3574, 3580, 3577, 3575, 3582, 3578, 3579, 3576, 3575, 3579, 3572, 3575, 3576, 3578, 3582, 3581, 3576, 3576, 3575, 3574, 3577, 3579, 3576, 3578, 3578, 3578, 3578, 3577, 3582, 3578, 3574, 3574, 3580, 3575, 3578, 3578, 3573, 3577, 3574, 3575, 3576, 3577, 3575, 3578, 3578, 3576, 3572, 3575, 3573, 3575, 3576, 3574, 3573, 3579, 3578, 3575, 3575, 3577, 3576, 3576, 3575, 3578, 3577, 3573, 3575, 3577, 3575, 3575, 3576, 3574, 3577, 3575, 3576, 3577, 3576, 3574, 3572, 3577, 3576, 3572, 3575, 3576, 3578, 3575, 3575, 3578, 3571, 3571, 3576, 3575, 3573, 3575, 3572, 3569, 3576, 3574, 3573, 3572, 3574, 3571, 3572, 3575, 3571, 3570, 3574, 3572, 3573, 3573, 3571, 3575, 3574, 3569, 3573, 3572, 3570, 3573, 3573, 3569, 3572, 3570, 3567, 3571, 3574, 3571, 3569, 3575, 3574, 3573, 3569, 3571, 3572, 3575, 3573, 3571, 3569, 3575, 3574, 3568, 3570, 3571, 3572, 3571, 3569],
      "WindowCenter": [1313.0, 1313.0, 1313.0, 1312.0, 1312.0, 1312.0, 1312.0, 1312.0, 1312.0, 1313.0, 1312.0, 1313.0, 1312.0, 1313.0, 1312.0, 1312.0, 1312.0, 1312.0, 1312.0, 1312.0, 1312.0, 1312.0, 1312.0, 1312.0, 1312.0, 1312.0, 1312.0, 1312.0, 1312.0, 1312.0, 1312.0, 1312.0, 1312.0, 1312.0, 1311.0, 1312.0, 1311.0, 1312.0, 1311.0, 1312.0, 1311.0, 1312.0, 1311.0, 1312.0, 1312.0, 1312.0, 1311.0, 1311.0, 1311.0, 1311.0, 1311.0, 1311.0, 1312.0, 1311.0, 1311.0, 1312.0, 1312.0, 1312.0, 1311.0, 1311.0, 1311.0, 1311.0, 1311.0, 1311.0, 1311.0, 1311.0, 1311.0, 1311.0, 1311.0, 1311.0, 1311.0, 1311.0, 1311.0, 1311.0, 1311.0, 1311.0, 1311.0, 1311.0, 1311.0, 1311.0, 1311.0, 1311.0, 1311.0, 1311.0, 1311.0, 1311.0, 1310.0, 1311.0, 1310.0, 1311.0, 1311.0, 1311.0, 1311.0, 1311.0, 1310.0, 1311.0, 1311.0, 1311.0, 1311.0, 1311.0, 1311.0, 1310.0, 1310.0, 1311.0, 1311.0, 1310.0, 1310.0, 1310.0, 1310.0, 1310.0, 1310.0, 1310.0, 1310.0, 1310.0, 1310.0, 1310.0, 1310.0, 1310.0, 1310.0, 1310.0, 1310.0, 1310.0, 1310.0, 1310.0, 1310.0, 1310.0, 1310.0, 1310.0, 1310.0, 1310.0, 1310.0, 1309.0, 1310.0, 1309.0, 1310.0, 1310.0, 1310.0, 1310.0, 1310.0, 1309.0, 1309.0, 1310.0, 1309.0, 1310.0, 1309.0, 1310.0, 1310.0, 1310.0, 1310.0, 1310.0, 1310.0, 1310.0, 1310.0, 1310.0, 1309.0, 1309.0, 1309.0, 1309.0, 1310.0, 1309.0, 1310.0, 1309.0, 1309.0, 1310.0, 1310.0, 1309.0, 1310.0, 1309.0, 1309.0, 1309.0, 1309.0, 1309.0, 1310.0, 1310.0, 1309.0, 1309.0, 1309.0, 1310.0, 1309.0, 1309.0, 1309.0, 1309.0, 1309.0, 1309.0, 1309.0, 1309.0, 1309.0, 1309.0, 1309.0, 1309.0, 1309.0, 1309.0, 1309.0, 1309.0, 1309.0, 1309.0, 1309.0, 1309.0, 1309.0, 1309.0],
      "WindowWidth": [3154.0, 3154.0, 3154.0, 3154.0, 3154.0, 3154.0, 3154.0, 3154.0, 3154.0, 3153.0, 3154.0, 3153.0, 3153.0, 3153.0, 3153.0, 3153.0, 3153.0, 3153.0, 3153.0, 3153.0, 3153.0, 3153.0, 3153.0, 3153.0, 3153.0, 3153.0, 3153.0, 3153.0, 3153.0, 3153.0, 3153.0, 3153.0, 3153.0, 3153.0, 3153.0, 3153.0, 3153.0, 3152.0, 3153.0, 3152.0, 3153.0, 3152.0, 3153.0, 3152.0, 3152.0, 3152.0, 3152.0, 3152.0, 3152.0, 3152.0, 3152.0, 3152.0, 3152.0, 3152.0, 3152.0, 3152.0, 3152.0, 3152.0, 3152.0, 3152.0, 3152.0, 3152.0, 3152.0, 3152.0, 3152.0, 3152.0, 3152.0, 3152.0, 3152.0, 3152.0, 3152.0, 3152.0, 3152.0, 3152.0, 3152.0, 3152.0, 3152.0, 3152.0, 3152.0, 3152.0, 3152.0, 3151.0, 3151.0, 3151.0, 3151.0, 3151.0, 3152.0, 3151.0, 3152.0, 3151.0, 3151.0, 3151.0, 3151.0, 3151.0, 3152.0, 3151.0, 3151.0, 3151.0, 3151.0, 3151.0, 3151.0, 3151.0, 3151.0, 3151.0, 3151.0, 3151.0, 3151.0, 3152.0, 3151.0, 3151.0, 3151.0, 3151.0, 3151.0, 3151.0, 3151.0, 3151.0, 3151.0, 3151.0, 3151.0, 3151.0, 3151.0, 3151.0, 3151.0, 3151.0, 3151.0, 3151.0, 3151.0, 3151.0, 3151.0, 3151.0, 3151.0, 3151.0, 3151.0, 3151.0, 3151.0, 3151.0, 3151.0, 3151.0, 3151.0, 3151.0, 3151.0, 3150.0, 3151.0, 3151.0, 3151.0, 3150.0, 3150.0, 3151.0, 3151.0, 3151.0, 3151.0, 3151.0, 3151.0, 3151.0, 3151.0, 3151.0, 3151.0, 3151.0, 3150.0, 3151.0, 3151.0, 3151.0, 3151.0, 3151.0, 3151.0, 3151.0, 3150.0, 3150.0, 3150.0, 3151.0, 3151.0, 3151.0, 3150.0, 3151.0, 3151.0, 3151.0, 3151.0, 3150.0, 3151.0, 3151.0, 3150.0, 3150.0, 3150.0, 3150.0, 3150.0, 3150.0, 3150.0, 3150.0, 3150.0, 3150.0, 3150.0, 3150.0, 3150.0, 3150.0, 3150.0, 3150.0, 3150.0, 3150.0, 3150.0, 3150.0]
    },
    "slices": {}
  }
}