{
  "AcquisitionMatrixPE": 80,
  "AcquisitionNumber": 1,
  "AcquisitionTime": "08:51:8.195000",
  "BandwidthPerPixelPhaseEncode": 48.077,
  "BaseResolution": 80,
  "BodyPartExamined": "BRAIN",
  "CoilCombinationMethod": "Sum of Squares",
  "ConsistencyInfo": "N4_VE11C_LATEST_20160120",
  "ConversionSoftware": "dcm2niix",
  "ConversionSoftwareVersion": "v1.0.20220720",
  "DerivedVendorReportedEchoSpacing": 0.000519999,
  "DeviceSerialNumber": "66112",
  "DwellTime": 2.7e-06,
  "EchoTime": 0.035,
  "EchoTrainLength": 39,
  "EffectiveEchoSpacing": 0.00026,
  "FlipAngle": 90,
  "HeudiconvVersion": "0.13.1",
  "ImageOrientationPatientDICOM": [0.984831, 0.173134, -0.0114908, -0.158979, 0.926881, 0.340025],
  "ImageOrientationText": "Tra>Cor(19.5)>Sag(-4.0)",
  "ImageType": [
    "ORIGINAL",
    "PRIMARY",
    "M",
    "ND",
    "NORM",
    "MOSAIC"
],
  "ImagingFrequency": 123.252,
  "InPlanePhaseEncodingDirectionDICOM": "COL",
  "InstitutionAddress": "Maynard 3,Hanover,NH,US,03755",
  "InstitutionName": "Dartmouth College - PBS",
  "InstitutionalDepartmentName": "Department",
  "MRAcquisitionType": "2D",
  "MagneticFieldStrength": 3,
  "Manufacturer": "Siemens",
  "ManufacturersModelName": "Prisma",
  "MatrixCoilMode": "GRAPPA",
  "Modality": "MR",
  "NonlinearGradientCorrection": false,
  "ParallelReductionFactorInPlane": 2,
  "PartialFourier": 1,
  "PatientPosition": "HFS",
  "PercentPhaseFOV": 100,
  "PercentSampling": 100,
  "PhaseEncodingDirection": "j-",
  "PhaseEncodingSteps": 79,
  "PhaseResolution": 1,
  "PixelBandwidth": 2315,
  "ProcedureStepDescription": "dbic^QA",
  "ProtocolName": "func-bold_task-rest_acq-p2",
  "PulseSequenceDetails": "%SiemensSeq%\\ep2d_bold",
  "ReceiveCoilActiveElements": "HC1-7;NC1,2",
  "ReceiveCoilName": "HeadNeck_64",
  "ReconMatrixPE": 80,
  "RefLinesPE": 24,
  "RepetitionTime": 2,
  "SAR": 0.0408279,
  "ScanOptions": "FS",
  "ScanningSequence": "EP",
  "SequenceName": "*epfid2d1_80",
  "SequenceVariant": "SK",
  "SeriesDescription": "func-bold_task-rest_acq-p2",
  "SeriesNumber": 5,
  "ShimSetting": [4136, -7713, -7514, 198, -51, -220, -32, 131],
  "SliceThickness": 3.5,
  "SliceTiming": [0.9875, 0, 1.055, 0.065, 1.12, 0.13, 1.1875, 0.1975, 1.2525, 0.2625, 1.3175, 0.33, 1.385, 0.395, 1.45, 0.46, 1.5175, 0.5275, 1.5825, 0.5925, 1.6475, 0.6575, 1.715, 0.725, 1.78, 0.79, 1.8475, 0.8575, 1.9125, 0.9225],
  "SoftwareVersions": "syngo MR E11",
  "SpacingBetweenSlices": 3.99,
  "StationName": "AWP66112",
  "TaskName": "rest",
  "TotalReadoutTime": 0.02054,
  "TxRefAmp": 210.331,
  "dcmmeta_affine": [
    [-2.954493999481201, -0.4769360423088074, -0.27738603949546814, 143.75733947753906],
    [-0.5194008946418762, 2.7806437015533447, 1.3288308382034302, -90.9912109375],
    [-0.03447228670120239, -1.020074486732483, 3.751981496810913, -18.218069076538086],
    [0.0, 0.0, 0.0, 1.0]
],
  "dcmmeta_reorient_transform": [
    [0.0, -1.0, 0.0, 79.0],
    [1.0, 0.0, 0.0, 0.0],
    [0.0, 0.0, 1.0, 0.0],
    [0.0, 0.0, 0.0, 1.0]
],
  "dcmmeta_shape": [80, 80, 30, 200],
  "dcmmeta_slice_dim": 2,
  "dcmmeta_version": 0.6,
  "global": {
    "const": {
      "AccessionNumber": "qa64",
      "AcquisitionMatrix": [80, 0, 0, 80],
      "AngioFlag": "N",
      "BitsAllocated": 16,
      "BitsStored": 12,
      "BodyPartExamined": "BRAIN",
      "Columns": 480,
      "EchoNumbers": 1,
      "EchoTime": 35.0,
      "EchoTrainLength": 39,
      "FlipAngle": 90.0,
      "HighBit": 11,
      "ImageOrientationPatient": [0.98483130793155, 0.17313363999885, -0.0114907623152, -0.1589786821278, 0.92688126959661, 0.34002483835725],
      "ImagePositionPatient": [-601.59096758598, -788.68859397665, -295.92440230396],
      "ImageType": [
        "ORIGINAL",
        "PRIMARY",
        "M",
        "ND",
        "NORM",
        "MOSAIC"
],
      "ImagedNucleus": "1H",
      "ImagingFrequency": 123.252368,
      "InPlanePhaseEncodingDirection": "COL",
      "MRAcquisitionType": "2D",
      "MagneticFieldStrength": 3.0,
      "Manufacturer": "SIEMENS",
      "ManufacturerModelName": "Prisma",
      "Modality": "MR",
      "NumberOfAverages": 1.0,
      "NumberOfPhaseEncodingSteps": 79,
      "PercentPhaseFieldOfView": 100.0,
      "PercentSampling": 100.0,
      "PerformedProcedureStepStartTime": "084917.121000",
      "PhotometricInterpretation": "MONOCHROME2",
      "PixelBandwidth": 2315.0,
      "PixelRepresentation": 0,
      "PixelSpacing": [3.0, 3.0],
      "ProtocolName": "func-bold_task-rest_acq-p2",
      "RepetitionTime": 2000.0,
      "Rows": 480,
      "SAR": 0.04082785992803,
      "SamplesPerPixel": 1,
      "ScanOptions": "FS",
      "ScanningSequence": "EP",
      "SequenceName": "*epfid2d1_80",
      "SequenceVariant": "SK",
      "SeriesDescription": "func-bold_task-rest_acq-p2",
      "SeriesNumber": 5,
      "SeriesTime": "085201.234000",
      "SliceLocation": -57.42909127412,
      "SliceThickness": 3.5,
      "SmallestImagePixelValue": 0,
      "SoftwareVersions": "syngo MR E11",
      "SpacingBetweenSlices": 3.9900000055865,
      "SpecificCharacterSet": "ISO_IR 100",
      "StudyID": "41",
      "StudyTime": "084917.055000",
      "TransmitCoilName": "Body",
      "VariableFlipAngleFlag": "N",
      "WindowCenterWidthExplanation": "Algo1",
      "dBdt": 0.0},
    "slices": {}
  },
  "time": {
    "samples": {
      "AcquisitionNumber": [1, 2, 3, 4, 5, 6, 7, 8, 9, 10, 11, 12, 13, 14, 15, 16, 17, 18, 19, 20, 21, 22, 23, 24, 25, 26, 27, 28, 29, 30, 31, 32, 33, 34, 35, 36, 37, 38, 39, 40, 41, 42, 43, 44, 45, 46, 47, 48, 49, 50, 51, 52, 53, 54, 55, 56, 57, 58, 59, 60, 61, 62, 63, 64, 65, 66, 67, 68, 69, 70, 71, 72, 73, 74, 75, 76, 77, 78, 79, 80, 81, 82, 83, 84, 85, 86, 87, 88, 89, 90, 91, 92, 93, 94, 95, 96, 97, 98, 99, 100, 101, 102, 103, 104, 105, 106, 107, 108, 109, 110, 111, 112, 113, 114, 115, 116, 117, 118, 119, 120, 121, 122, 123, 124, 125, 126, 127, 128, 129, 130, 131, 132, 133, 134, 135, 136, 137, 138, 139, 140, 141, 142, 143, 144, 145, 146, 147, 148, 149, 150, 151, 152, 153, 154, 155, 156, 157, 158, 159, 160, 161, 162, 163, 164, 165, 166, 167, 168, 169, 170, 171, 172, 173, 174, 175, 176, 177, 178, 179, 180, 181, 182, 183, 184, 185, 186, 187, 188, 189, 190, 191, 192, 193, 194, 195, 196, 197, 198, 199, 200],
      "AcquisitionTime": ["085108.195000", "085110.195000", "085112.195000", "085114.195000", "085116.195000", "085118.195000", "085120.195000", "085122.195000", "085124.195000", "085126.195000", "085128.195000", "085130.195000", "085132.195000", "085134.195000", "085136.195000", "085138.195000", "085140.195000", "085142.195000", "085144.195000", "085146.195000", "085148.195000", "085150.195000", "085152.195000", "085154.195000", "085156.195000", "085158.195000", "085200.195000", "085202.195000", "085204.195000", "085206.195000", "085208.195000", "085210.195000", "085212.195000", "085214.195000", "085216.195000", "085218.195000", "085220.195000", "085222.195000", "085224.195000", "085226.195000", "085228.195000", "085230.195000", "085232.195000", "085234.195000", "085236.195000", "085238.195000", "085240.195000", "085242.195000", "085244.195000", "085246.195000", "085248.195000", "085250.195000", "085252.195000", "085254.195000", "085256.195000", "085258.195000", "085300.195000", "085302.195000", "085304.195000", "085306.195000", "085308.195000", "085310.195000", "085312.195000", "085314.195000", "085316.195000", "085318.195000", "085320.195000", "085322.195000", "085324.195000", "085326.195000", "085328.195000", "085330.195000", "085332.195000", "085334.195000", "085336.195000", "085338.195000", "085340.195000", "085342.195000", "085344.195000", "085346.195000", "085348.195000", "085350.195000", "085352.195000", "085354.195000", "085356.195000", "085358.195000", "085400.195000", "085402.195000", "085404.195000", "085406.195000", "085408.195000", "085410.195000", "085412.195000", "085414.195000", "085416.195000", "085418.195000", "085420.195000", "085422.195000", "085424.195000", "085426.195000", "085428.195000", "085430.195000", "085432.195000", "085434.195000", "085436.195000", "085438.195000", "085440.195000", "085442.195000", "085444.195000", "085446.195000", "085448.195000", "085450.195000", "085452.195000", "085454.195000", "085456.195000", "085458.195000", "085500.195000", "085502.195000", "085504.195000", "085506.195000", "085508.195000", "085510.195000", "085512.195000", "085514.195000", "085516.195000", "085518.195000", "085520.195000", "085522.195000", "085524.195000", "085526.195000", "085528.195000", "085530.195000", "085532.195000", "085534.195000", "085536.195000", "085538.195000", "085540.195000", "085542.195000", "085544.195000", "085546.195000", "085548.195000", "085550.195000", "085552.195000", "085554.195000", "085556.195000", "085558.195000", "085600.195000", "085602.195000", "085604.195000", "085606.195000", "085608.195000", "085610.195000", "085612.195000", "085614.195000", "085616.195000", "085618.195000", "085620.195000", "085622.195000", "085624.195000", "085626.195000", "085628.195000", "085630.195000", "085632.195000", "085634.195000", "085636.195000", "085638.195000", "085640.195000", "085642.195000", "085644.195000", "085646.195000", "085648.195000", "085650.195000", "085652.195000", "085654.195000", "085656.195000", "085658.195000", "085700.195000", "085702.195000", "085704.195000", "085706.195000", "085708.195000", "085710.195000", "085712.195000", "085714.195000", "085716.195000", "085718.195000", "085720.195000", "085722.195000", "085724.195000", "085726.195000", "085728.195000", "085730.195000", "085732.195000", "085734.195000", "085736.195000", "085738.195000", "085740.195000", "085742.195000", "085744.195000", "085746.195000"],
      "ContentTime": ["085201.238000", "085201.241000", "085201.244000", "085201.246000", "085201.249000", "085201.251000", "085201.254000", "085201.256000", "085201.259000", "085201.262000", "085201.264000", "085201.267000", "085201.269000", "085201.272000", "085201.274000", "085201.277000", "085201.287000", "085201.290000", "085201.292000", "085201.295000", "085201.297000", "085201.300000", "085201.303000", "085201.305000", "085201.308000", "085201.310000", "085241.233000", "085241.236000", "085241.239000", "085241.241000", "085241.244000", "085241.246000", "085241.249000", "085241.252000", "085241.254000", "085241.257000", "085241.259000", "085241.276000", "085241.278000", "085241.281000", "085241.283000", "085241.286000", "085241.288000", "085241.291000", "085241.294000", "085241.301000", "085321.232000", "085321.235000", "085321.238000", "085321.240000", "085321.243000", "085321.245000", "085321.248000", "085321.250000", "085321.253000", "085321.256000", "085321.258000", "085321.261000", "085321.263000", "085321.266000", "085321.268000", "085321.271000", "085321.273000", "085321.276000", "085321.278000", "085321.281000", "085401.232000", "085401.235000", "085401.238000", "085401.240000", "085401.243000", "085401.245000", "085401.248000", "085401.250000", "085401.253000", "085401.256000", "085401.258000", "085401.261000", "085401.263000", "085401.266000", "085401.268000", "085401.271000", "085401.273000", "085401.276000", "085401.278000", "085401.281000", "085441.232000", "085441.235000", "085441.238000", "085441.240000", "085441.243000", "085441.246000", "085441.248000", "085441.251000", "085441.253000", "085441.256000", "085441.258000", "085441.261000", "085441.263000", "085441.266000", "085441.268000", "085441.271000", "085441.274000", "085441.276000", "085441.279000", "085441.281000", "085521.234000", "085521.236000", "085521.239000", "085521.242000", "085521.244000", "085521.247000", "085521.249000", "085521.252000", "085521.254000", "085521.257000", "085521.259000", "085521.262000", "085521.264000", "085521.267000", "085521.269000", "085521.272000", "085521.274000", "085521.277000", "085521.279000", "085521.282000", "085601.233000", "085601.235000", "085601.238000", "085601.240000", "085601.243000", "085601.246000", "085601.248000", "085601.251000", "085601.253000", "085601.256000", "085601.258000", "085601.261000", "085601.263000", "085601.266000", "085601.268000", "085601.271000", "085601.274000", "085601.276000", "085601.279000", "085601.281000", "085641.232000", "085641.235000", "085641.238000", "085641.240000", "085641.243000", "085641.245000", "085641.248000", "085641.251000", "085641.253000", "085641.256000", "085641.258000", "085641.261000", "085641.263000", "085641.266000", "085641.268000", "085641.271000", "085641.274000", "085641.276000", "085641.279000", "085641.281000", "085721.234000", "085721.236000", "085721.239000", "085721.241000", "085721.244000", "085721.247000", "085721.249000", "085721.252000", "085721.254000", "085721.257000", "085721.259000", "085721.262000", "085721.264000", "085721.267000", "085721.269000", "085721.272000", "085721.275000", "085721.277000", "085721.280000", "085721.282000", "085747.958000", "085747.961000", "085747.964000", "085747.966000", "085747.969000", "085747.972000", "085747.974000", "085747.977000", "085747.980000", "085747.982000", "085747.994000", "085748.001000", "085748.010000", "085748.014000"],
      "InstanceCreationTime": ["085201.238000", "085201.241000", "085201.244000", "085201.246000", "085201.249000", "085201.251000", "085201.254000", "085201.256000", "085201.259000", "085201.262000", "085201.264000", "085201.267000", "085201.269000", "085201.272000", "085201.274000", "085201.277000", "085201.287000", "085201.290000", "085201.292000", "085201.295000", "085201.297000", "085201.300000", "085201.303000", "085201.305000", "085201.308000", "085201.310000", "085241.233000", "085241.236000", "085241.239000", "085241.241000", "085241.244000", "085241.246000", "085241.249000", "085241.252000", "085241.254000", "085241.257000", "085241.259000", "085241.276000", "085241.278000", "085241.281000", "085241.283000", "085241.286000", "085241.288000", "085241.291000", "085241.294000", "085241.301000", "085321.232000", "085321.235000", "085321.238000", "085321.240000", "085321.243000", "085321.245000", "085321.248000", "085321.250000", "085321.253000", "085321.256000", "085321.258000", "085321.261000", "085321.263000", "085321.266000", "085321.268000", "085321.271000", "085321.273000", "085321.276000", "085321.278000", "085321.281000", "085401.232000", "085401.235000", "085401.238000", "085401.240000", "085401.243000", "085401.245000", "085401.248000", "085401.250000", "085401.253000", "085401.256000", "085401.258000", "085401.261000", "085401.263000", "085401.266000", "085401.268000", "085401.271000", "085401.273000", "085401.276000", "085401.278000", "085401.281000", "085441.232000", "085441.235000", "085441.238000", "085441.240000", "085441.243000", "085441.246000", "085441.248000", "085441.251000", "085441.253000", "085441.256000", "085441.258000", "085441.261000", "085441.263000", "085441.266000", "085441.268000", "085441.271000", "085441.274000", "085441.276000", "085441.279000", "085441.281000", "085521.234000", "085521.236000", "085521.239000", "085521.242000", "085521.244000", "085521.247000", "085521.249000", "085521.252000", "085521.254000", "085521.257000", "085521.259000", "085521.262000", "085521.264000", "085521.267000", "085521.269000", "085521.272000", "085521.274000", "085521.277000", "085521.279000", "085521.282000", "085601.233000", "085601.235000", "085601.238000", "085601.240000", "085601.243000", "085601.246000", "085601.248000", "085601.251000", "085601.253000", "085601.256000", "085601.258000", "085601.261000", "085601.263000", "085601.266000", "085601.268000", "085601.271000", "085601.274000", "085601.276000", "085601.279000", "085601.281000", "085641.232000", "085641.235000", "085641.238000", "085641.240000", "085641.243000", "085641.245000", "085641.248000", "085641.251000", "085641.253000", "085641.256000", "085641.258000", "085641.261000", "085641.263000", "085641.266000", "085641.268000", "085641.271000", "085641.274000", "085641.276000", "085641.279000", "085641.281000", "085721.234000", "085721.236000", "085721.239000", "085721.241000", "085721.244000", "085721.247000", "085721.249000", "085721.252000", "085721.254000", "085721.257000", "085721.259000", "085721.262000", "085721.264000", "085721.267000", "085721.269000", "085721.272000", "085721.275000", "085721.277000", "085721.280000", "085721.282000", "085747.958000", "085747.961000", "085747.964000", "085747.966000", "085747.969000", "085747.972000", "085747.974000", "085747.977000", "085747.980000", "085747.982000", "085747.994000", "085748.001000", "085748.010000", "085748.014000"],
      "InstanceNumber": [1, 2, 3, 4, 5, 6, 7, 8, 9, 10, 11, 12, 13, 14, 15, 16, 17, 18, 19, 20, 21, 22, 23, 24, 25, 26, 27, 28, 29, 30, 31, 32, 33, 34, 35, 36, 37, 38, 39, 40, 41, 42, 43, 44, 45, 46, 47, 48, 49, 50, 51, 52, 53, 54, 55, 56, 57, 58, 59, 60, 61, 62, 63, 64, 65, 66, 67, 68, 69, 70, 71, 72, 73, 74, 75, 76, 77, 78, 79, 80, 81, 82, 83, 84, 85, 86, 87, 88, 89, 90, 91, 92, 93, 94, 95, 96, 97, 98, 99, 100, 101, 102, 103, 104, 105, 106, 107, 108, 109, 110, 111, 112, 113, 114, 115, 116, 117, 118, 119, 120, 121, 122, 123, 124, 125, 126, 127, 128, 129, 130, 131, 132, 133, 134, 135, 136, 137, 138, 139, 140, 141, 142, 143, 144, 145, 146, 147, 148, 149, 150, 151, 152, 153, 154, 155, 156, 157, 158, 159, 160, 161, 162, 163, 164, 165, 166, 167, 168, 169, 170, 171, 172, 173, 174, 175, 176, 177, 178, 179, 180, 181, 182, 183, 184, 185, 186, 187, 188, 189, 190, 191, 192, 193, 194, 195, 196, 197, 198, 199, 200],
      "LargestImagePixelValue": [3644, 3649, 3639, 3631, 3633, 3653, 3649, 3649, 3642, 3631, 3646, 3636, 3642, 3643, 3640, 3645, 3635, 3639, 3633, 3638, 3642, 3638, 3631, 3637, 3630, 3630, 3636, 3633, 3637, 3638, 3629, 3635, 3633, 3628, 3629, 3633, 3631, 3625, 3646, 3631, 3632, 3627, 3644, 3641, 3635, 3631, 3624, 3628, 3618, 3632, 3627, 3627, 3630, 3626, 3627, 3624, 3625, 3634, 3629, 3616, 3636, 3623, 3637, 3626, 3632, 3638, 3637, 3627, 3634, 3623, 3633, 3630, 3636, 3628, 3629, 3628, 3625, 3629, 3615, 3615, 3636, 3629, 3625, 3615, 3620, 3620, 3612, 3618, 3618, 3636, 3624, 3623, 3618, 3622, 3607, 3614, 3620, 3616, 3623, 3617, 3616, 3620, 3616, 3624, 3623, 3611, 3615, 3615, 3614, 3621, 3615, 3613, 3628, 3615, 3620, 3624, 3611, 3624, 3624, 3614, 3608, 3623, 3609, 3621, 3607, 3610, 3613, 3612, 3607, 3596, 3615, 3615, 3612, 3611, 3613, 3608, 3608, 3610, 3615, 3602, 3624, 3607, 3618, 3617, 3618, 3614, 3610, 3611, 3599, 3607, 3614, 3614, 3603, 3613, 3612, 3607, 3603, 3615, 3615, 3609, 3611, 3602, 3608, 3598, 3605, 3600, 3596, 3601, 3608, 3611, 3611, 3597, 3604, 3600, 3613, 3606, 3601, 3607, 3605, 3609, 3610, 3606, 3593, 3601, 3609, 3603, 3619, 3607, 3605, 3602, 3612, 3608, 3611, 3606, 3607, 3601, 3611, 3598, 3605, 3612],
      "WindowCenter": [1376.0, 1376.0, 1376.0, 1375.0, 1376.0, 1375.0, 1375.0, 1375.0, 1375.0, 1375.0, 1375.0, 1375.0, 1375.0, 1375.0, 1375.0, 1375.0, 1374.0, 1374.0, 1374.0, 1375.0, 1374.0, 1375.0, 1375.0, 1375.0, 1375.0, 1374.0, 1374.0, 1375.0, 1374.0, 1374.0, 1374.0, 1374.0, 1375.0, 1374.0, 1374.0, 1373.0, 1374.0, 1374.0, 1374.0, 1373.0, 1374.0, 1374.0, 1374.0, 1373.0, 1374.0, 1374.0, 1373.0, 1373.0, 1373.0, 1373.0, 1373.0, 1373.0, 1373.0, 1372.0, 1373.0, 1374.0, 1373.0, 1373.0, 1374.0, 1373.0, 1373.0, 1373.0, 1373.0, 1373.0, 1373.0, 1373.0, 1373.0, 1373.0, 1372.0, 1373.0, 1373.0, 1372.0, 1372.0, 1372.0, 1372.0, 1372.0, 1372.0, 1372.0, 1372.0, 1372.0, 1372.0, 1372.0, 1372.0, 1372.0, 1372.0, 1372.0, 1372.0, 1372.0, 1371.0, 1372.0, 1372.0, 1371.0, 1371.0, 1371.0, 1372.0, 1371.0, 1371.0, 1371.0, 1372.0, 1372.0, 1372.0, 1372.0, 1371.0, 1371.0, 1371.0, 1372.0, 1371.0, 1371.0, 1371.0, 1371.0, 1372.0, 1371.0, 1372.0, 1371.0, 1371.0, 1371.0, 1371.0, 1371.0, 1371.0, 1371.0, 1371.0, 1370.0, 1371.0, 1371.0, 1371.0, 1370.0, 1370.0, 1371.0, 1371.0, 1370.0, 1371.0, 1371.0, 1370.0, 1371.0, 1370.0, 1370.0, 1371.0, 1370.0, 1370.0, 1370.0, 1370.0, 1371.0, 1371.0, 1371.0, 1371.0, 1371.0, 1371.0, 1370.0, 1371.0, 1371.0, 1371.0, 1371.0, 1371.0, 1370.0, 1370.0, 1371.0, 1371.0, 1370.0, 1370.0, 1371.0, 1371.0, 1371.0, 1371.0, 1371.0, 1370.0, 1370.0, 1370.0, 1371.0, 1370.0, 1370.0, 1370.0, 1369.0, 1370.0, 1370.0, 1369.0, 1370.0, 1370.0, 1370.0, 1371.0, 1370.0, 1370.0, 1371.0, 1370.0, 1370.0, 1370.0, 1369.0, 1370.0, 1370.0, 1370.0, 1370.0, 1370.0, 1371.0, 1370.0, 1370.0, 1370.0, 1369.0, 1369.0, 1370.0, 1370.0, 1370.0],
      "WindowWidth": [3212.0, 3211.0, 3211.0, 3211.0, 3211.0, 3211.0, 3211.0, 3211.0, 3210.0, 3210.0, 3211.0, 3211.0, 3211.0, 3211.0, 3211.0, 3211.0, 3211.0, 3211.0, 3211.0, 3210.0, 3210.0, 3210.0, 3210.0, 3210.0, 3210.0, 3211.0, 3210.0, 3210.0, 3210.0, 3210.0, 3210.0, 3210.0, 3210.0, 3210.0, 3210.0, 3210.0, 3210.0, 3210.0, 3210.0, 3210.0, 3210.0, 3210.0, 3210.0, 3210.0, 3210.0, 3210.0, 3210.0, 3210.0, 3210.0, 3210.0, 3210.0, 3210.0, 3210.0, 3210.0, 3210.0, 3209.0, 3210.0, 3210.0, 3209.0, 3210.0, 3210.0, 3210.0, 3210.0, 3210.0, 3210.0, 3210.0, 3210.0, 3210.0, 3210.0, 3210.0, 3210.0, 3210.0, 3210.0, 3210.0, 3210.0, 3210.0, 3210.0, 3210.0, 3210.0, 3210.0, 3210.0, 3210.0, 3210.0, 3210.0, 3209.0, 3210.0, 3210.0, 3210.0, 3209.0, 3209.0, 3210.0, 3210.0, 3209.0, 3210.0, 3209.0, 3209.0, 3209.0, 3209.0, 3209.0, 3209.0, 3210.0, 3209.0, 3209.0, 3209.0, 3209.0, 3209.0, 3209.0, 3209.0, 3209.0, 3209.0, 3209.0, 3209.0, 3209.0, 3209.0, 3209.0, 3209.0, 3209.0, 3209.0, 3209.0, 3209.0, 3209.0, 3209.0, 3209.0, 3209.0, 3209.0, 3209.0, 3209.0, 3209.0, 3209.0, 3209.0, 3209.0, 3209.0, 3209.0, 3208.0, 3209.0, 3209.0, 3209.0, 3208.0, 3208.0, 3208.0, 3209.0, 3208.0, 3209.0, 3209.0, 3209.0, 3209.0, 3209.0, 3209.0, 3209.0, 3208.0, 3208.0, 3208.0, 3208.0, 3208.0, 3208.0, 3208.0, 3208.0, 3208.0, 3208.0, 3209.0, 3208.0, 3209.0, 3208.0, 3208.0, 3208.0, 3208.0, 3208.0, 3208.0, 3208.0, 3208.0, 3208.0, 3209.0, 3208.0, 3208.0, 3209.0, 3208.0, 3208.0, 3208.0, 3208.0, 3208.0, 3208.0, 3208.0, 3208.0, 3208.0, 3208.0, 3208.0, 3208.0, 3208.0, 3208.0, 3208.0, 3208.0, 3208.0, 3208.0, 3208.0, 3208.0, 3208.0, 3208.0, 3208.0, 3208.0, 3208.0]
    },
    "slices": {}
  }
}