{
  "AcquisitionMatrixPE": 80,
  "AcquisitionNumber": 1,
  "AcquisitionTime": "09:32:46.495000",
  "BandwidthPerPixelPhaseEncode": 25,
  "BaseResolution": 80,
  "BodyPartExamined": "BRAIN",
  "CoilCombinationMethod": "Sum of Squares",
  "ConsistencyInfo": "N4_VE11C_LATEST_20160120",
  "ConversionSoftware": "dcm2niix",
  "ConversionSoftwareVersion": "v1.0.20220720",
  "DerivedVendorReportedEchoSpacing": 0.0005,
  "DeviceSerialNumber": "66112",
  "DwellTime": 2.7e-06,
  "EchoTime": 0.03,
  "EchoTrainLength": 80,
  "EffectiveEchoSpacing": 0.0005,
  "FlipAngle": 10,
  "HeudiconvVersion": "0.13.1",
  "ImageOrientationPatientDICOM": [0.989413, -0.145125, -0.000937954, 0.138701, 0.943671, 0.300411],
  "ImageOrientationText": "Tra>Cor(17.3)>Sag(2.4)",
  "ImageType": [
    "ORIGINAL",
    "PRIMARY",
    "M",
    "ND",
    "NORM",
    "MOSAIC"
],
  "ImagingFrequency": 123.252,
  "InPlanePhaseEncodingDirectionDICOM": "COL",
  "InstitutionAddress": "Maynard 3,Hanover,NH,US,03755",
  "InstitutionName": "Dartmouth College - PBS",
  "InstitutionalDepartmentName": "Department",
  "MRAcquisitionType": "2D",
  "MagneticFieldStrength": 3,
  "Manufacturer": "Siemens",
  "ManufacturersModelName": "Prisma",
  "MatrixCoilMode": "SENSE",
  "Modality": "MR",
  "NonlinearGradientCorrection": false,
  "PartialFourier": 1,
  "PatientPosition": "HFS",
  "PercentPhaseFOV": 100,
  "PercentSampling": 100,
  "PhaseEncodingDirection": "j-",
  "PhaseEncodingSteps": 80,
  "PhaseResolution": 1,
  "PixelBandwidth": 2315,
  "ProcedureStepDescription": "dbic^QA",
  "ProtocolName": "func-bold_fa-10",
  "PulseSequenceDetails": "%SiemensSeq%\\ep2d_bold",
  "ReceiveCoilActiveElements": "HEA;HEP",
  "ReceiveCoilName": "Head_32",
  "ReconMatrixPE": 80,
  "RepetitionTime": 2,
  "SAR": 0.0100335,
  "ScanOptions": "FS",
  "ScanningSequence": "EP",
  "SequenceName": "*epfid2d1_80",
  "SequenceVariant": "SK",
  "SeriesDescription": "func-bold_fa-10",
  "SeriesNumber": 10,
  "ShimSetting": [4143, -7703, -7526, 249, -95, -145, 42, 59],
  "SliceThickness": 3.5,
  "SliceTiming": [0.99, 0, 1.055, 0.065, 1.1225, 0.1325, 1.1875, 0.1975, 1.255, 0.265, 1.32, 0.33, 1.385, 0.395, 1.4525, 0.4625, 1.5175, 0.5275, 1.585, 0.595, 1.65, 0.66, 1.715, 0.725, 1.7825, 0.7925, 1.8475, 0.8575, 1.915, 0.925],
  "SoftwareVersions": "syngo MR E11",
  "SpacingBetweenSlices": 3.99,
  "StationName": "AWP66112",
  "TotalReadoutTime": 0.0395,
  "TxRefAmp": 221.263,
  "dcmmeta_affine": [
    [-2.968238592147827, 0.4161020815372467, 0.17042116820812225, 98.94007873535156],
    [0.4353756010532379, 2.8310136795043945, 1.186468482017517, -131.47406005859375],
    [-0.002813862869516015, -0.9012327194213867, 3.805699586868286, -11.231667518615723],
    [0.0, 0.0, 0.0, 1.0]
],
  "dcmmeta_reorient_transform": [
    [0.0, -1.0, 0.0, 79.0],
    [1.0, 0.0, 0.0, 0.0],
    [0.0, 0.0, 1.0, 0.0],
    [0.0, 0.0, 0.0, 1.0]
],
  "dcmmeta_shape": [80, 80, 30, 200],
  "dcmmeta_slice_dim": 2,
  "dcmmeta_version": 0.6,
  "global": {
    "const": {
      "AccessionNumber": "qa",
      "AcquisitionMatrix": [80, 0, 0, 80],
      "AngioFlag": "N",
      "BitsAllocated": 16,
      "BitsStored": 12,
      "BodyPartExamined": "BRAIN",
      "Columns": 480,
      "EchoNumbers": 1,
      "EchoTime": 30.0,
      "EchoTrainLength": 80,
      "FlipAngle": 10.0,
      "HighBit": 11,
      "ImageOrientationPatient": [0.98941285501191, -0.1451251962237, -0.0009379542673, 0.1387006895201, 0.94367123752322, 0.30041090891983],
      "ImagePositionPatient": [-808.68026701094, -571.30365318031, -262.11282547603],
      "ImageType": [
        "ORIGINAL",
        "PRIMARY",
        "M",
        "ND",
        "NORM",
        "MOSAIC"
],
      "ImagedNucleus": "1H",
      "ImagingFrequency": 123.252333,
      "InPlanePhaseEncodingDirection": "COL",
      "MRAcquisitionType": "2D",
      "MagneticFieldStrength": 3.0,
      "Manufacturer": "SIEMENS",
      "ManufacturerModelName": "Prisma",
      "Modality": "MR",
      "NumberOfAverages": 1.0,
      "NumberOfPhaseEncodingSteps": 80,
      "PercentPhaseFieldOfView": 100.0,
      "PercentSampling": 100.0,
      "PerformedProcedureStepStartTime": "091048.466000",
      "PhotometricInterpretation": "MONOCHROME2",
      "PixelBandwidth": 2315.0,
      "PixelRepresentation": 0,
      "PixelSpacing": [3.0, 3.0],
      "ProtocolName": "func-bold_fa-10",
      "RepetitionTime": 2000.0,
      "Rows": 480,
      "SAR": 0.01003347711693,
      "SamplesPerPixel": 1,
      "ScanOptions": "FS",
      "ScanningSequence": "EP",
      "SequenceName": "*epfid2d1_80",
      "SequenceVariant": "SK",
      "SeriesDescription": "func-bold_fa-10",
      "SeriesNumber": 10,
      "SeriesTime": "093340.188000",
      "SliceLocation": -45.582126383133,
      "SliceThickness": 3.5,
      "SmallestImagePixelValue": 0,
      "SoftwareVersions": "syngo MR E11",
      "SpacingBetweenSlices": 3.989999993128,
      "SpecificCharacterSet": "ISO_IR 100",
      "StudyID": "64",
      "StudyTime": "091048.419000",
      "TransmitCoilName": "Body",
      "VariableFlipAngleFlag": "N",
      "WindowCenterWidthExplanation": "Algo1",
      "dBdt": 0.0},
    "slices": {}
  },
  "time": {
    "samples": {
      "AcquisitionNumber": [1, 2, 3, 4, 5, 6, 7, 8, 9, 10, 11, 12, 13, 14, 15, 16, 17, 18, 19, 20, 21, 22, 23, 24, 25, 26, 27, 28, 29, 30, 31, 32, 33, 34, 35, 36, 37, 38, 39, 40, 41, 42, 43, 44, 45, 46, 47, 48, 49, 50, 51, 52, 53, 54, 55, 56, 57, 58, 59, 60, 61, 62, 63, 64, 65, 66, 67, 68, 69, 70, 71, 72, 73, 74, 75, 76, 77, 78, 79, 80, 81, 82, 83, 84, 85, 86, 87, 88, 89, 90, 91, 92, 93, 94, 95, 96, 97, 98, 99, 100, 101, 102, 103, 104, 105, 106, 107, 108, 109, 110, 111, 112, 113, 114, 115, 116, 117, 118, 119, 120, 121, 122, 123, 124, 125, 126, 127, 128, 129, 130, 131, 132, 133, 134, 135, 136, 137, 138, 139, 140, 141, 142, 143, 144, 145, 146, 147, 148, 149, 150, 151, 152, 153, 154, 155, 156, 157, 158, 159, 160, 161, 162, 163, 164, 165, 166, 167, 168, 169, 170, 171, 172, 173, 174, 175, 176, 177, 178, 179, 180, 181, 182, 183, 184, 185, 186, 187, 188, 189, 190, 191, 192, 193, 194, 195, 196, 197, 198, 199, 200],
      "AcquisitionTime": ["093246.495000", "093248.495000", "093250.495000", "093252.495000", "093254.495000", "093256.495000", "093258.495000", "093300.495000", "093302.495000", "093304.495000", "093306.495000", "093308.495000", "093310.495000", "093312.495000", "093314.495000", "093316.495000", "093318.495000", "093320.495000", "093322.495000", "093324.495000", "093326.495000", "093328.495000", "093330.495000", "093332.495000", "093334.495000", "093336.495000", "093338.495000", "093340.495000", "093342.495000", "093344.495000", "093346.495000", "093348.495000", "093350.495000", "093352.495000", "093354.495000", "093356.495000", "093358.495000", "093400.495000", "093402.495000", "093404.495000", "093406.495000", "093408.495000", "093410.495000", "093412.495000", "093414.495000", "093416.495000", "093418.495000", "093420.495000", "093422.495000", "093424.495000", "093426.495000", "093428.495000", "093430.495000", "093432.495000", "093434.495000", "093436.495000", "093438.495000", "093440.495000", "093442.495000", "093444.495000", "093446.495000", "093448.495000", "093450.495000", "093452.495000", "093454.495000", "093456.495000", "093458.495000", "093500.495000", "093502.495000", "093504.495000", "093506.495000", "093508.495000", "093510.495000", "093512.495000", "093514.495000", "093516.495000", "093518.495000", "093520.495000", "093522.495000", "093524.495000", "093526.495000", "093528.495000", "093530.495000", "093532.495000", "093534.495000", "093536.495000", "093538.495000", "093540.495000", "093542.495000", "093544.495000", "093546.495000", "093548.495000", "093550.495000", "093552.495000", "093554.495000", "093556.495000", "093558.495000", "093600.495000", "093602.495000", "093604.495000", "093606.495000", "093608.495000", "093610.495000", "093612.495000", "093614.495000", "093616.495000", "093618.495000", "093620.495000", "093622.495000", "093624.495000", "093626.495000", "093628.495000", "093630.495000", "093632.495000", "093634.495000", "093636.495000", "093638.495000", "093640.495000", "093642.495000", "093644.495000", "093646.495000", "093648.495000", "093650.495000", "093652.495000", "093654.495000", "093656.495000", "093658.495000", "093700.495000", "093702.495000", "093704.495000", "093706.495000", "093708.495000", "093710.495000", "093712.495000", "093714.495000", "093716.495000", "093718.495000", "093720.495000", "093722.495000", "093724.495000", "093726.495000", "093728.495000", "093730.495000", "093732.495000", "093734.495000", "093736.495000", "093738.495000", "093740.495000", "093742.495000", "093744.495000", "093746.495000", "093748.495000", "093750.495000", "093752.495000", "093754.495000", "093756.495000", "093758.495000", "093800.495000", "093802.495000", "093804.495000", "093806.495000", "093808.495000", "093810.495000", "093812.495000", "093814.495000", "093816.495000", "093818.495000", "093820.495000", "093822.495000", "093824.495000", "093826.495000", "093828.495000", "093830.495000", "093832.495000", "093834.495000", "093836.495000", "093838.495000", "093840.495000", "093842.495000", "093844.495000", "093846.495000", "093848.495000", "093850.495000", "093852.495000", "093854.495000", "093856.495000", "093858.495000", "093900.495000", "093902.495000", "093904.495000", "093906.495000", "093908.495000", "093910.495000", "093912.495000", "093914.495000", "093916.495000", "093918.495000", "093920.495000", "093922.495000", "093924.495000"],
      "ContentTime": ["093340.191000", "093340.195000", "093340.197000", "093340.200000", "093340.203000", "093340.205000", "093340.208000", "093340.210000", "093340.213000", "093340.215000", "093340.218000", "093340.220000", "093340.223000", "093340.226000", "093340.228000", "093340.231000", "093340.233000", "093340.236000", "093340.238000", "093340.241000", "093340.243000", "093340.246000", "093340.261000", "093340.264000", "093340.267000", "093340.269000", "093340.272000", "093420.186000", "093420.189000", "093420.192000", "093420.194000", "093420.197000", "093420.200000", "093420.202000", "093420.205000", "093420.207000", "093420.210000", "093420.212000", "093420.215000", "093420.218000", "093420.228000", "093420.231000", "093420.233000", "093420.236000", "093420.238000", "093420.241000", "093420.243000", "093500.185000", "093500.188000", "093500.191000", "093500.193000", "093500.196000", "093500.199000", "093500.201000", "093500.204000", "093500.206000", "093500.209000", "093500.211000", "093500.214000", "093500.217000", "093500.219000", "093500.222000", "093500.224000", "093500.227000", "093500.229000", "093500.232000", "093500.235000", "093540.186000", "093540.189000", "093540.192000", "093540.195000", "093540.197000", "093540.200000", "093540.202000", "093540.205000", "093540.207000", "093540.210000", "093540.213000", "093540.215000", "093540.218000", "093540.220000", "093540.223000", "093540.225000", "093540.228000", "093540.231000", "093540.233000", "093540.236000", "093620.187000", "093620.189000", "093620.192000", "093620.195000", "093620.197000", "093620.200000", "093620.202000", "093620.205000", "093620.208000", "093620.210000", "093620.213000", "093620.215000", "093620.218000", "093620.220000", "093620.223000", "093620.226000", "093620.228000", "093620.231000", "093620.233000", "093620.236000", "093640.187000", "093640.189000", "093640.192000", "093640.195000", "093640.197000", "093640.200000", "093640.202000", "093640.205000", "093640.208000", "093640.210000", "093720.185000", "093720.188000", "093720.191000", "093720.193000", "093720.196000", "093720.199000", "093720.201000", "093720.204000", "093720.206000", "093720.209000", "093720.211000", "093720.214000", "093720.217000", "093720.219000", "093720.222000", "093720.224000", "093720.227000", "093720.230000", "093720.232000", "093720.235000", "093800.186000", "093800.189000", "093800.192000", "093800.194000", "093800.197000", "093800.200000", "093800.202000", "093800.205000", "093800.207000", "093800.210000", "093800.213000", "093800.215000", "093800.218000", "093800.221000", "093800.224000", "093800.226000", "093800.229000", "093800.231000", "093800.234000", "093800.236000", "093840.186000", "093840.189000", "093840.192000", "093840.195000", "093840.197000", "093840.200000", "093840.202000", "093840.205000", "093840.208000", "093840.210000", "093840.213000", "093840.215000", "093840.218000", "093840.220000", "093840.228000", "093840.230000", "093840.233000", "093840.236000", "093840.238000", "093840.241000", "093920.195000", "093920.198000", "093920.201000", "093920.203000", "093920.206000", "093920.209000", "093920.211000", "093920.214000", "093920.216000", "093920.219000", "093920.221000", "093920.224000", "093920.227000", "093920.229000", "093920.232000", "093920.234000", "093920.237000", "093920.240000", "093920.242000", "093920.245000", "093926.027000", "093926.030000", "093926.033000"],
      "InstanceCreationTime": ["093340.191000", "093340.195000", "093340.197000", "093340.200000", "093340.203000", "093340.205000", "093340.208000", "093340.210000", "093340.213000", "093340.215000", "093340.218000", "093340.220000", "093340.223000", "093340.226000", "093340.228000", "093340.231000", "093340.233000", "093340.236000", "093340.238000", "093340.241000", "093340.243000", "093340.246000", "093340.261000", "093340.264000", "093340.267000", "093340.269000", "093340.272000", "093420.186000", "093420.189000", "093420.192000", "093420.194000", "093420.197000", "093420.200000", "093420.202000", "093420.205000", "093420.207000", "093420.210000", "093420.212000", "093420.215000", "093420.218000", "093420.228000", "093420.231000", "093420.233000", "093420.236000", "093420.238000", "093420.241000", "093420.243000", "093500.185000", "093500.188000", "093500.191000", "093500.193000", "093500.196000", "093500.199000", "093500.201000", "093500.204000", "093500.206000", "093500.209000", "093500.211000", "093500.214000", "093500.217000", "093500.219000", "093500.222000", "093500.224000", "093500.227000", "093500.229000", "093500.232000", "093500.235000", "093540.186000", "093540.189000", "093540.192000", "093540.195000", "093540.197000", "093540.200000", "093540.202000", "093540.205000", "093540.207000", "093540.210000", "093540.213000", "093540.215000", "093540.218000", "093540.220000", "093540.223000", "093540.225000", "093540.228000", "093540.231000", "093540.233000", "093540.236000", "093620.187000", "093620.189000", "093620.192000", "093620.195000", "093620.197000", "093620.200000", "093620.202000", "093620.205000", "093620.208000", "093620.210000", "093620.213000", "093620.215000", "093620.218000", "093620.220000", "093620.223000", "093620.226000", "093620.228000", "093620.231000", "093620.233000", "093620.236000", "093640.187000", "093640.189000", "093640.192000", "093640.195000", "093640.197000", "093640.200000", "093640.202000", "093640.205000", "093640.208000", "093640.210000", "093720.185000", "093720.188000", "093720.191000", "093720.193000", "093720.196000", "093720.199000", "093720.201000", "093720.204000", "093720.206000", "093720.209000", "093720.211000", "093720.214000", "093720.217000", "093720.219000", "093720.222000", "093720.224000", "093720.227000", "093720.230000", "093720.232000", "093720.235000", "093800.186000", "093800.189000", "093800.192000", "093800.194000", "093800.197000", "093800.200000", "093800.202000", "093800.205000", "093800.207000", "093800.210000", "093800.213000", "093800.215000", "093800.218000", "093800.221000", "093800.224000", "093800.226000", "093800.229000", "093800.231000", "093800.234000", "093800.236000", "093840.186000", "093840.189000", "093840.192000", "093840.195000", "093840.197000", "093840.200000", "093840.202000", "093840.205000", "093840.208000", "093840.210000", "093840.213000", "093840.215000", "093840.218000", "093840.220000", "093840.228000", "093840.230000", "093840.233000", "093840.236000", "093840.238000", "093840.241000", "093920.195000", "093920.198000", "093920.201000", "093920.203000", "093920.206000", "093920.209000", "093920.211000", "093920.214000", "093920.216000", "093920.219000", "093920.221000", "093920.224000", "093920.227000", "093920.229000", "093920.232000", "093920.234000", "093920.237000", "093920.240000", "093920.242000", "093920.245000", "093926.027000", "093926.030000", "093926.033000"],
      "InstanceNumber": [1, 2, 3, 4, 5, 6, 7, 8, 9, 10, 11, 12, 13, 14, 15, 16, 17, 18, 19, 20, 21, 22, 23, 24, 25, 26, 27, 28, 29, 30, 31, 32, 33, 34, 35, 36, 37, 38, 39, 40, 41, 42, 43, 44, 45, 46, 47, 48, 49, 50, 51, 52, 53, 54, 55, 56, 57, 58, 59, 60, 61, 62, 63, 64, 65, 66, 67, 68, 69, 70, 71, 72, 73, 74, 75, 76, 77, 78, 79, 80, 81, 82, 83, 84, 85, 86, 87, 88, 89, 90, 91, 92, 93, 94, 95, 96, 97, 98, 99, 100, 101, 102, 103, 104, 105, 106, 107, 108, 109, 110, 111, 112, 113, 114, 115, 116, 117, 118, 119, 120, 121, 122, 123, 124, 125, 126, 127, 128, 129, 130, 131, 132, 133, 134, 135, 136, 137, 138, 139, 140, 141, 142, 143, 144, 145, 146, 147, 148, 149, 150, 151, 152, 153, 154, 155, 156, 157, 158, 159, 160, 161, 162, 163, 164, 165, 166, 167, 168, 169, 170, 171, 172, 173, 174, 175, 176, 177, 178, 179, 180, 181, 182, 183, 184, 185, 186, 187, 188, 189, 190, 191, 192, 193, 194, 195, 196, 197, 198, 199, 200],
      "LargestImagePixelValue": [407, 407, 408, 407, 406, 407, 410, 407, 407, 407, 409, 408, 406, 408, 408, 407, 407, 407, 407, 408, 409, 405, 406, 408, 407, 407, 407, 408, 406, 406, 409, 406, 407, 406, 409, 407, 407, 406, 406, 408, 408, 407, 408, 409, 406, 407, 408, 409, 407, 408, 408, 406, 408, 407, 408, 408, 408, 406, 408, 409, 406, 406, 408, 407, 406, 407, 406, 407, 406, 406, 406, 408, 408, 408, 407, 407, 409, 406, 406, 408, 408, 406, 408, 408, 408, 407, 407, 408, 407, 408, 406, 407, 407, 406, 408, 407, 406, 407, 406, 408, 407, 408, 408, 407, 407, 407, 408, 405, 409, 408, 407, 409, 407, 407, 408, 406, 407, 406, 407, 406, 407, 407, 407, 408, 406, 406, 407, 406, 409, 409, 408, 406, 406, 407, 407, 406, 409, 406, 407, 406, 408, 408, 407, 407, 408, 408, 409, 408, 409, 407, 407, 410, 407, 407, 407, 408, 407, 409, 408, 407, 408, 407, 407, 407, 405, 408, 409, 407, 406, 409, 407, 408, 407, 408, 408, 407, 407, 406, 406, 409, 405, 408, 406, 407, 409, 408, 407, 408, 407, 406, 408, 407, 409, 406, 407, 408, 407, 406, 406, 407],
      "WindowCenter": [315.0, 315.0, 315.0, 315.0, 315.0, 315.0, 315.0, 315.0, 315.0, 315.0, 315.0, 315.0, 315.0, 315.0, 315.0, 315.0, 315.0, 315.0, 315.0, 315.0, 315.0, 315.0, 315.0, 315.0, 315.0, 314.0, 315.0, 315.0, 315.0, 315.0, 315.0, 315.0, 315.0, 314.0, 315.0, 315.0, 315.0, 315.0, 314.0, 315.0, 315.0, 315.0, 315.0, 315.0, 315.0, 315.0, 315.0, 314.0, 315.0, 314.0, 315.0, 314.0, 315.0, 315.0, 314.0, 314.0, 314.0, 314.0, 314.0, 314.0, 315.0, 315.0, 315.0, 314.0, 314.0, 314.0, 315.0, 314.0, 314.0, 314.0, 315.0, 314.0, 314.0, 314.0, 314.0, 314.0, 315.0, 314.0, 314.0, 314.0, 314.0, 314.0, 314.0, 314.0, 314.0, 314.0, 314.0, 314.0, 314.0, 314.0, 314.0, 314.0, 314.0, 314.0, 314.0, 314.0, 314.0, 314.0, 314.0, 315.0, 314.0, 314.0, 314.0, 314.0, 314.0, 314.0, 314.0, 314.0, 314.0, 314.0, 314.0, 314.0, 314.0, 314.0, 314.0, 314.0, 314.0, 314.0, 314.0, 314.0, 314.0, 314.0, 314.0, 314.0, 314.0, 314.0, 314.0, 314.0, 314.0, 314.0, 314.0, 314.0, 314.0, 314.0, 314.0, 314.0, 314.0, 314.0, 314.0, 314.0, 314.0, 314.0, 314.0, 314.0, 314.0, 314.0, 314.0, 314.0, 314.0, 314.0, 314.0, 315.0, 314.0, 314.0, 314.0, 314.0, 314.0, 314.0, 314.0, 314.0, 314.0, 314.0, 314.0, 314.0, 314.0, 314.0, 314.0, 314.0, 314.0, 314.0, 314.0, 314.0, 314.0, 314.0, 314.0, 314.0, 314.0, 314.0, 314.0, 314.0, 314.0, 314.0, 314.0, 314.0, 314.0, 314.0, 314.0, 314.0, 314.0, 314.0, 314.0, 314.0, 314.0, 314.0, 314.0, 314.0, 314.0, 314.0, 314.0, 314.0],
      "WindowWidth": [677.0, 678.0, 678.0, 677.0, 677.0, 677.0, 677.0, 677.0, 677.0, 677.0, 677.0, 677.0, 677.0, 677.0, 677.0, 677.0, 677.0, 677.0, 677.0, 677.0, 677.0, 677.0, 677.0, 677.0, 677.0, 676.0, 677.0, 677.0, 677.0, 677.0, 677.0, 677.0, 677.0, 677.0, 677.0, 677.0, 677.0, 677.0, 676.0, 677.0, 677.0, 677.0, 677.0, 677.0, 677.0, 677.0, 677.0, 676.0, 677.0, 676.0, 677.0, 677.0, 677.0, 677.0, 676.0, 676.0, 676.0, 676.0, 676.0, 676.0, 677.0, 677.0, 677.0, 676.0, 676.0, 676.0, 677.0, 676.0, 676.0, 676.0, 677.0, 676.0, 676.0, 676.0, 676.0, 676.0, 677.0, 676.0, 676.0, 676.0, 676.0, 676.0, 676.0, 676.0, 676.0, 676.0, 676.0, 676.0, 676.0, 676.0, 676.0, 676.0, 676.0, 676.0, 676.0, 676.0, 676.0, 676.0, 676.0, 677.0, 676.0, 676.0, 676.0, 676.0, 676.0, 676.0, 676.0, 676.0, 676.0, 676.0, 676.0, 676.0, 676.0, 676.0, 676.0, 676.0, 676.0, 676.0, 676.0, 676.0, 676.0, 676.0, 676.0, 676.0, 676.0, 676.0, 676.0, 676.0, 676.0, 676.0, 676.0, 676.0, 676.0, 676.0, 676.0, 676.0, 676.0, 676.0, 676.0, 676.0, 676.0, 676.0, 676.0, 676.0, 676.0, 676.0, 676.0, 676.0, 676.0, 676.0, 676.0, 677.0, 676.0, 676.0, 676.0, 676.0, 676.0, 676.0, 676.0, 676.0, 676.0, 676.0, 676.0, 676.0, 676.0, 676.0, 676.0, 676.0, 676.0, 676.0, 676.0, 675.0, 676.0, 676.0, 676.0, 676.0, 676.0, 676.0, 676.0, 676.0, 676.0, 676.0, 676.0, 676.0, 676.0, 676.0, 675.0, 675.0, 676.0, 676.0, 676.0, 676.0, 676.0, 676.0, 676.0, 676.0, 676.0, 676.0, 676.0, 675.0]
    },
    "slices": {}
  }
}