{
  "AcquisitionMatrixPE": 80,
  "AcquisitionNumber": 1,
  "AcquisitionTime": "09:12:15.782500",
  "BandwidthPerPixelPhaseEncode": 48.077,
  "BaseResolution": 80,
  "BodyPartExamined": "BRAIN",
  "CoilCombinationMethod": "Sum of Squares",
  "ConsistencyInfo": "N4_VE11C_LATEST_20160120",
  "ConversionSoftware": "dcm2niix",
  "ConversionSoftwareVersion": "v1.0.20220720",
  "DerivedVendorReportedEchoSpacing": 0.000519999,
  "DeviceSerialNumber": "66112",
  "DwellTime": 2.7e-06,
  "EchoTime": 0.035,
  "EchoTrainLength": 39,
  "EffectiveEchoSpacing": 0.00026,
  "FlipAngle": 90,
  "HeudiconvVersion": "0.13.1",
  "ImageOrientationPatientDICOM": [0.989413, -0.145125, -0.000937954, 0.138701, 0.943671, 0.300411],
  "ImageOrientationText": "Tra>Cor(17.3)>Sag(2.4)",
  "ImageType": [
    "ORIGINAL",
    "PRIMARY",
    "M",
    "ND",
    "NORM",
    "MOSAIC"
],
  "ImagingFrequency": 123.252,
  "InPlanePhaseEncodingDirectionDICOM": "COL",
  "InstitutionAddress": "Maynard 3,Hanover,NH,US,03755",
  "InstitutionName": "Dartmouth College - PBS",
  "InstitutionalDepartmentName": "Department",
  "MRAcquisitionType": "2D",
  "MagneticFieldStrength": 3,
  "Manufacturer": "Siemens",
  "ManufacturersModelName": "Prisma",
  "MatrixCoilMode": "GRAPPA",
  "Modality": "MR",
  "NonlinearGradientCorrection": false,
  "ParallelReductionFactorInPlane": 2,
  "PartialFourier": 1,
  "PatientPosition": "HFS",
  "PercentPhaseFOV": 100,
  "PercentSampling": 100,
  "PhaseEncodingDirection": "j-",
  "PhaseEncodingSteps": 79,
  "PhaseResolution": 1,
  "PixelBandwidth": 2315,
  "ProcedureStepDescription": "dbic^QA",
  "ProtocolName": "func-bold_task-rest_acq-p2",
  "PulseSequenceDetails": "%SiemensSeq%\\ep2d_bold",
  "ReceiveCoilActiveElements": "HEA;HEP",
  "ReceiveCoilName": "Head_32",
  "ReconMatrixPE": 80,
  "RefLinesPE": 24,
  "RepetitionTime": 2,
  "SAR": 0.0475963,
  "ScanOptions": "FS",
  "ScanningSequence": "EP",
  "SequenceName": "*epfid2d1_80",
  "SequenceVariant": "SK",
  "SeriesDescription": "func-bold_task-rest_acq-p2",
  "SeriesNumber": 5,
  "ShimSetting": [4143, -7703, -7526, 247, -97, -157, 37, 60],
  "SliceThickness": 3.5,
  "SliceTiming": [0.99, 0, 1.0575, 0.0675, 1.1225, 0.1325, 1.1875, 0.1975, 1.255, 0.265, 1.32, 0.33, 1.385, 0.3975, 1.4525, 0.4625, 1.5175, 0.5275, 1.585, 0.595, 1.65, 0.66, 1.715, 0.7275, 1.7825, 0.7925, 1.8475, 0.8575, 1.915, 0.925],
  "SoftwareVersions": "syngo MR E11",
  "SpacingBetweenSlices": 3.99,
  "StationName": "AWP66112",
  "TaskName": "rest",
  "TotalReadoutTime": 0.02054,
  "TxRefAmp": 221.263,
  "dcmmeta_affine": [
    [-2.968238592147827, 0.4161020815372467, 0.17042116820812225, 98.95372772216797],
    [0.4353756010532379, 2.8310136795043945, 1.186468482017517, -131.40740966796875],
    [-0.002813862869516015, -0.9012327194213867, 3.805699586868286, -15.284367561340332],
    [0.0, 0.0, 0.0, 1.0]
],
  "dcmmeta_reorient_transform": [
    [0.0, -1.0, 0.0, 79.0],
    [1.0, 0.0, 0.0, 0.0],
    [0.0, 0.0, 1.0, 0.0],
    [0.0, 0.0, 0.0, 1.0]
],
  "dcmmeta_shape": [80, 80, 30, 200],
  "dcmmeta_slice_dim": 2,
  "dcmmeta_version": 0.6,
  "global": {
    "const": {
      "AccessionNumber": "qa",
      "AcquisitionMatrix": [80, 0, 0, 80],
      "AngioFlag": "N",
      "BitsAllocated": 16,
      "BitsStored": 12,
      "BodyPartExamined": "BRAIN",
      "Columns": 480,
      "EchoNumbers": 1,
      "EchoTime": 35.0,
      "EchoTrainLength": 39,
      "FlipAngle": 90.0,
      "HighBit": 11,
      "ImageOrientationPatient": [0.98941285501191, -0.1451251962237, -0.0009379542673, 0.1387006895201, 0.94367123752322, 0.30041090891983],
      "ImagePositionPatient": [-808.69391933561, -571.3703057167, -266.16552551876],
      "ImageType": [
        "ORIGINAL",
        "PRIMARY",
        "M",
        "ND",
        "NORM",
        "MOSAIC"
],
      "ImagedNucleus": "1H",
      "ImagingFrequency": 123.252333,
      "InPlanePhaseEncodingDirection": "COL",
      "MRAcquisitionType": "2D",
      "MagneticFieldStrength": 3.0,
      "Manufacturer": "SIEMENS",
      "ManufacturerModelName": "Prisma",
      "Modality": "MR",
      "NumberOfAverages": 1.0,
      "NumberOfPhaseEncodingSteps": 79,
      "PercentPhaseFieldOfView": 100.0,
      "PercentSampling": 100.0,
      "PerformedProcedureStepStartTime": "091048.466000",
      "PhotometricInterpretation": "MONOCHROME2",
      "PixelBandwidth": 2315.0,
      "PixelRepresentation": 0,
      "PixelSpacing": [3.0, 3.0],
      "ProtocolName": "func-bold_task-rest_acq-p2",
      "RepetitionTime": 2000.0,
      "Rows": 480,
      "SAR": 0.04759634301108,
      "SamplesPerPixel": 1,
      "ScanOptions": "FS",
      "ScanningSequence": "EP",
      "SequenceName": "*epfid2d1_80",
      "SequenceVariant": "SK",
      "SeriesDescription": "func-bold_task-rest_acq-p2",
      "SeriesNumber": 5,
      "SeriesTime": "091300.188000",
      "SliceLocation": -49.427226901309,
      "SliceThickness": 3.5,
      "SmallestImagePixelValue": 0,
      "SoftwareVersions": "syngo MR E11",
      "SpacingBetweenSlices": 3.9899999906833,
      "SpecificCharacterSet": "ISO_IR 100",
      "StudyID": "64",
      "StudyTime": "091048.419000",
      "TransmitCoilName": "Body",
      "VariableFlipAngleFlag": "N",
      "WindowCenterWidthExplanation": "Algo1",
      "dBdt": 0.0},
    "slices": {}
  },
  "time": {
    "samples": {
      "AcquisitionNumber": [1, 2, 3, 4, 5, 6, 7, 8, 9, 10, 11, 12, 13, 14, 15, 16, 17, 18, 19, 20, 21, 22, 23, 24, 25, 26, 27, 28, 29, 30, 31, 32, 33, 34, 35, 36, 37, 38, 39, 40, 41, 42, 43, 44, 45, 46, 47, 48, 49, 50, 51, 52, 53, 54, 55, 56, 57, 58, 59, 60, 61, 62, 63, 64, 65, 66, 67, 68, 69, 70, 71, 72, 73, 74, 75, 76, 77, 78, 79, 80, 81, 82, 83, 84, 85, 86, 87, 88, 89, 90, 91, 92, 93, 94, 95, 96, 97, 98, 99, 100, 101, 102, 103, 104, 105, 106, 107, 108, 109, 110, 111, 112, 113, 114, 115, 116, 117, 118, 119, 120, 121, 122, 123, 124, 125, 126, 127, 128, 129, 130, 131, 132, 133, 134, 135, 136, 137, 138, 139, 140, 141, 142, 143, 144, 145, 146, 147, 148, 149, 150, 151, 152, 153, 154, 155, 156, 157, 158, 159, 160, 161, 162, 163, 164, 165, 166, 167, 168, 169, 170, 171, 172, 173, 174, 175, 176, 177, 178, 179, 180, 181, 182, 183, 184, 185, 186, 187, 188, 189, 190, 191, 192, 193, 194, 195, 196, 197, 198, 199, 200],
      "AcquisitionTime": ["091215.782500", "091217.782500", "091219.782500", "091221.782500", "091223.782500", "091225.782500", "091227.782500", "091229.782500", "091231.782500", "091233.782500", "091235.782500", "091237.782500", "091239.782500", "091241.782500", "091243.782500", "091245.782500", "091247.782500", "091249.782500", "091251.782500", "091253.782500", "091255.782500", "091257.782500", "091259.782500", "091301.782500", "091303.782500", "091305.782500", "091307.782500", "091309.782500", "091311.782500", "091313.782500", "091315.782500", "091317.782500", "091319.782500", "091321.782500", "091323.782500", "091325.782500", "091327.782500", "091329.782500", "091331.782500", "091333.782500", "091335.782500", "091337.782500", "091339.782500", "091341.782500", "091343.782500", "091345.782500", "091347.782500", "091349.782500", "091351.782500", "091353.782500", "091355.782500", "091357.782500", "091359.782500", "091401.782500", "091403.782500", "091405.782500", "091407.782500", "091409.782500", "091411.782500", "091413.782500", "091415.782500", "091417.782500", "091419.782500", "091421.782500", "091423.782500", "091425.782500", "091427.782500", "091429.782500", "091431.782500", "091433.782500", "091435.782500", "091437.782500", "091439.782500", "091441.782500", "091443.782500", "091445.782500", "091447.782500", "091449.782500", "091451.782500", "091453.782500", "091455.782500", "091457.782500", "091459.782500", "091501.782500", "091503.782500", "091505.782500", "091507.782500", "091509.782500", "091511.782500", "091513.782500", "091515.782500", "091517.782500", "091519.782500", "091521.782500", "091523.782500", "091525.782500", "091527.782500", "091529.782500", "091531.782500", "091533.782500", "091535.782500", "091537.782500", "091539.782500", "091541.782500", "091543.782500", "091545.782500", "091547.782500", "091549.782500", "091551.782500", "091553.782500", "091555.782500", "091557.782500", "091559.782500", "091601.782500", "091603.782500", "091605.782500", "091607.782500", "091609.782500", "091611.782500", "091613.782500", "091615.782500", "091617.782500", "091619.782500", "091621.782500", "091623.782500", "091625.782500", "091627.782500", "091629.782500", "091631.782500", "091633.782500", "091635.782500", "091637.782500", "091639.782500", "091641.782500", "091643.782500", "091645.782500", "091647.782500", "091649.782500", "091651.782500", "091653.782500", "091655.782500", "091657.782500", "091659.782500", "091701.782500", "091703.782500", "091705.782500", "091707.782500", "091709.782500", "091711.782500", "091713.782500", "091715.782500", "091717.782500", "091719.782500", "091721.782500", "091723.782500", "091725.782500", "091727.782500", "091729.782500", "091731.782500", "091733.782500", "091735.782500", "091737.782500", "091739.782500", "091741.782500", "091743.782500", "091745.782500", "091747.782500", "091749.782500", "091751.782500", "091753.782500", "091755.782500", "091757.782500", "091759.782500", "091801.782500", "091803.782500", "091805.782500", "091807.782500", "091809.782500", "091811.782500", "091813.782500", "091815.782500", "091817.782500", "091819.782500", "091821.782500", "091823.782500", "091825.782500", "091827.782500", "091829.782500", "091831.782500", "091833.782500", "091835.782500", "091837.782500", "091839.782500", "091841.782500", "091843.782500", "091845.782500", "091847.782500", "091849.782500", "091851.782500", "091853.782500"],
      "ContentTime": ["091300.191000", "091300.195000", "091300.206000", "091300.209000", "091300.211000", "091300.214000", "091300.217000", "091300.219000", "091300.222000", "091300.225000", "091300.227000", "091300.230000", "091300.232000", "091300.235000", "091300.237000", "091300.240000", "091300.243000", "091300.245000", "091300.248000", "091300.250000", "091300.253000", "091300.261000", "091340.187000", "091340.200000", "091340.202000", "091340.205000", "091340.207000", "091340.210000", "091340.213000", "091340.215000", "091340.218000", "091340.220000", "091340.223000", "091340.226000", "091340.228000", "091340.231000", "091340.233000", "091340.236000", "091340.239000", "091340.241000", "091340.244000", "091340.247000", "091420.185000", "091420.188000", "091420.191000", "091420.194000", "091420.196000", "091420.199000", "091420.201000", "091420.204000", "091420.207000", "091420.209000", "091420.212000", "091420.214000", "091420.217000", "091420.220000", "091420.222000", "091420.225000", "091420.228000", "091420.230000", "091420.233000", "091420.235000", "091500.187000", "091500.189000", "091500.192000", "091500.209000", "091500.212000", "091500.214000", "091500.217000", "091500.219000", "091500.222000", "091500.225000", "091500.227000", "091500.230000", "091500.232000", "091500.235000", "091500.238000", "091500.240000", "091500.243000", "091500.246000", "091500.248000", "091500.251000", "091540.188000", "091540.191000", "091540.194000", "091540.197000", "091540.199000", "091540.202000", "091540.204000", "091540.207000", "091540.210000", "091540.212000", "091540.215000", "091540.218000", "091540.220000", "091540.223000", "091540.225000", "091540.228000", "091540.230000", "091540.233000", "091540.236000", "091540.238000", "091620.185000", "091620.188000", "091620.191000", "091620.194000", "091620.196000", "091620.199000", "091620.202000", "091620.204000", "091620.207000", "091620.210000", "091620.212000", "091620.215000", "091620.217000", "091620.220000", "091620.223000", "091620.225000", "091620.228000", "091620.230000", "091620.233000", "091620.236000", "091640.186000", "091640.188000", "091640.191000", "091640.194000", "091640.196000", "091640.199000", "091640.207000", "091640.210000", "091640.212000", "091640.215000", "091720.187000", "091720.189000", "091720.192000", "091720.195000", "091720.197000", "091720.219000", "091720.222000", "091720.225000", "091720.227000", "091720.230000", "091720.232000", "091720.235000", "091720.238000", "091720.240000", "091720.243000", "091720.245000", "091720.248000", "091720.251000", "091720.253000", "091720.256000", "091800.187000", "091800.189000", "091800.192000", "091800.195000", "091800.198000", "091800.200000", "091800.203000", "091800.206000", "091800.208000", "091800.211000", "091800.214000", "091800.216000", "091800.219000", "091800.221000", "091800.224000", "091800.227000", "091800.229000", "091800.232000", "091800.235000", "091800.237000", "091840.185000", "091840.188000", "091840.191000", "091840.194000", "091840.196000", "091840.199000", "091840.202000", "091840.204000", "091840.207000", "091840.209000", "091840.212000", "091840.215000", "091840.217000", "091840.220000", "091840.222000", "091840.225000", "091840.228000", "091840.230000", "091840.233000", "091840.236000", "091855.351000", "091855.354000", "091855.356000", "091855.359000", "091855.362000", "091855.364000", "091855.367000", "091855.370000"],
      "InstanceCreationTime": ["091300.191000", "091300.195000", "091300.206000", "091300.209000", "091300.211000", "091300.214000", "091300.217000", "091300.219000", "091300.222000", "091300.225000", "091300.227000", "091300.230000", "091300.232000", "091300.235000", "091300.237000", "091300.240000", "091300.243000", "091300.245000", "091300.248000", "091300.250000", "091300.253000", "091300.261000", "091340.187000", "091340.200000", "091340.202000", "091340.205000", "091340.207000", "091340.210000", "091340.213000", "091340.215000", "091340.218000", "091340.220000", "091340.223000", "091340.226000", "091340.228000", "091340.231000", "091340.233000", "091340.236000", "091340.239000", "091340.241000", "091340.244000", "091340.247000", "091420.185000", "091420.188000", "091420.191000", "091420.194000", "091420.196000", "091420.199000", "091420.201000", "091420.204000", "091420.207000", "091420.209000", "091420.212000", "091420.214000", "091420.217000", "091420.220000", "091420.222000", "091420.225000", "091420.228000", "091420.230000", "091420.233000", "091420.235000", "091500.187000", "091500.189000", "091500.192000", "091500.209000", "091500.212000", "091500.214000", "091500.217000", "091500.219000", "091500.222000", "091500.225000", "091500.227000", "091500.230000", "091500.232000", "091500.235000", "091500.238000", "091500.240000", "091500.243000", "091500.246000", "091500.248000", "091500.251000", "091540.188000", "091540.191000", "091540.194000", "091540.197000", "091540.199000", "091540.202000", "091540.204000", "091540.207000", "091540.210000", "091540.212000", "091540.215000", "091540.218000", "091540.220000", "091540.223000", "091540.225000", "091540.228000", "091540.230000", "091540.233000", "091540.236000", "091540.238000", "091620.185000", "091620.188000", "091620.191000", "091620.194000", "091620.196000", "091620.199000", "091620.202000", "091620.204000", "091620.207000", "091620.210000", "091620.212000", "091620.215000", "091620.217000", "091620.220000", "091620.223000", "091620.225000", "091620.228000", "091620.230000", "091620.233000", "091620.236000", "091640.186000", "091640.188000", "091640.191000", "091640.194000", "091640.196000", "091640.199000", "091640.207000", "091640.210000", "091640.212000", "091640.215000", "091720.187000", "091720.189000", "091720.192000", "091720.195000", "091720.197000", "091720.219000", "091720.222000", "091720.225000", "091720.227000", "091720.230000", "091720.232000", "091720.235000", "091720.238000", "091720.240000", "091720.243000", "091720.245000", "091720.248000", "091720.251000", "091720.253000", "091720.256000", "091800.187000", "091800.189000", "091800.192000", "091800.195000", "091800.198000", "091800.200000", "091800.203000", "091800.206000", "091800.208000", "091800.211000", "091800.214000", "091800.216000", "091800.219000", "091800.221000", "091800.224000", "091800.227000", "091800.229000", "091800.232000", "091800.235000", "091800.237000", "091840.185000", "091840.188000", "091840.191000", "091840.194000", "091840.196000", "091840.199000", "091840.202000", "091840.204000", "091840.207000", "091840.209000", "091840.212000", "091840.215000", "091840.217000", "091840.220000", "091840.222000", "091840.225000", "091840.228000", "091840.230000", "091840.233000", "091840.236000", "091855.351000", "091855.354000", "091855.356000", "091855.359000", "091855.362000", "091855.364000", "091855.367000", "091855.370000"],
      "InstanceNumber": [1, 2, 3, 4, 5, 6, 7, 8, 9, 10, 11, 12, 13, 14, 15, 16, 17, 18, 19, 20, 21, 22, 23, 24, 25, 26, 27, 28, 29, 30, 31, 32, 33, 34, 35, 36, 37, 38, 39, 40, 41, 42, 43, 44, 45, 46, 47, 48, 49, 50, 51, 52, 53, 54, 55, 56, 57, 58, 59, 60, 61, 62, 63, 64, 65, 66, 67, 68, 69, 70, 71, 72, 73, 74, 75, 76, 77, 78, 79, 80, 81, 82, 83, 84, 85, 86, 87, 88, 89, 90, 91, 92, 93, 94, 95, 96, 97, 98, 99, 100, 101, 102, 103, 104, 105, 106, 107, 108, 109, 110, 111, 112, 113, 114, 115, 116, 117, 118, 119, 120, 121, 122, 123, 124, 125, 126, 127, 128, 129, 130, 131, 132, 133, 134, 135, 136, 137, 138, 139, 140, 141, 142, 143, 144, 145, 146, 147, 148, 149, 150, 151, 152, 153, 154, 155, 156, 157, 158, 159, 160, 161, 162, 163, 164, 165, 166, 167, 168, 169, 170, 171, 172, 173, 174, 175, 176, 177, 178, 179, 180, 181, 182, 183, 184, 185, 186, 187, 188, 189, 190, 191, 192, 193, 194, 195, 196, 197, 198, 199, 200],
      "LargestImagePixelValue": [2348, 2348, 2352, 2344, 2353, 2345, 2352, 2350, 2345, 2348, 2343, 2349, 2344, 2346, 2347, 2344, 2342, 2341, 2344, 2347, 2348, 2353, 2343, 2340, 2349, 2353, 2359, 2351, 2343, 2347, 2342, 2340, 2348, 2346, 2349, 2347, 2348, 2349, 2345, 2350, 2353, 2349, 2353, 2353, 2350, 2345, 2347, 2348, 2345, 2351, 2346, 2348, 2354, 2350, 2342, 2345, 2340, 2353, 2342, 2347, 2346, 2349, 2347, 2345, 2355, 2351, 2355, 2347, 2349, 2352, 2350, 2353, 2344, 2349, 2352, 2341, 2348, 2345, 2345, 2347, 2353, 2345, 2346, 2347, 2350, 2352, 2347, 2345, 2345, 2351, 2351, 2356, 2351, 2348, 2345, 2350, 2347, 2349, 2344, 2354, 2346, 2355, 2351, 2348, 2346, 2349, 2357, 2347, 2353, 2355, 2344, 2353, 2352, 2345, 2343, 2353, 2349, 2350, 2351, 2344, 2357, 2352, 2348, 2355, 2351, 2350, 2351, 2356, 2353, 2348, 2354, 2349, 2354, 2352, 2347, 2354, 2352, 2351, 2352, 2355, 2349, 2355, 2354, 2352, 2346, 2344, 2352, 2348, 2345, 2352, 2347, 2345, 2348, 2350, 2354, 2355, 2350, 2349, 2345, 2351, 2354, 2354, 2351, 2350, 2352, 2350, 2346, 2349, 2347, 2348, 2350, 2350, 2349, 2351, 2355, 2353, 2348, 2362, 2358, 2354, 2342, 2348, 2347, 2354, 2355, 2352, 2347, 2354, 2347, 2346, 2347, 2351, 2354, 2358, 2349, 2355, 2351, 2348, 2351, 2350],
      "WindowCenter": [1059.0, 1059.0, 1058.0, 1059.0, 1058.0, 1058.0, 1058.0, 1058.0, 1058.0, 1058.0, 1058.0, 1058.0, 1060.0, 1058.0, 1058.0, 1058.0, 1058.0, 1058.0, 1058.0, 1058.0, 1058.0, 1058.0, 1058.0, 1058.0, 1058.0, 1058.0, 1058.0, 1058.0, 1058.0, 1058.0, 1058.0, 1058.0, 1058.0, 1058.0, 1058.0, 1058.0, 1058.0, 1058.0, 1058.0, 1059.0, 1058.0, 1059.0, 1059.0, 1058.0, 1058.0, 1058.0, 1058.0, 1059.0, 1058.0, 1058.0, 1058.0, 1058.0, 1058.0, 1058.0, 1058.0, 1059.0, 1058.0, 1058.0, 1058.0, 1058.0, 1058.0, 1059.0, 1058.0, 1058.0, 1058.0, 1059.0, 1058.0, 1058.0, 1058.0, 1059.0, 1058.0, 1058.0, 1058.0, 1058.0, 1058.0, 1058.0, 1058.0, 1058.0, 1058.0, 1058.0, 1058.0, 1058.0, 1058.0, 1058.0, 1058.0, 1058.0, 1058.0, 1058.0, 1058.0, 1058.0, 1058.0, 1058.0, 1058.0, 1058.0, 1058.0, 1058.0, 1058.0, 1058.0, 1058.0, 1058.0, 1058.0, 1058.0, 1058.0, 1058.0, 1058.0, 1058.0, 1058.0, 1058.0, 1059.0, 1058.0, 1058.0, 1058.0, 1058.0, 1057.0, 1058.0, 1057.0, 1057.0, 1057.0, 1058.0, 1058.0, 1059.0, 1057.0, 1057.0, 1057.0, 1057.0, 1057.0, 1057.0, 1057.0, 1057.0, 1057.0, 1057.0, 1058.0, 1057.0, 1058.0, 1057.0, 1057.0, 1057.0, 1057.0, 1057.0, 1058.0, 1058.0, 1057.0, 1057.0, 1057.0, 1058.0, 1057.0, 1057.0, 1058.0, 1057.0, 1057.0, 1058.0, 1057.0, 1057.0, 1057.0, 1058.0, 1058.0, 1057.0, 1057.0, 1058.0, 1057.0, 1057.0, 1057.0, 1057.0, 1057.0, 1057.0, 1057.0, 1057.0, 1057.0, 1057.0, 1057.0, 1057.0, 1057.0, 1057.0, 1057.0, 1057.0, 1058.0, 1057.0, 1057.0, 1057.0, 1057.0, 1057.0, 1057.0, 1057.0, 1057.0, 1057.0, 1057.0, 1057.0, 1057.0, 1057.0, 1057.0, 1057.0, 1057.0, 1057.0, 1057.0, 1057.0, 1057.0, 1057.0, 1057.0, 1057.0, 1057.0],
      "WindowWidth": [2377.0, 2376.0, 2376.0, 2376.0, 2376.0, 2376.0, 2376.0, 2376.0, 2376.0, 2376.0, 2376.0, 2376.0, 2376.0, 2376.0, 2376.0, 2376.0, 2376.0, 2376.0, 2376.0, 2376.0, 2376.0, 2376.0, 2376.0, 2376.0, 2376.0, 2376.0, 2376.0, 2376.0, 2376.0, 2376.0, 2375.0, 2376.0, 2375.0, 2376.0, 2375.0, 2375.0, 2376.0, 2376.0, 2375.0, 2376.0, 2376.0, 2376.0, 2376.0, 2375.0, 2375.0, 2375.0, 2375.0, 2376.0, 2375.0, 2375.0, 2375.0, 2375.0, 2375.0, 2375.0, 2375.0, 2376.0, 2375.0, 2375.0, 2375.0, 2375.0, 2375.0, 2376.0, 2375.0, 2375.0, 2375.0, 2376.0, 2375.0, 2375.0, 2375.0, 2375.0, 2375.0, 2375.0, 2375.0, 2375.0, 2374.0, 2375.0, 2375.0, 2375.0, 2375.0, 2375.0, 2375.0, 2375.0, 2375.0, 2374.0, 2375.0, 2375.0, 2375.0, 2375.0, 2375.0, 2374.0, 2375.0, 2374.0, 2374.0, 2374.0, 2374.0, 2374.0, 2374.0, 2374.0, 2374.0, 2375.0, 2375.0, 2374.0, 2374.0, 2374.0, 2374.0, 2374.0, 2374.0, 2374.0, 2375.0, 2374.0, 2375.0, 2374.0, 2374.0, 2375.0, 2374.0, 2374.0, 2374.0, 2374.0, 2374.0, 2374.0, 2375.0, 2374.0, 2374.0, 2374.0, 2374.0, 2374.0, 2374.0, 2374.0, 2374.0, 2374.0, 2374.0, 2375.0, 2374.0, 2375.0, 2374.0, 2374.0, 2374.0, 2374.0, 2374.0, 2375.0, 2375.0, 2374.0, 2374.0, 2374.0, 2375.0, 2374.0, 2374.0, 2375.0, 2374.0, 2374.0, 2375.0, 2374.0, 2374.0, 2374.0, 2373.0, 2374.0, 2374.0, 2374.0, 2374.0, 2374.0, 2374.0, 2374.0, 2374.0, 2374.0, 2373.0, 2374.0, 2373.0, 2373.0, 2373.0, 2373.0, 2374.0, 2374.0, 2373.0, 2373.0, 2374.0, 2374.0, 2374.0, 2373.0, 2373.0, 2373.0, 2373.0, 2373.0, 2373.0, 2373.0, 2373.0, 2373.0, 2373.0, 2373.0, 2374.0, 2373.0, 2373.0, 2373.0, 2373.0, 2373.0, 2373.0, 2373.0, 2373.0, 2373.0, 2373.0, 2373.0]
    },
    "slices": {}
  }
}