{
  "AcquisitionMatrixPE": 80,
  "AcquisitionNumber": 1,
  "AcquisitionTime": "10:48:25.122500",
  "BandwidthPerPixelPhaseEncode": 44.643,
  "BaseResolution": 80,
  "BodyPartExamined": "BRAIN",
  "CoilCombinationMethod": "Sum of Squares",
  "ConsistencyInfo": "N4_VE11C_LATEST_20160120",
  "ConversionSoftware": "dcm2niix",
  "ConversionSoftwareVersion": "v1.0.20220720",
  "DerivedVendorReportedEchoSpacing": 0.000559998,
  "DeviceSerialNumber": "66112",
  "DwellTime": 2.7e-06,
  "EchoTime": 0.035,
  "EchoTrainLength": 39,
  "EffectiveEchoSpacing": 0.000279999,
  "FlipAngle": 90,
  "HeudiconvVersion": "0.13.1",
  "ImageOrientationPatientDICOM": [0.992391, -0.123091, 0.00304086, 0.116404, 0.945955, 0.302686],
  "ImageOrientationText": "Tra>Cor(17.5)>Sag(2.3)",
  "ImageType": [
    "ORIGINAL",
    "PRIMARY",
    "M",
    "ND",
    "NORM",
    "MOSAIC"
],
  "ImagingFrequency": 123.252,
  "InPlanePhaseEncodingDirectionDICOM": "COL",
  "InstitutionAddress": "Maynard 3,Hanover,NH,US,03755",
  "InstitutionName": "Dartmouth College - PBS",
  "InstitutionalDepartmentName": "Department",
  "MRAcquisitionType": "2D",
  "MagneticFieldStrength": 3,
  "Manufacturer": "Siemens",
  "ManufacturersModelName": "Prisma",
  "Modality": "MR",
  "MultibandAccelerationFactor": 4,
  "NonlinearGradientCorrection": false,
  "ParallelReductionFactorInPlane": 2,
  "PartialFourier": 1,
  "PatientPosition": "HFS",
  "PercentPhaseFOV": 100,
  "PercentSampling": 100,
  "PhaseEncodingDirection": "j-",
  "PhaseEncodingSteps": 79,
  "PhaseResolution": 1,
  "PixelBandwidth": 2315,
  "ProcedureStepDescription": "dbic^QA",
  "ProtocolName": "func-bold_task-rest_acq-p2-s4-3.5mm",
  "PulseSequenceDetails": "%SiemensSeq%\\ep2d_bold",
  "ReceiveCoilActiveElements": "HEA;HEP",
  "ReceiveCoilName": "Head_32",
  "ReconMatrixPE": 80,
  "RefLinesPE": 24,
  "RepetitionTime": 2,
  "SAR": 0.0209572,
  "ScanOptions": "FS",
  "ScanningSequence": "EP",
  "SequenceName": "*epfid2d1_80",
  "SequenceVariant": "SK",
  "SeriesDescription": "func-bold_task-rest_acq-p2-s4-3.5mm",
  "SeriesNumber": 7,
  "ShimSetting": [4146, -7689, -7522, 257, -92, -72, -91, 104],
  "SliceThickness": 3.5,
  "SliceTiming": [1.485, 0, 0.99, 0.2475, 1.2375, 0.7425, 1.7325, 0.495, 1.485, 0, 0.99, 0.2475, 1.2375, 0.7425, 1.7325, 0.495, 1.485, 0, 0.99, 0.2475, 1.2375, 0.7425, 1.7325, 0.495, 1.485, 0, 0.99, 0.2475, 1.2375, 0.7425, 1.7325, 0.495],
  "SoftwareVersions": "syngo MR E11",
  "SpacingBetweenSlices": 3.99,
  "StationName": "AWP66112",
  "TaskName": "rest",
  "TotalReadoutTime": 0.0221199,
  "TxRefAmp": 235.951,
  "dcmmeta_affine": [
    [-2.977172374725342, 0.34921059012413025, 0.16013607382774353, 101.43144989013672],
    [0.3692718744277954, 2.8378655910491943, 1.1971158981323242, -138.7122039794922],
    [0.009122594259679317, -0.9080586433410645, 3.8028106689453125, -28.379777908325195],
    [0.0, 0.0, 0.0, 1.0]
],
  "dcmmeta_reorient_transform": [
    [0.0, -1.0, 0.0, 79.0],
    [1.0, 0.0, 0.0, 0.0],
    [0.0, 0.0, 1.0, 0.0],
    [0.0, 0.0, 0.0, 1.0]
],
  "dcmmeta_shape": [80, 80, 32, 200],
  "dcmmeta_slice_dim": 2,
  "dcmmeta_version": 0.6,
  "global": {
    "const": {
      "AccessionNumber": "qa",
      "AcquisitionMatrix": [80, 0, 0, 80],
      "AngioFlag": "N",
      "BitsAllocated": 16,
      "BitsStored": 12,
      "BodyPartExamined": "BRAIN",
      "Columns": 480,
      "EchoNumbers": 1,
      "EchoTime": 35.0,
      "EchoTrainLength": 39,
      "FlipAngle": 90.0,
      "HighBit": 11,
      "ImageOrientationPatient": [0.99239077553541, -0.1230906242309, 0.00304086478907, 0.11640353116851, 0.945955219057, 0.30268620958069],
      "ImagePositionPatient": [-794.29566787852, -579.19794376061, -283.55265461801],
      "ImageType": [
        "ORIGINAL",
        "PRIMARY",
        "M",
        "ND",
        "NORM",
        "MOSAIC"
],
      "ImagedNucleus": "1H",
      "ImagingFrequency": 123.252456,
      "InPlanePhaseEncodingDirection": "COL",
      "MRAcquisitionType": "2D",
      "MagneticFieldStrength": 3.0,
      "Manufacturer": "SIEMENS",
      "ManufacturerModelName": "Prisma",
      "Modality": "MR",
      "NumberOfAverages": 1.0,
      "NumberOfPhaseEncodingSteps": 79,
      "PercentPhaseFieldOfView": 100.0,
      "PercentSampling": 100.0,
      "PerformedProcedureStepStartTime": "102919.333000",
      "PhotometricInterpretation": "MONOCHROME2",
      "PixelBandwidth": 2315.0,
      "PixelRepresentation": 0,
      "PixelSpacing": [3.0, 3.0],
      "ProtocolName": "func-bold_task-rest_acq-p2-s4-3.5mm",
      "RepetitionTime": 2000.0,
      "Rows": 480,
      "SAR": 0.02095717991138,
      "SamplesPerPixel": 1,
      "ScanOptions": "FS",
      "ScanningSequence": "EP",
      "SequenceName": "*epfid2d1_80",
      "SequenceVariant": "SK",
      "SeriesDescription": "func-bold_task-rest_acq-p2-s4-3.5mm",
      "SeriesNumber": 7,
      "SeriesTime": "104910.743000",
      "SliceLocation": -64.595154516669,
      "SliceThickness": 3.5,
      "SmallestImagePixelValue": 0,
      "SoftwareVersions": "syngo MR E11",
      "SpacingBetweenSlices": 3.9899999667664,
      "SpecificCharacterSet": "ISO_IR 100",
      "StudyID": "54",
      "StudyTime": "102919.224000",
      "TransmitCoilName": "Body",
      "VariableFlipAngleFlag": "N",
      "WindowCenterWidthExplanation": "Algo1",
      "dBdt": 0.0},
    "slices": {}
  },
  "time": {
    "samples": {
      "AcquisitionNumber": [1, 2, 3, 4, 5, 6, 7, 8, 9, 10, 11, 12, 13, 14, 15, 16, 17, 18, 19, 20, 21, 22, 23, 24, 25, 26, 27, 28, 29, 30, 31, 32, 33, 34, 35, 36, 37, 38, 39, 40, 41, 42, 43, 44, 45, 46, 47, 48, 49, 50, 51, 52, 53, 54, 55, 56, 57, 58, 59, 60, 61, 62, 63, 64, 65, 66, 67, 68, 69, 70, 71, 72, 73, 74, 75, 76, 77, 78, 79, 80, 81, 82, 83, 84, 85, 86, 87, 88, 89, 90, 91, 92, 93, 94, 95, 96, 97, 98, 99, 100, 101, 102, 103, 104, 105, 106, 107, 108, 109, 110, 111, 112, 113, 114, 115, 116, 117, 118, 119, 120, 121, 122, 123, 124, 125, 126, 127, 128, 129, 130, 131, 132, 133, 134, 135, 136, 137, 138, 139, 140, 141, 142, 143, 144, 145, 146, 147, 148, 149, 150, 151, 152, 153, 154, 155, 156, 157, 158, 159, 160, 161, 162, 163, 164, 165, 166, 167, 168, 169, 170, 171, 172, 173, 174, 175, 176, 177, 178, 179, 180, 181, 182, 183, 184, 185, 186, 187, 188, 189, 190, 191, 192, 193, 194, 195, 196, 197, 198, 199, 200],
      "AcquisitionTime": ["104825.122500", "104827.122500", "104829.122500", "104831.122500", "104833.122500", "104835.122500", "104837.122500", "104839.122500", "104841.122500", "104843.122500", "104845.122500", "104847.122500", "104849.122500", "104851.122500", "104853.122500", "104855.122500", "104857.122500", "104859.122500", "104901.122500", "104903.122500", "104905.122500", "104907.122500", "104909.122500", "104911.122500", "104913.122500", "104915.122500", "104917.122500", "104919.122500", "104921.122500", "104923.122500", "104925.122500", "104927.122500", "104929.122500", "104931.122500", "104933.122500", "104935.122500", "104937.122500", "104939.122500", "104941.122500", "104943.122500", "104945.122500", "104947.122500", "104949.122500", "104951.122500", "104953.122500", "104955.122500", "104957.122500", "104959.122500", "105001.122500", "105003.122500", "105005.122500", "105007.122500", "105009.122500", "105011.122500", "105013.122500", "105015.122500", "105017.122500", "105019.122500", "105021.122500", "105023.122500", "105025.122500", "105027.122500", "105029.122500", "105031.122500", "105033.122500", "105035.122500", "105037.122500", "105039.122500", "105041.122500", "105043.122500", "105045.122500", "105047.122500", "105049.122500", "105051.122500", "105053.122500", "105055.122500", "105057.122500", "105059.122500", "105101.122500", "105103.122500", "105105.122500", "105107.122500", "105109.122500", "105111.122500", "105113.122500", "105115.122500", "105117.122500", "105119.122500", "105121.122500", "105123.122500", "105125.122500", "105127.122500", "105129.122500", "105131.122500", "105133.122500", "105135.122500", "105137.122500", "105139.122500", "105141.122500", "105143.122500", "105145.122500", "105147.122500", "105149.122500", "105151.122500", "105153.122500", "105155.122500", "105157.122500", "105159.122500", "105201.122500", "105203.122500", "105205.122500", "105207.122500", "105209.122500", "105211.122500", "105213.122500", "105215.122500", "105217.122500", "105219.122500", "105221.122500", "105223.122500", "105225.122500", "105227.122500", "105229.122500", "105231.122500", "105233.122500", "105235.122500", "105237.122500", "105239.122500", "105241.122500", "105243.122500", "105245.122500", "105247.122500", "105249.122500", "105251.122500", "105253.122500", "105255.122500", "105257.122500", "105259.122500", "105301.122500", "105303.122500", "105305.122500", "105307.122500", "105309.122500", "105311.122500", "105313.122500", "105315.122500", "105317.122500", "105319.122500", "105321.122500", "105323.122500", "105325.122500", "105327.122500", "105329.122500", "105331.122500", "105333.122500", "105335.122500", "105337.122500", "105339.122500", "105341.122500", "105343.122500", "105345.122500", "105347.122500", "105349.122500", "105351.122500", "105353.122500", "105355.122500", "105357.122500", "105359.122500", "105401.122500", "105403.122500", "105405.122500", "105407.122500", "105409.122500", "105411.122500", "105413.122500", "105415.122500", "105417.122500", "105419.122500", "105421.122500", "105423.122500", "105425.122500", "105427.122500", "105429.122500", "105431.122500", "105433.122500", "105435.122500", "105437.122500", "105439.122500", "105441.122500", "105443.122500", "105445.122500", "105447.122500", "105449.122500", "105451.122500", "105453.122500", "105455.122500", "105457.122500", "105459.122500", "105501.122500", "105503.122500"],
      "ContentTime": ["104910.746000", "104910.749000", "104910.752000", "104910.754000", "104910.757000", "104910.759000", "104910.762000", "104910.764000", "104910.767000", "104910.769000", "104910.772000", "104910.775000", "104910.777000", "104910.780000", "104910.782000", "104910.785000", "104910.788000", "104910.798000", "104910.800000", "104910.803000", "104910.805000", "104910.808000", "104910.810000", "104950.741000", "104950.744000", "104950.747000", "104950.749000", "104950.752000", "104950.754000", "104950.757000", "104950.759000", "104950.762000", "104950.764000", "104950.767000", "104950.769000", "104950.772000", "104950.775000", "104950.777000", "104950.780000", "104950.782000", "104950.824000", "104950.827000", "104950.829000", "105030.741000", "105030.744000", "105030.747000", "105030.749000", "105030.752000", "105030.754000", "105030.757000", "105030.760000", "105030.762000", "105030.765000", "105030.767000", "105030.770000", "105030.772000", "105030.775000", "105030.777000", "105030.781000", "105030.784000", "105030.786000", "105030.789000", "105030.791000", "105110.741000", "105110.744000", "105110.747000", "105110.749000", "105110.752000", "105110.754000", "105110.757000", "105110.759000", "105110.762000", "105110.764000", "105110.767000", "105110.769000", "105110.772000", "105110.774000", "105110.777000", "105110.780000", "105110.782000", "105110.807000", "105110.810000", "105110.812000", "105150.741000", "105150.744000", "105150.747000", "105150.749000", "105150.752000", "105150.754000", "105150.757000", "105150.759000", "105150.762000", "105150.764000", "105150.767000", "105150.769000", "105150.772000", "105150.774000", "105150.778000", "105150.780000", "105150.783000", "105150.785000", "105150.788000", "105150.790000", "105230.743000", "105230.745000", "105230.748000", "105230.750000", "105230.753000", "105230.755000", "105230.758000", "105230.760000", "105230.763000", "105230.765000", "105230.768000", "105230.770000", "105230.773000", "105230.775000", "105230.779000", "105230.781000", "105230.784000", "105230.787000", "105230.789000", "105230.792000", "105310.741000", "105310.744000", "105310.747000", "105310.749000", "105310.752000", "105310.754000", "105310.757000", "105310.759000", "105310.762000", "105310.764000", "105310.767000", "105310.769000", "105310.772000", "105310.774000", "105310.777000", "105310.780000", "105310.782000", "105310.785000", "105310.787000", "105310.790000", "105350.741000", "105350.744000", "105350.747000", "105350.749000", "105350.752000", "105350.755000", "105350.757000", "105350.760000", "105350.762000", "105350.765000", "105350.767000", "105350.770000", "105350.772000", "105350.775000", "105350.777000", "105350.780000", "105350.783000", "105350.785000", "105350.788000", "105350.790000", "105430.741000", "105430.744000", "105430.747000", "105430.749000", "105430.752000", "105430.754000", "105430.757000", "105430.759000", "105430.762000", "105430.764000", "105430.767000", "105430.769000", "105430.772000", "105430.775000", "105430.777000", "105430.780000", "105430.782000", "105430.785000", "105430.788000", "105430.790000", "105504.195000", "105504.198000", "105504.200000", "105504.203000", "105504.206000", "105504.208000", "105504.211000", "105504.213000", "105504.216000", "105504.218000", "105504.221000", "105504.224000", "105504.230000", "105504.234000", "105504.237000", "105504.244000", "105504.251000"],
      "InstanceCreationTime": ["104910.746000", "104910.749000", "104910.752000", "104910.754000", "104910.757000", "104910.759000", "104910.762000", "104910.764000", "104910.767000", "104910.769000", "104910.772000", "104910.775000", "104910.777000", "104910.780000", "104910.782000", "104910.785000", "104910.788000", "104910.798000", "104910.800000", "104910.803000", "104910.805000", "104910.808000", "104910.810000", "104950.741000", "104950.744000", "104950.747000", "104950.749000", "104950.752000", "104950.754000", "104950.757000", "104950.759000", "104950.762000", "104950.764000", "104950.767000", "104950.769000", "104950.772000", "104950.775000", "104950.777000", "104950.780000", "104950.782000", "104950.824000", "104950.827000", "104950.829000", "105030.741000", "105030.744000", "105030.747000", "105030.749000", "105030.752000", "105030.754000", "105030.757000", "105030.760000", "105030.762000", "105030.765000", "105030.767000", "105030.770000", "105030.772000", "105030.775000", "105030.777000", "105030.781000", "105030.784000", "105030.786000", "105030.789000", "105030.791000", "105110.741000", "105110.744000", "105110.747000", "105110.749000", "105110.752000", "105110.754000", "105110.757000", "105110.759000", "105110.762000", "105110.764000", "105110.767000", "105110.769000", "105110.772000", "105110.774000", "105110.777000", "105110.780000", "105110.782000", "105110.807000", "105110.810000", "105110.812000", "105150.741000", "105150.744000", "105150.747000", "105150.749000", "105150.752000", "105150.754000", "105150.757000", "105150.759000", "105150.762000", "105150.764000", "105150.767000", "105150.769000", "105150.772000", "105150.774000", "105150.778000", "105150.780000", "105150.783000", "105150.785000", "105150.788000", "105150.790000", "105230.743000", "105230.745000", "105230.748000", "105230.750000", "105230.753000", "105230.755000", "105230.758000", "105230.760000", "105230.763000", "105230.765000", "105230.768000", "105230.770000", "105230.773000", "105230.775000", "105230.779000", "105230.781000", "105230.784000", "105230.787000", "105230.789000", "105230.792000", "105310.741000", "105310.744000", "105310.747000", "105310.749000", "105310.752000", "105310.754000", "105310.757000", "105310.759000", "105310.762000", "105310.764000", "105310.767000", "105310.769000", "105310.772000", "105310.774000", "105310.777000", "105310.780000", "105310.782000", "105310.785000", "105310.787000", "105310.790000", "105350.741000", "105350.744000", "105350.747000", "105350.749000", "105350.752000", "105350.755000", "105350.757000", "105350.760000", "105350.762000", "105350.765000", "105350.767000", "105350.770000", "105350.772000", "105350.775000", "105350.777000", "105350.780000", "105350.783000", "105350.785000", "105350.788000", "105350.790000", "105430.741000", "105430.744000", "105430.747000", "105430.749000", "105430.752000", "105430.754000", "105430.757000", "105430.759000", "105430.762000", "105430.764000", "105430.767000", "105430.769000", "105430.772000", "105430.775000", "105430.777000", "105430.780000", "105430.782000", "105430.785000", "105430.788000", "105430.790000", "105504.195000", "105504.198000", "105504.200000", "105504.203000", "105504.206000", "105504.208000", "105504.211000", "105504.213000", "105504.216000", "105504.218000", "105504.221000", "105504.224000", "105504.230000", "105504.234000", "105504.237000", "105504.244000", "105504.251000"],
      "InstanceNumber": [1, 2, 3, 4, 5, 6, 7, 8, 9, 10, 11, 12, 13, 14, 15, 16, 17, 18, 19, 20, 21, 22, 23, 24, 25, 26, 27, 28, 29, 30, 31, 32, 33, 34, 35, 36, 37, 38, 39, 40, 41, 42, 43, 44, 45, 46, 47, 48, 49, 50, 51, 52, 53, 54, 55, 56, 57, 58, 59, 60, 61, 62, 63, 64, 65, 66, 67, 68, 69, 70, 71, 72, 73, 74, 75, 76, 77, 78, 79, 80, 81, 82, 83, 84, 85, 86, 87, 88, 89, 90, 91, 92, 93, 94, 95, 96, 97, 98, 99, 100, 101, 102, 103, 104, 105, 106, 107, 108, 109, 110, 111, 112, 113, 114, 115, 116, 117, 118, 119, 120, 121, 122, 123, 124, 125, 126, 127, 128, 129, 130, 131, 132, 133, 134, 135, 136, 137, 138, 139, 140, 141, 142, 143, 144, 145, 146, 147, 148, 149, 150, 151, 152, 153, 154, 155, 156, 157, 158, 159, 160, 161, 162, 163, 164, 165, 166, 167, 168, 169, 170, 171, 172, 173, 174, 175, 176, 177, 178, 179, 180, 181, 182, 183, 184, 185, 186, 187, 188, 189, 190, 191, 192, 193, 194, 195, 196, 197, 198, 199, 200],
      "LargestImagePixelValue": [2203, 2204, 2204, 2200, 2205, 2201, 2211, 2203, 2201, 2202, 2206, 2201, 2203, 2201, 2205, 2204, 2202, 2208, 2208, 2204, 2206, 2200, 2202, 2205, 2204, 2205, 2207, 2206, 2201, 2204, 2205, 2202, 2202, 2203, 2204, 2203, 2207, 2201, 2207, 2204, 2203, 2204, 2204, 2204, 2207, 2204, 2206, 2205, 2201, 2204, 2207, 2202, 2206, 2202, 2205, 2207, 2208, 2207, 2202, 2206, 2208, 2203, 2204, 2204, 2206, 2201, 2204, 2207, 2204, 2208, 2207, 2206, 2205, 2206, 2208, 2208, 2207, 2205, 2205, 2203, 2202, 2209, 2207, 2205, 2202, 2210, 2209, 2206, 2203, 2204, 2209, 2205, 2201, 2205, 2201, 2208, 2207, 2201, 2204, 2202, 2203, 2204, 2205, 2203, 2206, 2206, 2208, 2207, 2203, 2200, 2201, 2205, 2205, 2204, 2205, 2202, 2204, 2207, 2208, 2207, 2202, 2208, 2207, 2203, 2203, 2209, 2203, 2205, 2203, 2204, 2206, 2206, 2204, 2204, 2206, 2209, 2202, 2200, 2207, 2201, 2202, 2204, 2205, 2201, 2206, 2203, 2206, 2206, 2212, 2206, 2205, 2205, 2208, 2208, 2204, 2205, 2205, 2203, 2207, 2203, 2198, 2209, 2203, 2204, 2207, 2208, 2208, 2203, 2208, 2207, 2204, 2205, 2205, 2204, 2209, 2206, 2206, 2204, 2205, 2204, 2203, 2198, 2204, 2207, 2208, 2206, 2208, 2203, 2207, 2204, 2206, 2202, 2201, 2207, 2208, 2211, 2209, 2203, 2208, 2207],
      "WindowCenter": [920.0, 920.0, 920.0, 920.0, 920.0, 920.0, 920.0, 920.0, 920.0, 920.0, 920.0, 920.0, 920.0, 920.0, 920.0, 920.0, 920.0, 920.0, 920.0, 920.0, 920.0, 920.0, 920.0, 920.0, 920.0, 920.0, 920.0, 920.0, 920.0, 920.0, 920.0, 920.0, 920.0, 920.0, 920.0, 920.0, 920.0, 920.0, 920.0, 920.0, 920.0, 920.0, 920.0, 920.0, 920.0, 920.0, 920.0, 920.0, 920.0, 920.0, 920.0, 920.0, 920.0, 920.0, 920.0, 920.0, 920.0, 920.0, 920.0, 920.0, 920.0, 920.0, 920.0, 920.0, 920.0, 920.0, 920.0, 920.0, 920.0, 920.0, 920.0, 920.0, 920.0, 920.0, 920.0, 920.0, 920.0, 920.0, 920.0, 920.0, 920.0, 920.0, 920.0, 920.0, 920.0, 920.0, 920.0, 920.0, 920.0, 920.0, 920.0, 919.0, 920.0, 920.0, 920.0, 920.0, 920.0, 920.0, 920.0, 920.0, 920.0, 920.0, 920.0, 920.0, 920.0, 920.0, 919.0, 920.0, 920.0, 920.0, 920.0, 920.0, 920.0, 920.0, 920.0, 920.0, 920.0, 920.0, 920.0, 920.0, 920.0, 920.0, 919.0, 920.0, 920.0, 920.0, 920.0, 920.0, 920.0, 920.0, 920.0, 920.0, 920.0, 920.0, 920.0, 920.0, 919.0, 920.0, 920.0, 919.0, 920.0, 920.0, 920.0, 920.0, 920.0, 920.0, 920.0, 920.0, 920.0, 920.0, 920.0, 920.0, 920.0, 920.0, 920.0, 920.0, 920.0, 920.0, 920.0, 920.0, 920.0, 920.0, 920.0, 920.0, 920.0, 919.0, 919.0, 920.0, 920.0, 920.0, 920.0, 920.0, 920.0, 920.0, 920.0, 920.0, 920.0, 920.0, 920.0, 920.0, 920.0, 920.0, 920.0, 920.0, 920.0, 920.0, 920.0, 920.0, 920.0, 920.0, 920.0, 920.0, 920.0, 920.0, 919.0, 919.0, 920.0, 920.0, 920.0, 920.0],
      "WindowWidth": [2085.0, 2085.0, 2085.0, 2085.0, 2085.0, 2085.0, 2085.0, 2085.0, 2085.0, 2084.0, 2085.0, 2085.0, 2085.0, 2085.0, 2085.0, 2085.0, 2085.0, 2085.0, 2085.0, 2085.0, 2085.0, 2085.0, 2085.0, 2085.0, 2085.0, 2085.0, 2085.0, 2085.0, 2085.0, 2085.0, 2085.0, 2085.0, 2085.0, 2085.0, 2085.0, 2085.0, 2085.0, 2085.0, 2085.0, 2085.0, 2085.0, 2085.0, 2085.0, 2085.0, 2085.0, 2085.0, 2085.0, 2085.0, 2085.0, 2085.0, 2085.0, 2085.0, 2085.0, 2085.0, 2085.0, 2085.0, 2085.0, 2085.0, 2085.0, 2085.0, 2085.0, 2085.0, 2085.0, 2085.0, 2085.0, 2084.0, 2085.0, 2085.0, 2085.0, 2085.0, 2085.0, 2085.0, 2085.0, 2085.0, 2085.0, 2085.0, 2085.0, 2085.0, 2085.0, 2085.0, 2085.0, 2085.0, 2085.0, 2085.0, 2085.0, 2085.0, 2085.0, 2085.0, 2085.0, 2085.0, 2085.0, 2085.0, 2085.0, 2085.0, 2085.0, 2085.0, 2085.0, 2085.0, 2085.0, 2085.0, 2085.0, 2084.0, 2085.0, 2085.0, 2084.0, 2084.0, 2085.0, 2085.0, 2085.0, 2084.0, 2085.0, 2084.0, 2084.0, 2085.0, 2084.0, 2085.0, 2085.0, 2085.0, 2085.0, 2085.0, 2085.0, 2085.0, 2085.0, 2085.0, 2084.0, 2085.0, 2085.0, 2085.0, 2085.0, 2085.0, 2085.0, 2084.0, 2085.0, 2085.0, 2085.0, 2085.0, 2085.0, 2085.0, 2085.0, 2085.0, 2084.0, 2085.0, 2085.0, 2085.0, 2085.0, 2084.0, 2084.0, 2084.0, 2085.0, 2084.0, 2084.0, 2084.0, 2085.0, 2084.0, 2085.0, 2084.0, 2085.0, 2084.0, 2085.0, 2085.0, 2084.0, 2084.0, 2085.0, 2084.0, 2084.0, 2085.0, 2085.0, 2085.0, 2085.0, 2084.0, 2085.0, 2085.0, 2084.0, 2085.0, 2085.0, 2085.0, 2085.0, 2085.0, 2085.0, 2084.0, 2084.0, 2085.0, 2085.0, 2084.0, 2085.0, 2084.0, 2085.0, 2084.0, 2085.0, 2085.0, 2085.0, 2085.0, 2084.0, 2085.0, 2084.0, 2085.0, 2085.0, 2085.0, 2085.0, 2084.0]
    },
    "slices": {}
  }
}