{
  "AcquisitionMatrixPE": 80,
  "AcquisitionNumber": 1,
  "AcquisitionTime": "10:41:30.807500",
  "BandwidthPerPixelPhaseEncode": 48.077,
  "BaseResolution": 80,
  "BodyPartExamined": "BRAIN",
  "CoilCombinationMethod": "Sum of Squares",
  "ConsistencyInfo": "N4_VE11C_LATEST_20160120",
  "ConversionSoftware": "dcm2niix",
  "ConversionSoftwareVersion": "v1.0.20220720",
  "DerivedVendorReportedEchoSpacing": 0.000519999,
  "DeviceSerialNumber": "66112",
  "DwellTime": 2.7e-06,
  "EchoTime": 0.035,
  "EchoTrainLength": 39,
  "EffectiveEchoSpacing": 0.00026,
  "FlipAngle": 90,
  "HeudiconvVersion": "0.13.1",
  "ImageOrientationPatientDICOM": [0.992391, -0.123091, 0.00304086, 0.116404, 0.945955, 0.302686],
  "ImageOrientationText": "Tra>Cor(17.5)>Sag(2.3)",
  "ImageType": [
    "ORIGINAL",
    "PRIMARY",
    "M",
    "ND",
    "NORM",
    "MOSAIC"
],
  "ImagingFrequency": 123.252,
  "InPlanePhaseEncodingDirectionDICOM": "COL",
  "InstitutionAddress": "Maynard 3,Hanover,NH,US,03755",
  "InstitutionName": "Dartmouth College - PBS",
  "InstitutionalDepartmentName": "Department",
  "MRAcquisitionType": "2D",
  "MagneticFieldStrength": 3,
  "Manufacturer": "Siemens",
  "ManufacturersModelName": "Prisma",
  "MatrixCoilMode": "GRAPPA",
  "Modality": "MR",
  "NonlinearGradientCorrection": false,
  "ParallelReductionFactorInPlane": 2,
  "PartialFourier": 1,
  "PatientPosition": "HFS",
  "PercentPhaseFOV": 100,
  "PercentSampling": 100,
  "PhaseEncodingDirection": "j-",
  "PhaseEncodingSteps": 79,
  "PhaseResolution": 1,
  "PixelBandwidth": 2315,
  "ProcedureStepDescription": "dbic^QA",
  "ProtocolName": "func-bold_task-rest_acq-p2",
  "PulseSequenceDetails": "%SiemensSeq%\\ep2d_bold",
  "ReceiveCoilActiveElements": "HEA;HEP",
  "ReceiveCoilName": "Head_32",
  "ReconMatrixPE": 80,
  "RefLinesPE": 24,
  "RepetitionTime": 2,
  "SAR": 0.0557329,
  "ScanOptions": "FS",
  "ScanningSequence": "EP",
  "SequenceName": "*epfid2d1_80",
  "SequenceVariant": "SK",
  "SeriesDescription": "func-bold_task-rest_acq-p2",
  "SeriesNumber": 5,
  "ShimSetting": [4146, -7689, -7521, 256, -93, -65, -93, 105],
  "SliceThickness": 3.5,
  "SliceTiming": [0.99, 0, 1.055, 0.065, 1.1225, 0.1325, 1.1875, 0.1975, 1.255, 0.265, 1.32, 0.33, 1.385, 0.395, 1.4525, 0.4625, 1.5175, 0.5275, 1.585, 0.595, 1.65, 0.66, 1.715, 0.725, 1.7825, 0.7925, 1.8475, 0.8575, 1.915, 0.925],
  "SoftwareVersions": "syngo MR E11",
  "SpacingBetweenSlices": 3.99,
  "StationName": "AWP66112",
  "TaskName": "rest",
  "TotalReadoutTime": 0.02054,
  "TxRefAmp": 235.951,
  "dcmmeta_affine": [
    [-2.977172374725342, 0.34921059012413025, 0.16013608872890472, 101.59158325195312],
    [0.3692718744277954, 2.8378655910491943, 1.1971158981323242, -137.5150909423828],
    [0.009122594259679317, -0.9080586433410645, 3.8028109073638916, -24.576967239379883],
    [0.0, 0.0, 0.0, 1.0]
],
  "dcmmeta_reorient_transform": [
    [0.0, -1.0, 0.0, 79.0],
    [1.0, 0.0, 0.0, 0.0],
    [0.0, 0.0, 1.0, 0.0],
    [0.0, 0.0, 0.0, 1.0]
],
  "dcmmeta_shape": [80, 80, 30, 200],
  "dcmmeta_slice_dim": 2,
  "dcmmeta_version": 0.6,
  "global": {
    "const": {
      "AccessionNumber": "qa",
      "AcquisitionMatrix": [80, 0, 0, 80],
      "AngioFlag": "N",
      "BitsAllocated": 16,
      "BitsStored": 12,
      "BodyPartExamined": "BRAIN",
      "Columns": 480,
      "EchoNumbers": 1,
      "EchoTime": 35.0,
      "EchoTrainLength": 39,
      "FlipAngle": 90.0,
      "HighBit": 11,
      "ImageOrientationPatient": [0.99239077553541, -0.1230906242309, 0.00304086478907, 0.11640353116851, 0.945955219057, 0.30268620958069],
      "ImagePositionPatient": [-794.45580410136, -580.39505965874, -279.74984394906],
      "ImageType": [
        "ORIGINAL",
        "PRIMARY",
        "M",
        "ND",
        "NORM",
        "MOSAIC"
],
      "ImagedNucleus": "1H",
      "ImagingFrequency": 123.252456,
      "InPlanePhaseEncodingDirection": "COL",
      "MRAcquisitionType": "2D",
      "MagneticFieldStrength": 3.0,
      "Manufacturer": "SIEMENS",
      "ManufacturerModelName": "Prisma",
      "Modality": "MR",
      "NumberOfAverages": 1.0,
      "NumberOfPhaseEncodingSteps": 79,
      "PercentPhaseFieldOfView": 100.0,
      "PercentSampling": 100.0,
      "PerformedProcedureStepStartTime": "102919.333000",
      "PhotometricInterpretation": "MONOCHROME2",
      "PixelBandwidth": 2315.0,
      "PixelRepresentation": 0,
      "PixelSpacing": [3.0, 3.0],
      "ProtocolName": "func-bold_task-rest_acq-p2",
      "RepetitionTime": 2000.0,
      "Rows": 480,
      "SAR": 0.05573286420576,
      "SamplesPerPixel": 1,
      "ScanOptions": "FS",
      "ScanningSequence": "EP",
      "SequenceName": "*epfid2d1_80",
      "SequenceVariant": "SK",
      "SeriesDescription": "func-bold_task-rest_acq-p2",
      "SeriesNumber": 5,
      "SeriesTime": "104210.882000",
      "SliceLocation": -60.605154633552,
      "SliceThickness": 3.5,
      "SmallestImagePixelValue": 0,
      "SoftwareVersions": "syngo MR E11",
      "SpacingBetweenSlices": 3.9899999825669,
      "SpecificCharacterSet": "ISO_IR 100",
      "StudyID": "54",
      "StudyTime": "102919.224000",
      "TransmitCoilName": "Body",
      "VariableFlipAngleFlag": "N",
      "WindowCenterWidthExplanation": "Algo1",
      "dBdt": 0.0},
    "slices": {}
  },
  "time": {
    "samples": {
      "AcquisitionNumber": [1, 2, 3, 4, 5, 6, 7, 8, 9, 10, 11, 12, 13, 14, 15, 16, 17, 18, 19, 20, 21, 22, 23, 24, 25, 26, 27, 28, 29, 30, 31, 32, 33, 34, 35, 36, 37, 38, 39, 40, 41, 42, 43, 44, 45, 46, 47, 48, 49, 50, 51, 52, 53, 54, 55, 56, 57, 58, 59, 60, 61, 62, 63, 64, 65, 66, 67, 68, 69, 70, 71, 72, 73, 74, 75, 76, 77, 78, 79, 80, 81, 82, 83, 84, 85, 86, 87, 88, 89, 90, 91, 92, 93, 94, 95, 96, 97, 98, 99, 100, 101, 102, 103, 104, 105, 106, 107, 108, 109, 110, 111, 112, 113, 114, 115, 116, 117, 118, 119, 120, 121, 122, 123, 124, 125, 126, 127, 128, 129, 130, 131, 132, 133, 134, 135, 136, 137, 138, 139, 140, 141, 142, 143, 144, 145, 146, 147, 148, 149, 150, 151, 152, 153, 154, 155, 156, 157, 158, 159, 160, 161, 162, 163, 164, 165, 166, 167, 168, 169, 170, 171, 172, 173, 174, 175, 176, 177, 178, 179, 180, 181, 182, 183, 184, 185, 186, 187, 188, 189, 190, 191, 192, 193, 194, 195, 196, 197, 198, 199, 200],
      "AcquisitionTime": ["104130.807500", "104132.807500", "104134.807500", "104136.807500", "104138.807500", "104140.807500", "104142.807500", "104144.807500", "104146.807500", "104148.807500", "104150.807500", "104152.807500", "104154.807500", "104156.807500", "104158.807500", "104200.807500", "104202.807500", "104204.807500", "104206.807500", "104208.807500", "104210.807500", "104212.807500", "104214.807500", "104216.807500", "104218.807500", "104220.807500", "104222.807500", "104224.807500", "104226.807500", "104228.807500", "104230.807500", "104232.807500", "104234.807500", "104236.807500", "104238.807500", "104240.807500", "104242.807500", "104244.807500", "104246.807500", "104248.807500", "104250.807500", "104252.807500", "104254.807500", "104256.807500", "104258.807500", "104300.807500", "104302.807500", "104304.807500", "104306.807500", "104308.807500", "104310.807500", "104312.807500", "104314.807500", "104316.807500", "104318.807500", "104320.807500", "104322.807500", "104324.807500", "104326.807500", "104328.807500", "104330.807500", "104332.807500", "104334.807500", "104336.807500", "104338.807500", "104340.807500", "104342.807500", "104344.807500", "104346.807500", "104348.807500", "104350.807500", "104352.807500", "104354.807500", "104356.807500", "104358.807500", "104400.807500", "104402.807500", "104404.807500", "104406.807500", "104408.807500", "104410.807500", "104412.807500", "104414.807500", "104416.807500", "104418.807500", "104420.807500", "104422.807500", "104424.807500", "104426.807500", "104428.807500", "104430.807500", "104432.807500", "104434.807500", "104436.807500", "104438.807500", "104440.807500", "104442.807500", "104444.807500", "104446.807500", "104448.807500", "104450.807500", "104452.807500", "104454.807500", "104456.807500", "104458.807500", "104500.807500", "104502.807500", "104504.807500", "104506.807500", "104508.807500", "104510.807500", "104512.807500", "104514.807500", "104516.807500", "104518.807500", "104520.807500", "104522.807500", "104524.807500", "104526.807500", "104528.807500", "104530.807500", "104532.807500", "104534.807500", "104536.807500", "104538.807500", "104540.807500", "104542.807500", "104544.807500", "104546.807500", "104548.807500", "104550.807500", "104552.807500", "104554.807500", "104556.807500", "104558.807500", "104600.807500", "104602.807500", "104604.807500", "104606.807500", "104608.807500", "104610.807500", "104612.807500", "104614.807500", "104616.807500", "104618.807500", "104620.807500", "104622.807500", "104624.807500", "104626.807500", "104628.807500", "104630.807500", "104632.807500", "104634.807500", "104636.807500", "104638.807500", "104640.807500", "104642.807500", "104644.807500", "104646.807500", "104648.807500", "104650.807500", "104652.807500", "104654.807500", "104656.807500", "104658.807500", "104700.807500", "104702.807500", "104704.807500", "104706.807500", "104708.807500", "104710.807500", "104712.807500", "104714.807500", "104716.807500", "104718.807500", "104720.807500", "104722.807500", "104724.807500", "104726.807500", "104728.807500", "104730.807500", "104732.807500", "104734.807500", "104736.807500", "104738.807500", "104740.807500", "104742.807500", "104744.807500", "104746.807500", "104748.807500", "104750.807500", "104752.807500", "104754.807500", "104756.807500", "104758.807500", "104800.807500", "104802.807500", "104804.807500", "104806.807500", "104808.807500"],
      "ContentTime": ["104210.885000", "104210.889000", "104210.891000", "104210.894000", "104210.896000", "104210.899000", "104210.901000", "104210.904000", "104210.906000", "104210.909000", "104210.917000", "104210.920000", "104210.922000", "104210.925000", "104210.927000", "104210.930000", "104210.932000", "104210.935000", "104210.938000", "104210.940000", "104230.880000", "104230.883000", "104230.903000", "104230.905000", "104230.908000", "104230.910000", "104230.913000", "104230.915000", "104230.918000", "104230.920000", "104310.881000", "104310.884000", "104310.887000", "104310.889000", "104310.892000", "104310.894000", "104310.897000", "104310.899000", "104310.902000", "104310.904000", "104310.907000", "104310.909000", "104310.912000", "104310.921000", "104310.924000", "104310.926000", "104310.929000", "104310.931000", "104310.934000", "104310.936000", "104350.880000", "104350.883000", "104350.886000", "104350.888000", "104350.891000", "104350.893000", "104350.896000", "104350.898000", "104350.901000", "104350.903000", "104350.906000", "104350.908000", "104350.911000", "104350.913000", "104350.916000", "104350.918000", "104350.921000", "104350.923000", "104350.926000", "104350.928000", "104430.880000", "104430.883000", "104430.886000", "104430.888000", "104430.891000", "104430.893000", "104430.896000", "104430.898000", "104430.901000", "104430.904000", "104430.906000", "104430.909000", "104430.911000", "104430.914000", "104430.916000", "104430.919000", "104430.921000", "104430.924000", "104430.926000", "104430.929000", "104510.880000", "104510.883000", "104510.886000", "104510.888000", "104510.891000", "104510.893000", "104510.896000", "104510.898000", "104510.901000", "104510.903000", "104510.906000", "104510.908000", "104510.911000", "104510.913000", "104510.916000", "104510.918000", "104510.921000", "104510.923000", "104510.926000", "104510.928000", "104550.880000", "104550.883000", "104550.886000", "104550.888000", "104550.891000", "104550.893000", "104550.896000", "104550.898000", "104550.901000", "104550.903000", "104550.906000", "104550.908000", "104550.911000", "104550.913000", "104550.916000", "104550.918000", "104550.921000", "104550.923000", "104550.926000", "104550.928000", "104630.880000", "104630.883000", "104630.886000", "104630.888000", "104630.891000", "104630.893000", "104630.896000", "104630.898000", "104630.901000", "104630.903000", "104630.906000", "104630.908000", "104630.911000", "104630.913000", "104630.916000", "104630.918000", "104630.921000", "104630.923000", "104630.926000", "104630.928000", "104710.881000", "104710.883000", "104710.886000", "104710.888000", "104710.891000", "104710.893000", "104710.896000", "104710.898000", "104710.901000", "104710.903000", "104710.906000", "104710.908000", "104710.911000", "104710.913000", "104710.916000", "104710.918000", "104710.921000", "104710.923000", "104710.926000", "104710.929000", "104750.881000", "104750.884000", "104750.887000", "104750.889000", "104750.892000", "104750.894000", "104750.897000", "104750.899000", "104750.902000", "104750.904000", "104750.907000", "104750.909000", "104750.912000", "104750.914000", "104750.917000", "104750.919000", "104750.922000", "104750.924000", "104750.927000", "104750.930000", "104810.233000", "104810.236000", "104810.239000", "104810.250000", "104810.253000", "104810.255000", "104810.258000", "104810.260000", "104810.263000", "104810.269000"],
      "InstanceCreationTime": ["104210.885000", "104210.889000", "104210.891000", "104210.894000", "104210.896000", "104210.899000", "104210.901000", "104210.904000", "104210.906000", "104210.909000", "104210.917000", "104210.920000", "104210.922000", "104210.925000", "104210.927000", "104210.930000", "104210.932000", "104210.935000", "104210.938000", "104210.940000", "104230.880000", "104230.883000", "104230.903000", "104230.905000", "104230.908000", "104230.910000", "104230.913000", "104230.915000", "104230.918000", "104230.920000", "104310.881000", "104310.884000", "104310.887000", "104310.889000", "104310.892000", "104310.894000", "104310.897000", "104310.899000", "104310.902000", "104310.904000", "104310.907000", "104310.909000", "104310.912000", "104310.921000", "104310.924000", "104310.926000", "104310.929000", "104310.931000", "104310.934000", "104310.936000", "104350.880000", "104350.883000", "104350.886000", "104350.888000", "104350.891000", "104350.893000", "104350.896000", "104350.898000", "104350.901000", "104350.903000", "104350.906000", "104350.908000", "104350.911000", "104350.913000", "104350.916000", "104350.918000", "104350.921000", "104350.923000", "104350.926000", "104350.928000", "104430.880000", "104430.883000", "104430.886000", "104430.888000", "104430.891000", "104430.893000", "104430.896000", "104430.898000", "104430.901000", "104430.904000", "104430.906000", "104430.909000", "104430.911000", "104430.914000", "104430.916000", "104430.919000", "104430.921000", "104430.924000", "104430.926000", "104430.929000", "104510.880000", "104510.883000", "104510.886000", "104510.888000", "104510.891000", "104510.893000", "104510.896000", "104510.898000", "104510.901000", "104510.903000", "104510.906000", "104510.908000", "104510.911000", "104510.913000", "104510.916000", "104510.918000", "104510.921000", "104510.923000", "104510.926000", "104510.928000", "104550.880000", "104550.883000", "104550.886000", "104550.888000", "104550.891000", "104550.893000", "104550.896000", "104550.898000", "104550.901000", "104550.903000", "104550.906000", "104550.908000", "104550.911000", "104550.913000", "104550.916000", "104550.918000", "104550.921000", "104550.923000", "104550.926000", "104550.928000", "104630.880000", "104630.883000", "104630.886000", "104630.888000", "104630.891000", "104630.893000", "104630.896000", "104630.898000", "104630.901000", "104630.903000", "104630.906000", "104630.908000", "104630.911000", "104630.913000", "104630.916000", "104630.918000", "104630.921000", "104630.923000", "104630.926000", "104630.928000", "104710.881000", "104710.883000", "104710.886000", "104710.888000", "104710.891000", "104710.893000", "104710.896000", "104710.898000", "104710.901000", "104710.903000", "104710.906000", "104710.908000", "104710.911000", "104710.913000", "104710.916000", "104710.918000", "104710.921000", "104710.923000", "104710.926000", "104710.929000", "104750.881000", "104750.884000", "104750.887000", "104750.889000", "104750.892000", "104750.894000", "104750.897000", "104750.899000", "104750.902000", "104750.904000", "104750.907000", "104750.909000", "104750.912000", "104750.914000", "104750.917000", "104750.919000", "104750.922000", "104750.924000", "104750.927000", "104750.930000", "104810.233000", "104810.236000", "104810.239000", "104810.250000", "104810.253000", "104810.255000", "104810.258000", "104810.260000", "104810.263000", "104810.269000"],
      "InstanceNumber": [1, 2, 3, 4, 5, 6, 7, 8, 9, 10, 11, 12, 13, 14, 15, 16, 17, 18, 19, 20, 21, 22, 23, 24, 25, 26, 27, 28, 29, 30, 31, 32, 33, 34, 35, 36, 37, 38, 39, 40, 41, 42, 43, 44, 45, 46, 47, 48, 49, 50, 51, 52, 53, 54, 55, 56, 57, 58, 59, 60, 61, 62, 63, 64, 65, 66, 67, 68, 69, 70, 71, 72, 73, 74, 75, 76, 77, 78, 79, 80, 81, 82, 83, 84, 85, 86, 87, 88, 89, 90, 91, 92, 93, 94, 95, 96, 97, 98, 99, 100, 101, 102, 103, 104, 105, 106, 107, 108, 109, 110, 111, 112, 113, 114, 115, 116, 117, 118, 119, 120, 121, 122, 123, 124, 125, 126, 127, 128, 129, 130, 131, 132, 133, 134, 135, 136, 137, 138, 139, 140, 141, 142, 143, 144, 145, 146, 147, 148, 149, 150, 151, 152, 153, 154, 155, 156, 157, 158, 159, 160, 161, 162, 163, 164, 165, 166, 167, 168, 169, 170, 171, 172, 173, 174, 175, 176, 177, 178, 179, 180, 181, 182, 183, 184, 185, 186, 187, 188, 189, 190, 191, 192, 193, 194, 195, 196, 197, 198, 199, 200],
      "LargestImagePixelValue": [2207, 2202, 2207, 2208, 2209, 2208, 2200, 2211, 2206, 2203, 2206, 2199, 2204, 2206, 2204, 2202, 2211, 2209, 2209, 2204, 2206, 2209, 2208, 2209, 2213, 2208, 2210, 2209, 2205, 2205, 2206, 2209, 2202, 2213, 2210, 2208, 2204, 2210, 2206, 2205, 2203, 2206, 2212, 2210, 2211, 2203, 2210, 2210, 2205, 2207, 2213, 2200, 2204, 2212, 2207, 2214, 2210, 2210, 2209, 2208, 2205, 2202, 2204, 2207, 2202, 2205, 2207, 2207, 2209, 2209, 2207, 2210, 2207, 2208, 2205, 2203, 2215, 2206, 2202, 2206, 2205, 2208, 2213, 2211, 2211, 2212, 2206, 2203, 2214, 2209, 2209, 2209, 2209, 2206, 2210, 2210, 2204, 2211, 2207, 2204, 2208, 2212, 2208, 2210, 2206, 2211, 2209, 2210, 2209, 2206, 2205, 2210, 2208, 2213, 2204, 2209, 2210, 2206, 2208, 2209, 2206, 2214, 2210, 2211, 2208, 2207, 2205, 2206, 2210, 2206, 2214, 2204, 2214, 2205, 2208, 2210, 2204, 2204, 2204, 2208, 2209, 2211, 2205, 2212, 2210, 2207, 2205, 2204, 2204, 2214, 2211, 2205, 2204, 2213, 2213, 2210, 2204, 2204, 2210, 2215, 2207, 2205, 2209, 2207, 2207, 2207, 2205, 2211, 2211, 2215, 2209, 2210, 2209, 2209, 2208, 2206, 2208, 2206, 2205, 2212, 2207, 2211, 2218, 2210, 2205, 2212, 2209, 2200, 2208, 2216, 2210, 2209, 2214, 2206, 2207, 2205, 2202, 2209, 2216, 2202],
      "WindowCenter": [985.0, 985.0, 985.0, 985.0, 985.0, 985.0, 985.0, 985.0, 985.0, 985.0, 985.0, 985.0, 985.0, 985.0, 985.0, 985.0, 986.0, 985.0, 985.0, 985.0, 985.0, 985.0, 985.0, 985.0, 985.0, 986.0, 985.0, 985.0, 985.0, 985.0, 985.0, 986.0, 985.0, 985.0, 985.0, 985.0, 985.0, 985.0, 985.0, 985.0, 985.0, 985.0, 985.0, 985.0, 985.0, 985.0, 985.0, 985.0, 985.0, 985.0, 985.0, 985.0, 985.0, 985.0, 985.0, 985.0, 985.0, 985.0, 985.0, 985.0, 985.0, 985.0, 985.0, 985.0, 985.0, 985.0, 984.0, 985.0, 985.0, 985.0, 984.0, 985.0, 985.0, 984.0, 984.0, 984.0, 984.0, 985.0, 984.0, 984.0, 984.0, 984.0, 984.0, 984.0, 984.0, 984.0, 985.0, 985.0, 984.0, 984.0, 984.0, 984.0, 984.0, 984.0, 984.0, 984.0, 984.0, 984.0, 985.0, 984.0, 984.0, 984.0, 984.0, 984.0, 984.0, 984.0, 984.0, 984.0, 984.0, 984.0, 984.0, 985.0, 984.0, 984.0, 984.0, 984.0, 984.0, 984.0, 984.0, 984.0, 984.0, 984.0, 984.0, 984.0, 984.0, 984.0, 984.0, 984.0, 984.0, 984.0, 984.0, 984.0, 984.0, 984.0, 985.0, 984.0, 984.0, 984.0, 984.0, 984.0, 984.0, 984.0, 984.0, 984.0, 984.0, 985.0, 984.0, 984.0, 984.0, 984.0, 984.0, 984.0, 984.0, 984.0, 984.0, 984.0, 984.0, 984.0, 984.0, 984.0, 984.0, 984.0, 984.0, 984.0, 984.0, 984.0, 984.0, 984.0, 984.0, 984.0, 984.0, 984.0, 984.0, 984.0, 985.0, 984.0, 984.0, 984.0, 984.0, 984.0, 984.0, 984.0, 984.0, 984.0, 984.0, 984.0, 984.0, 984.0, 984.0, 984.0, 984.0, 985.0, 984.0, 984.0, 984.0, 984.0, 984.0, 984.0, 984.0, 984.0],
      "WindowWidth": [2151.0, 2150.0, 2150.0, 2150.0, 2150.0, 2150.0, 2150.0, 2150.0, 2150.0, 2150.0, 2150.0, 2150.0, 2150.0, 2150.0, 2150.0, 2150.0, 2150.0, 2150.0, 2150.0, 2150.0, 2150.0, 2150.0, 2150.0, 2150.0, 2150.0, 2150.0, 2150.0, 2150.0, 2150.0, 2150.0, 2150.0, 2150.0, 2150.0, 2150.0, 2150.0, 2150.0, 2150.0, 2150.0, 2150.0, 2150.0, 2150.0, 2150.0, 2150.0, 2150.0, 2150.0, 2150.0, 2150.0, 2150.0, 2150.0, 2150.0, 2150.0, 2150.0, 2150.0, 2150.0, 2151.0, 2150.0, 2149.0, 2150.0, 2149.0, 2150.0, 2150.0, 2150.0, 2150.0, 2150.0, 2150.0, 2150.0, 2150.0, 2151.0, 2149.0, 2150.0, 2150.0, 2150.0, 2149.0, 2149.0, 2150.0, 2150.0, 2150.0, 2149.0, 2149.0, 2149.0, 2149.0, 2149.0, 2149.0, 2149.0, 2149.0, 2149.0, 2150.0, 2150.0, 2150.0, 2149.0, 2150.0, 2149.0, 2149.0, 2149.0, 2149.0, 2149.0, 2149.0, 2149.0, 2150.0, 2149.0, 2149.0, 2149.0, 2149.0, 2150.0, 2149.0, 2149.0, 2149.0, 2149.0, 2149.0, 2149.0, 2149.0, 2150.0, 2149.0, 2149.0, 2149.0, 2149.0, 2149.0, 2149.0, 2149.0, 2149.0, 2149.0, 2149.0, 2149.0, 2149.0, 2149.0, 2149.0, 2149.0, 2149.0, 2149.0, 2149.0, 2149.0, 2149.0, 2149.0, 2149.0, 2150.0, 2149.0, 2149.0, 2149.0, 2149.0, 2149.0, 2149.0, 2149.0, 2149.0, 2149.0, 2149.0, 2150.0, 2149.0, 2149.0, 2149.0, 2149.0, 2149.0, 2149.0, 2149.0, 2149.0, 2149.0, 2149.0, 2149.0, 2149.0, 2149.0, 2149.0, 2149.0, 2149.0, 2149.0, 2149.0, 2149.0, 2149.0, 2149.0, 2149.0, 2149.0, 2149.0, 2149.0, 2149.0, 2149.0, 2149.0, 2150.0, 2149.0, 2149.0, 2149.0, 2149.0, 2149.0, 2149.0, 2149.0, 2149.0, 2149.0, 2149.0, 2149.0, 2149.0, 2149.0, 2149.0, 2149.0, 2149.0, 2149.0, 2149.0, 2149.0, 2149.0, 2149.0, 2149.0, 2149.0, 2149.0, 2149.0]
    },
    "slices": {}
  }
}