{
  "AcquisitionMatrixPE": 122,
  "AcquisitionNumber": 1,
  "AcquisitionTime": "10:48:56.027500",
  "BandwidthPerPixelPhaseEncode": 28.76,
  "BaseResolution": 122,
  "BodyPartExamined": "BRAIN",
  "CoilCombinationMethod": "Adaptive Combine",
  "ConsistencyInfo": "N4_VE11C_LATEST_20160120",
  "ConversionSoftware": "dcm2niix",
  "ConversionSoftwareVersion": "v1.0.20220720",
  "DerivedVendorReportedEchoSpacing": 0.000570008,
  "DeviceSerialNumber": "66112",
  "DiffusionScheme": "Monopolar",
  "DwellTime": 2e-06,
  "EchoTime": 0.075,
  "EchoTrainLength": 61,
  "EffectiveEchoSpacing": 0.000285004,
  "FlipAngle": 90,
  "HeudiconvVersion": "0.13.1",
  "ImageOrientationPatientDICOM": [0.984852, 0.173158, 0.00908449, -0.167636, 0.937439, 0.305133],
  "ImageOrientationText": "Tra>Cor(17.6)>Sag(-2.5)",
  "ImageType": [
    "ORIGINAL",
    "PRIMARY",
    "DIFFUSION",
    "NONE",
    "ND",
    "NORM"
],
  "ImagingFrequency": 123.252,
  "InPlanePhaseEncodingDirectionDICOM": "COL",
  "InstitutionAddress": "Maynard 3,Hanover,NH,US,03755",
  "InstitutionName": "Dartmouth College - PBS",
  "InstitutionalDepartmentName": "Department",
  "MRAcquisitionType": "2D",
  "MagneticFieldStrength": 3,
  "Manufacturer": "Siemens",
  "ManufacturersModelName": "Prisma",
  "MatrixCoilMode": "GRAPPA",
  "Modality": "MR",
  "NonlinearGradientCorrection": false,
  "ParallelReductionFactorInPlane": 2,
  "PartialFourier": 1,
  "PatientPosition": "HFS",
  "PercentPhaseFOV": 100,
  "PercentSampling": 100,
  "PhaseEncodingDirection": "j-",
  "PhaseEncodingSteps": 122,
  "PhaseResolution": 1,
  "PixelBandwidth": 2050,
  "ProcedureStepDescription": "dbic^QA",
  "ProtocolName": "dwi_acq-DTI-30-p2",
  "PulseSequenceDetails": "%SiemensSeq%\\ep2d_diff",
  "ReceiveCoilActiveElements": "HEA;HEP",
  "ReceiveCoilName": "Head_32",
  "ReconMatrixPE": 122,
  "RefLinesPE": 38,
  "RepetitionTime": 7.7,
  "SAR": 0.101729,
  "ScanOptions": "FS",
  "ScanningSequence": "EP",
  "SequenceName": "*ep_b0",
  "SequenceVariant": "SK\\SP",
  "SeriesDescription": "dwi_acq-DTI-30-p2",
  "SeriesNumber": 8,
  "ShimSetting": [4151, -7697, -7506, 330, -43, -96, -58, 67],
  "SliceThickness": 2,
  "SliceTiming": [3.84375, 0, 3.95312, 0.10938, 4.0625, 0.21875, 4.16406, 0.32812, 4.28125, 0.4375, 4.39062, 0.54688, 4.5, 0.65625, 4.60938, 0.76562, 4.71875, 0.875, 4.82812, 0.98438, 4.9375, 1.09375, 5.04688, 1.21094, 5.15625, 1.3125, 5.26562, 1.42188, 5.375, 1.53125, 5.48438, 1.64844, 5.59375, 1.75781, 5.70312, 1.86719, 5.8125, 1.97656, 5.92188, 2.08594, 6.03125, 2.19531, 6.14062, 2.30469, 6.25, 2.41406, 6.35938, 2.52344, 6.46875, 2.63281, 6.58594, 2.74219, 6.69531, 2.85156, 6.80469, 2.96094, 6.91406, 3.07031, 7.02344, 3.17969, 7.13281, 3.28906, 7.24219, 3.39844, 7.35156, 3.50781, 7.46094, 3.61719, 7.57031, 3.72656],
  "SoftwareVersions": "syngo MR E11",
  "SpacingBetweenSlices": 2,
  "SpoilingState": true,
  "StationName": "AWP66112",
  "TotalReadoutTime": 0.0344855,
  "TxRefAmp": 230.474,
  "dcmmeta_affine": [
    [-1.9374141693115234, -0.3297763466835022, -0.08863997459411621, 141.13758850097656],
    [-0.34063854813575745, 1.8441425561904907, 0.6040668487548828, -105.62528228759766],
    [0.01787112094461918, -0.6002612113952637, 1.9045333862304688, -31.130342483520508],
    [0.0, 0.0, 0.0, 1.0]
],
  "dcmmeta_reorient_transform": [
    [0.0, -1.0, 0.0, 121.0],
    [1.0, 0.0, 0.0, 0.0],
    [0.0, 0.0, -1.0, 69.0],
    [0.0, 0.0, 0.0, 1.0]
],
  "dcmmeta_shape": [122, 122, 70, 31],
  "dcmmeta_slice_dim": 2,
  "dcmmeta_version": 0.6,
  "global": {
    "const": {
      "AccessionNumber": "qa",
      "AcquisitionMatrix": [122, 0, 0, 122],
      "AngioFlag": "N",
      "BitsAllocated": 16,
      "BitsStored": 12,
      "BodyPartExamined": "BRAIN",
      "Columns": 122,
      "EchoNumbers": 1,
      "EchoTime": 75.0,
      "EchoTrainLength": 61,
      "FlipAngle": 90.0,
      "HighBit": 11,
      "ImageOrientationPatient": [0.98485217500115, 0.17315792070609, 0.00908448635022, -0.1676363043297, 0.93743909421803, 0.30513278110085],
      "ImageType": [
        "ORIGINAL",
        "PRIMARY",
        "DIFFUSION",
        "NONE",
        "ND",
        "NORM"
],
      "ImagedNucleus": "1H",
      "ImagingFrequency": 123.252424,
      "InPlanePhaseEncodingDirection": "COL",
      "MRAcquisitionType": "2D",
      "MagneticFieldStrength": 3.0,
      "Manufacturer": "SIEMENS",
      "ManufacturerModelName": "Prisma",
      "Modality": "MR",
      "NumberOfAverages": 1.0,
      "NumberOfPhaseEncodingSteps": 122,
      "PercentPhaseFieldOfView": 100.0,
      "PercentSampling": 100.0,
      "PerformedProcedureStepStartTime": "103017.670000",
      "PhotometricInterpretation": "MONOCHROME2",
      "PixelBandwidth": 2050.0,
      "PixelRepresentation": 0,
      "PixelSpacing": [1.9672131538391, 1.9672131538391],
      "ProtocolName": "dwi_acq-DTI-30-p2",
      "RepetitionTime": 7700.0,
      "Rows": 122,
      "SAR": 0.10172921345341,
      "SamplesPerPixel": 1,
      "ScanOptions": "FS",
      "ScanningSequence": "EP",
      "SequenceVariant": [
        "SK",
        "SP"
],
      "SeriesDescription": "dwi_acq-DTI-30-p2",
      "SeriesNumber": 8,
      "SeriesTime": "104907.053000",
      "SliceThickness": 2.0,
      "SmallestImagePixelValue": 0,
      "SoftwareVersions": "syngo MR E11",
      "SpacingBetweenSlices": 2.0,
      "SpecificCharacterSet": "ISO_IR 100",
      "StudyID": "88",
      "StudyTime": "103017.600000",
      "TransmitCoilName": "Body",
      "VariableFlipAngleFlag": "N",
      "WindowCenterWidthExplanation": "Algo1",
      "dBdt": 0.0},
    "slices": {
      "AcquisitionTime": ["104856.027500", "104852.187500", "104856.137500", "104852.297500", "104856.247500", "104852.407500", "104856.355000", "104852.517500", "104856.465000", "104852.625000", "104856.575000", "104852.735000", "104856.685000", "104852.845000", "104856.795000", "104852.955000", "104856.905000", "104853.065000", "104857.015000", "104853.175000", "104857.125000", "104853.285000", "104857.235000", "104853.395000", "104857.342500", "104853.502500", "104857.452500", "104853.612500", "104857.562500", "104853.722500", "104857.672500", "104853.832500", "104857.782500", "104853.942500", "104857.892500", "104854.052500", "104858.002500", "104854.162500", "104858.112500", "104854.272500", "104858.220000", "104854.382500", "104858.330000", "104854.490000", "104858.440000", "104854.600000", "104858.550000", "104854.710000", "104858.660000", "104854.820000", "104858.770000", "104854.930000", "104858.880000", "104855.040000", "104858.990000", "104855.150000", "104859.100000", "104855.260000", "104859.207500", "104855.367500", "104859.317500", "104855.477500", "104859.427500", "104855.587500", "104859.537500", "104855.697500", "104859.647500", "104855.807500", "104859.757500", "104855.917500", "104903.727500", "104859.887500", "104903.837500", "104859.997500", "104903.947500", "104900.107500", "104904.055000", "104900.217500", "104904.165000", "104900.325000", "104904.275000", "104900.435000", "104904.385000", "104900.545000", "104904.495000", "104900.655000", "104904.605000", "104900.765000", "104904.715000", "104900.875000", "104904.825000", "104900.985000", "104904.935000", "104901.095000", "104905.042500", "104901.202500", "104905.152500", "104901.312500", "104905.262500", "104901.422500", "104905.372500", "104901.532500", "104905.482500", "104901.642500", "104905.592500", "104901.752500", "104905.702500", "104901.862500", "104905.812500", "104901.972500", "104905.920000", "104902.082500", "104906.030000", "104902.190000", "104906.140000", "104902.300000", "104906.250000", "104902.410000", "104906.360000", "104902.520000", "104906.470000", "104902.630000", "104906.580000", "104902.740000", "104906.690000", "104902.850000", "104906.800000", "104902.960000", "104906.907500", "104903.067500", "104907.017500", "104903.177500", "104907.127500", "104903.287500", "104907.237500", "104903.397500", "104907.347500", "104903.507500", "104907.457500", "104903.617500", "104911.427500", "104907.587500", "104911.537500", "104907.697500", "104911.647500", "104907.807500", "104911.755000", "104907.917500", "104911.865000", "104908.025000", "104911.975000", "104908.135000", "104912.085000", "104908.245000", "104912.195000", "104908.355000", "104912.305000", "104908.465000", "104912.415000", "104908.575000", "104912.525000", "104908.685000", "104912.635000", "104908.795000", "104912.742500", "104908.902500", "104912.852500", "104909.012500", "104912.962500", "104909.122500", "104913.072500", "104909.232500", "104913.182500", "104909.342500", "104913.292500", "104909.452500", "104913.402500", "104909.562500", "104913.512500", "104909.672500", "104913.620000", "104909.782500", "104913.730000", "104909.890000", "104913.840000", "104910.000000", "104913.950000", "104910.110000", "104914.060000", "104910.220000", "104914.170000", "104910.330000", "104914.280000", "104910.440000", "104914.390000", "104910.550000", "104914.500000", "104910.660000", "104914.607500", "104910.767500", "104914.717500", "104910.877500", "104914.827500", "104910.987500", "104914.937500", "104911.097500", "104915.047500", "104911.207500", "104915.157500", "104911.317500", "104919.127500", "104915.287500", "104919.237500", "104915.397500", "104919.347500", "104915.507500", "104919.455000", "104915.617500", "104919.565000", "104915.725000", "104919.675000", "104915.835000", "104919.785000", "104915.945000", "104919.895000", "104916.055000", "104920.005000", "104916.165000", "104920.115000", "104916.275000", "104920.225000", "104916.385000", "104920.335000", "104916.495000", "104920.442500", "104916.602500", "104920.552500", "104916.712500", "104920.662500", "104916.822500", "104920.772500", "104916.932500", "104920.882500", "104917.042500", "104920.992500", "104917.152500", "104921.102500", "104917.262500", "104921.212500", "104917.372500", "104921.320000", "104917.482500", "104921.430000", "104917.590000", "104921.540000", "104917.700000", "104921.650000", "104917.810000", "104921.760000", "104917.920000", "104921.870000", "104918.030000", "104921.980000", "104918.140000", "104922.090000", "104918.250000", "104922.200000", "104918.360000", "104922.307500", "104918.467500", "104922.417500", "104918.577500", "104922.527500", "104918.687500", "104922.637500", "104918.797500", "104922.747500", "104918.907500", "104922.857500", "104919.017500", "104926.827500", "104922.987500", "104926.937500", "104923.097500", "104927.047500", "104923.207500", "104927.155000", "104923.317500", "104927.265000", "104923.425000", "104927.375000", "104923.535000", "104927.485000", "104923.645000", "104927.595000", "104923.755000", "104927.705000", "104923.865000", "104927.815000", "104923.975000", "104927.925000", "104924.085000", "104928.035000", "104924.195000", "104928.142500", "104924.302500", "104928.252500", "104924.412500", "104928.362500", "104924.522500", "104928.472500", "104924.632500", "104928.582500", "104924.742500", "104928.692500", "104924.852500", "104928.802500", "104924.962500", "104928.912500", "104925.072500", "104929.020000", "104925.182500", "104929.130000", "104925.290000", "104929.240000", "104925.400000", "104929.350000", "104925.510000", "104929.460000", "104925.620000", "104929.570000", "104925.730000", "104929.680000", "104925.840000", "104929.790000", "104925.950000", "104929.900000", "104926.060000", "104930.007500", "104926.167500", "104930.117500", "104926.277500", "104930.227500", "104926.387500", "104930.337500", "104926.497500", "104930.447500", "104926.607500", "104930.557500", "104926.717500", "104934.527500", "104930.687500", "104934.637500", "104930.797500", "104934.747500", "104930.907500", "104934.855000", "104931.017500", "104934.965000", "104931.125000", "104935.075000", "104931.235000", "104935.185000", "104931.345000", "104935.295000", "104931.455000", "104935.405000", "104931.565000", "104935.515000", "104931.675000", "104935.625000", "104931.785000", "104935.735000", "104931.895000", "104935.842500", "104932.002500", "104935.952500", "104932.112500", "104936.062500", "104932.222500", "104936.172500", "104932.332500", "104936.282500", "104932.442500", "104936.392500", "104932.552500", "104936.502500", "104932.662500", "104936.612500", "104932.772500", "104936.720000", "104932.882500", "104936.830000", "104932.990000", "104936.940000", "104933.100000", "104937.050000", "104933.210000", "104937.160000", "104933.320000", "104937.270000", "104933.430000", "104937.380000", "104933.540000", "104937.490000", "104933.650000", "104937.600000", "104933.760000", "104937.707500", "104933.867500", "104937.817500", "104933.977500", "104937.927500", "104934.087500", "104938.037500", "104934.197500", "104938.147500", "104934.307500", "104938.257500", "104934.417500", "104942.227500", "104938.387500", "104942.337500", "104938.497500", "104942.447500", "104938.607500", "104942.555000", "104938.717500", "104942.665000", "104938.825000", "104942.775000", "104938.935000", "104942.885000", "104939.045000", "104942.995000", "104939.155000", "104943.105000", "104939.265000", "104943.215000", "104939.375000", "104943.325000", "104939.485000", "104943.435000", "104939.595000", "104943.542500", "104939.702500", "104943.652500", "104939.812500", "104943.762500", "104939.922500", "104943.872500", "104940.032500", "104943.982500", "104940.142500", "104944.092500", "104940.252500", "104944.202500", "104940.362500", "104944.312500", "104940.472500", "104944.420000", "104940.582500", "104944.530000", "104940.690000", "104944.640000", "104940.800000", "104944.750000", "104940.910000", "104944.860000", "104941.020000", "104944.970000", "104941.130000", "104945.080000", "104941.240000", "104945.190000", "104941.350000", "104945.300000", "104941.460000", "104945.407500", "104941.567500", "104945.517500", "104941.677500", "104945.627500", "104941.787500", "104945.737500", "104941.897500", "104945.847500", "104942.007500", "104945.957500", "104942.117500", "104949.927500", "104946.087500", "104950.037500", "104946.197500", "104950.147500", "104946.307500", "104950.255000", "104946.417500", "104950.365000", "104946.525000", "104950.475000", "104946.635000", "104950.585000", "104946.745000", "104950.695000", "104946.855000", "104950.805000", "104946.965000", "104950.915000", "104947.075000", "104951.025000", "104947.185000", "104951.135000", "104947.295000", "104951.242500", "104947.402500", "104951.352500", "104947.512500", "104951.462500", "104947.622500", "104951.572500", "104947.732500", "104951.682500", "104947.842500", "104951.792500", "104947.952500", "104951.902500", "104948.062500", "104952.012500", "104948.172500", "104952.120000", "104948.282500", "104952.230000", "104948.390000", "104952.340000", "104948.500000", "104952.450000", "104948.610000", "104952.560000", "104948.720000", "104952.670000", "104948.830000", "104952.780000", "104948.940000", "104952.890000", "104949.050000", "104953.000000", "104949.160000", "104953.107500", "104949.267500", "104953.217500", "104949.377500", "104953.327500", "104949.487500", "104953.437500", "104949.597500", "104953.547500", "104949.707500", "104953.657500", "104949.817500", "104957.627500", "104953.787500", "104957.737500", "104953.897500", "104957.847500", "104954.007500", "104957.955000", "104954.117500", "104958.065000", "104954.225000", "104958.175000", "104954.335000", "104958.285000", "104954.445000", "104958.395000", "104954.555000", "104958.505000", "104954.665000", "104958.615000", "104954.775000", "104958.725000", "104954.885000", "104958.835000", "104954.995000", "104958.942500", "104955.102500", "104959.052500", "104955.212500", "104959.162500", "104955.322500", "104959.272500", "104955.432500", "104959.382500", "104955.542500", "104959.492500", "104955.652500", "104959.602500", "104955.762500", "104959.712500", "104955.872500", "104959.820000", "104955.982500", "104959.930000", "104956.090000", "105000.040000", "104956.200000", "105000.150000", "104956.310000", "105000.260000", "104956.420000", "105000.370000", "104956.530000", "105000.480000", "104956.640000", "105000.590000", "104956.750000", "105000.700000", "104956.860000", "105000.807500", "104956.967500", "105000.917500", "104957.077500", "105001.027500", "104957.187500", "105001.137500", "104957.297500", "105001.247500", "104957.407500", "105001.357500", "104957.517500", "105005.327500", "105001.487500", "105005.437500", "105001.597500", "105005.547500", "105001.707500", "105005.655000", "105001.817500", "105005.765000", "105001.925000", "105005.875000", "105002.035000", "105005.985000", "105002.145000", "105006.095000", "105002.255000", "105006.205000", "105002.365000", "105006.315000", "105002.475000", "105006.425000", "105002.585000", "105006.535000", "105002.695000", "105006.642500", "105002.802500", "105006.752500", "105002.912500", "105006.862500", "105003.022500", "105006.972500", "105003.132500", "105007.082500", "105003.242500", "105007.192500", "105003.352500", "105007.302500", "105003.462500", "105007.412500", "105003.572500", "105007.520000", "105003.682500", "105007.630000", "105003.790000", "105007.740000", "105003.900000", "105007.850000", "105004.010000", "105007.960000", "105004.120000", "105008.070000", "105004.230000", "105008.180000", "105004.340000", "105008.290000", "105004.450000", "105008.400000", "105004.560000", "105008.507500", "105004.667500", "105008.617500", "105004.777500", "105008.727500", "105004.887500", "105008.837500", "105004.997500", "105008.947500", "105005.107500", "105009.057500", "105005.217500", "105013.027500", "105009.187500", "105013.137500", "105009.297500", "105013.247500", "105009.407500", "105013.355000", "105009.517500", "105013.465000", "105009.625000", "105013.575000", "105009.735000", "105013.685000", "105009.845000", "105013.795000", "105009.955000", "105013.905000", "105010.065000", "105014.015000", "105010.175000", "105014.125000", "105010.285000", "105014.235000", "105010.395000", "105014.342500", "105010.502500", "105014.452500", "105010.612500", "105014.562500", "105010.722500", "105014.672500", "105010.832500", "105014.782500", "105010.942500", "105014.892500", "105011.052500", "105015.002500", "105011.162500", "105015.112500", "105011.272500", "105015.220000", "105011.382500", "105015.330000", "105011.490000", "105015.440000", "105011.600000", "105015.550000", "105011.710000", "105015.660000", "105011.820000", "105015.770000", "105011.930000", "105015.880000", "105012.040000", "105015.990000", "105012.150000", "105016.100000", "105012.260000", "105016.207500", "105012.367500", "105016.317500", "105012.477500", "105016.427500", "105012.587500", "105016.537500", "105012.697500", "105016.647500", "105012.807500", "105016.757500", "105012.917500", "105020.727500", "105016.887500", "105020.837500", "105016.997500", "105020.947500", "105017.107500", "105021.055000", "105017.217500", "105021.165000", "105017.325000", "105021.275000", "105017.435000", "105021.385000", "105017.545000", "105021.495000", "105017.655000", "105021.605000", "105017.765000", "105021.715000", "105017.875000", "105021.825000", "105017.985000", "105021.935000", "105018.095000", "105022.042500", "105018.202500", "105022.152500", "105018.312500", "105022.262500", "105018.422500", "105022.372500", "105018.532500", "105022.482500", "105018.642500", "105022.592500", "105018.752500", "105022.702500", "105018.862500", "105022.812500", "105018.972500", "105022.920000", "105019.082500", "105023.030000", "105019.190000", "105023.140000", "105019.300000", "105023.250000", "105019.410000", "105023.360000", "105019.520000", "105023.470000", "105019.630000", "105023.580000", "105019.740000", "105023.690000", "105019.850000", "105023.800000", "105019.960000", "105023.907500", "105020.067500", "105024.017500", "105020.177500", "105024.127500", "105020.287500", "105024.237500", "105020.397500", "105024.347500", "105020.507500", "105024.457500", "105020.617500", "105028.427500", "105024.587500", "105028.537500", "105024.697500", "105028.647500", "105024.807500", "105028.755000", "105024.917500", "105028.865000", "105025.025000", "105028.975000", "105025.135000", "105029.085000", "105025.245000", "105029.195000", "105025.355000", "105029.305000", "105025.465000", "105029.415000", "105025.575000", "105029.525000", "105025.685000", "105029.635000", "105025.795000", "105029.742500", "105025.902500", "105029.852500", "105026.012500", "105029.962500", "105026.122500", "105030.072500", "105026.232500", "105030.182500", "105026.342500", "105030.292500", "105026.452500", "105030.402500", "105026.562500", "105030.512500", "105026.672500", "105030.620000", "105026.782500", "105030.730000", "105026.890000", "105030.840000", "105027.000000", "105030.950000", "105027.110000", "105031.060000", "105027.220000", "105031.170000", "105027.330000", "105031.280000", "105027.440000", "105031.390000", "105027.550000", "105031.500000", "105027.660000", "105031.607500", "105027.767500", "105031.717500", "105027.877500", "105031.827500", "105027.987500", "105031.937500", "105028.097500", "105032.047500", "105028.207500", "105032.157500", "105028.317500", "105036.127500", "105032.287500", "105036.237500", "105032.397500", "105036.347500", "105032.507500", "105036.455000", "105032.617500", "105036.565000", "105032.725000", "105036.675000", "105032.835000", "105036.785000", "105032.945000", "105036.895000", "105033.055000", "105037.005000", "105033.165000", "105037.115000", "105033.275000", "105037.225000", "105033.385000", "105037.335000", "105033.495000", "105037.442500", "105033.602500", "105037.552500", "105033.712500", "105037.662500", "105033.822500", "105037.772500", "105033.932500", "105037.882500", "105034.042500", "105037.992500", "105034.152500", "105038.102500", "105034.262500", "105038.212500", "105034.372500", "105038.320000", "105034.482500", "105038.430000", "105034.590000", "105038.540000", "105034.700000", "105038.650000", "105034.810000", "105038.760000", "105034.920000", "105038.870000", "105035.030000", "105038.980000", "105035.140000", "105039.090000", "105035.250000", "105039.200000", "105035.360000", "105039.307500", "105035.467500", "105039.417500", "105035.577500", "105039.527500", "105035.687500", "105039.637500", "105035.797500", "105039.747500", "105035.907500", "105039.857500", "105036.017500", "105043.827500", "105039.987500", "105043.937500", "105040.097500", "105044.047500", "105040.207500", "105044.155000", "105040.317500", "105044.265000", "105040.425000", "105044.375000", "105040.535000", "105044.485000", "105040.645000", "105044.595000", "105040.755000", "105044.705000", "105040.865000", "105044.815000", "105040.975000", "105044.925000", "105041.085000", "105045.035000", "105041.195000", "105045.142500", "105041.302500", "105045.252500", "105041.412500", "105045.362500", "105041.522500", "105045.472500", "105041.632500", "105045.582500", "105041.742500", "105045.692500", "105041.852500", "105045.802500", "105041.962500", "105045.912500", "105042.072500", "105046.020000", "105042.182500", "105046.130000", "105042.290000", "105046.240000", "105042.400000", "105046.350000", "105042.510000", "105046.460000", "105042.620000", "105046.570000", "105042.730000", "105046.680000", "105042.840000", "105046.790000", "105042.950000", "105046.900000", "105043.060000", "105047.007500", "105043.167500", "105047.117500", "105043.277500", "105047.227500", "105043.387500", "105047.337500", "105043.497500", "105047.447500", "105043.607500", "105047.557500", "105043.717500", "105051.527500", "105047.687500", "105051.637500", "105047.797500", "105051.747500", "105047.907500", "105051.855000", "105048.017500", "105051.965000", "105048.125000", "105052.075000", "105048.235000", "105052.185000", "105048.345000", "105052.295000", "105048.455000", "105052.405000", "105048.565000", "105052.515000", "105048.675000", "105052.625000", "105048.785000", "105052.735000", "105048.895000", "105052.842500", "105049.002500", "105052.952500", "105049.112500", "105053.062500", "105049.222500", "105053.172500", "105049.332500", "105053.282500", "105049.442500", "105053.392500", "105049.552500", "105053.502500", "105049.662500", "105053.612500", "105049.772500", "105053.720000", "105049.882500", "105053.830000", "105049.990000", "105053.940000", "105050.100000", "105054.050000", "105050.210000", "105054.160000", "105050.320000", "105054.270000", "105050.430000", "105054.380000", "105050.540000", "105054.490000", "105050.650000", "105054.600000", "105050.760000", "105054.707500", "105050.867500", "105054.817500", "105050.977500", "105054.927500", "105051.087500", "105055.037500", "105051.197500", "105055.147500", "105051.307500", "105055.257500", "105051.417500", "105059.227500", "105055.387500", "105059.337500", "105055.497500", "105059.447500", "105055.607500", "105059.555000", "105055.717500", "105059.665000", "105055.825000", "105059.775000", "105055.935000", "105059.885000", "105056.045000", "105059.995000", "105056.155000", "105100.105000", "105056.265000", "105100.215000", "105056.375000", "105100.325000", "105056.485000", "105100.435000", "105056.595000", "105100.542500", "105056.702500", "105100.652500", "105056.812500", "105100.762500", "105056.922500", "105100.872500", "105057.032500", "105100.982500", "105057.142500", "105101.092500", "105057.252500", "105101.202500", "105057.362500", "105101.312500", "105057.472500", "105101.420000", "105057.582500", "105101.530000", "105057.690000", "105101.640000", "105057.800000", "105101.750000", "105057.910000", "105101.860000", "105058.020000", "105101.970000", "105058.130000", "105102.080000", "105058.240000", "105102.190000", "105058.350000", "105102.300000", "105058.460000", "105102.407500", "105058.567500", "105102.517500", "105058.677500", "105102.627500", "105058.787500", "105102.737500", "105058.897500", "105102.847500", "105059.007500", "105102.957500", "105059.117500", "105106.927500", "105103.087500", "105107.037500", "105103.197500", "105107.147500", "105103.307500", "105107.255000", "105103.417500", "105107.365000", "105103.525000", "105107.475000", "105103.635000", "105107.585000", "105103.745000", "105107.695000", "105103.855000", "105107.805000", "105103.965000", "105107.915000", "105104.075000", "105108.025000", "105104.185000", "105108.135000", "105104.295000", "105108.242500", "105104.402500", "105108.352500", "105104.512500", "105108.462500", "105104.622500", "105108.572500", "105104.732500", "105108.682500", "105104.842500", "105108.792500", "105104.952500", "105108.902500", "105105.062500", "105109.012500", "105105.172500", "105109.120000", "105105.282500", "105109.230000", "105105.390000", "105109.340000", "105105.500000", "105109.450000", "105105.610000", "105109.560000", "105105.720000", "105109.670000", "105105.830000", "105109.780000", "105105.940000", "105109.890000", "105106.050000", "105110.000000", "105106.160000", "105110.107500", "105106.267500", "105110.217500", "105106.377500", "105110.327500", "105106.487500", "105110.437500", "105106.597500", "105110.547500", "105106.707500", "105110.657500", "105106.817500", "105114.627500", "105110.787500", "105114.737500", "105110.897500", "105114.847500", "105111.007500", "105114.955000", "105111.117500", "105115.065000", "105111.225000", "105115.175000", "105111.335000", "105115.285000", "105111.445000", "105115.395000", "105111.555000", "105115.505000", "105111.665000", "105115.615000", "105111.775000", "105115.725000", "105111.885000", "105115.835000", "105111.995000", "105115.942500", "105112.102500", "105116.052500", "105112.212500", "105116.162500", "105112.322500", "105116.272500", "105112.432500", "105116.382500", "105112.542500", "105116.492500", "105112.652500", "105116.602500", "105112.762500", "105116.712500", "105112.872500", "105116.820000", "105112.982500", "105116.930000", "105113.090000", "105117.040000", "105113.200000", "105117.150000", "105113.310000", "105117.260000", "105113.420000", "105117.370000", "105113.530000", "105117.480000", "105113.640000", "105117.590000", "105113.750000", "105117.700000", "105113.860000", "105117.807500", "105113.967500", "105117.917500", "105114.077500", "105118.027500", "105114.187500", "105118.137500", "105114.297500", "105118.247500", "105114.407500", "105118.357500", "105114.517500", "105122.327500", "105118.487500", "105122.437500", "105118.597500", "105122.547500", "105118.707500", "105122.655000", "105118.817500", "105122.765000", "105118.925000", "105122.875000", "105119.035000", "105122.985000", "105119.145000", "105123.095000", "105119.255000", "105123.205000", "105119.365000", "105123.315000", "105119.475000", "105123.425000", "105119.585000", "105123.535000", "105119.695000", "105123.642500", "105119.802500", "105123.752500", "105119.912500", "105123.862500", "105120.022500", "105123.972500", "105120.132500", "105124.082500", "105120.242500", "105124.192500", "105120.352500", "105124.302500", "105120.462500", "105124.412500", "105120.572500", "105124.520000", "105120.682500", "105124.630000", "105120.790000", "105124.740000", "105120.900000", "105124.850000", "105121.010000", "105124.960000", "105121.120000", "105125.070000", "105121.230000", "105125.180000", "105121.340000", "105125.290000", "105121.450000", "105125.400000", "105121.560000", "105125.507500", "105121.667500", "105125.617500", "105121.777500", "105125.727500", "105121.887500", "105125.837500", "105121.997500", "105125.947500", "105122.107500", "105126.057500", "105122.217500", "105130.027500", "105126.187500", "105130.137500", "105126.297500", "105130.247500", "105126.407500", "105130.355000", "105126.517500", "105130.465000", "105126.625000", "105130.575000", "105126.735000", "105130.685000", "105126.845000", "105130.795000", "105126.955000", "105130.905000", "105127.065000", "105131.015000", "105127.175000", "105131.125000", "105127.285000", "105131.235000", "105127.395000", "105131.342500", "105127.502500", "105131.452500", "105127.612500", "105131.562500", "105127.722500", "105131.672500", "105127.832500", "105131.782500", "105127.942500", "105131.892500