{
  "AcquisitionMatrixPE": 80,
  "AcquisitionNumber": 1,
  "AcquisitionTime": "09:49:38.827500",
  "BandwidthPerPixelPhaseEncode": 48.077,
  "BaseResolution": 80,
  "BodyPartExamined": "BRAIN",
  "CoilCombinationMethod": "Sum of Squares",
  "ConsistencyInfo": "N4_VE11C_LATEST_20160120",
  "ConversionSoftware": "dcm2niix",
  "ConversionSoftwareVersion": "v1.0.20220720",
  "DerivedVendorReportedEchoSpacing": 0.000519999,
  "DeviceSerialNumber": "66112",
  "DwellTime": 2.7e-06,
  "EchoTime": 0.035,
  "EchoTrainLength": 39,
  "EffectiveEchoSpacing": 0.00026,
  "FlipAngle": 90,
  "HeudiconvVersion": "0.13.1",
  "ImageOrientationPatientDICOM": [0.986086, -0.166224, 0.0020878, 0.157769, 0.939736, 0.303322],
  "ImageOrientationText": "Tra>Cor(17.4)>Sag(3.0)",
  "ImageType": [
    "ORIGINAL",
    "PRIMARY",
    "M",
    "ND",
    "NORM",
    "MOSAIC"
],
  "ImagingFrequency": 123.252,
  "InPlanePhaseEncodingDirectionDICOM": "COL",
  "InstitutionAddress": "Maynard 3,Hanover,NH,US,03755",
  "InstitutionName": "Dartmouth College - PBS",
  "InstitutionalDepartmentName": "Department",
  "MRAcquisitionType": "2D",
  "MagneticFieldStrength": 3,
  "Manufacturer": "Siemens",
  "ManufacturersModelName": "Prisma",
  "MatrixCoilMode": "GRAPPA",
  "Modality": "MR",
  "NonlinearGradientCorrection": false,
  "ParallelReductionFactorInPlane": 2,
  "PartialFourier": 1,
  "PatientPosition": "HFS",
  "PercentPhaseFOV": 100,
  "PercentSampling": 100,
  "PhaseEncodingDirection": "j-",
  "PhaseEncodingSteps": 79,
  "PhaseResolution": 1,
  "PixelBandwidth": 2315,
  "ProcedureStepDescription": "dbic^QA",
  "ProtocolName": "func-bold_task-rest_acq-p2",
  "PulseSequenceDetails": "%SiemensSeq%\\ep2d_bold",
  "ReceiveCoilActiveElements": "HEA;HEP",
  "ReceiveCoilName": "Head_32",
  "ReconMatrixPE": 80,
  "RefLinesPE": 24,
  "RepetitionTime": 2,
  "SAR": 0.0555037,
  "ScanOptions": "FS",
  "ScanningSequence": "EP",
  "SequenceName": "*epfid2d1_80",
  "SequenceVariant": "SK",
  "SeriesDescription": "func-bold_task-rest_acq-p2",
  "SeriesNumber": 5,
  "ShimSetting": [4147, -7686, -7515, 293, -88, -144, -84, 89],
  "SliceThickness": 3.5,
  "SliceTiming": [0.99, 0, 1.0575, 0.0675, 1.1225, 0.1325, 1.19, 0.2, 1.255, 0.265, 1.32, 0.33, 1.3875, 0.3975, 1.4525, 0.4625, 1.52, 0.53, 1.585, 0.595, 1.65, 0.66, 1.7175, 0.7275, 1.7825, 0.7925, 1.85, 0.86, 1.915, 0.925],
  "SoftwareVersions": "syngo MR E11",
  "SpacingBetweenSlices": 3.99,
  "StationName": "AWP66112",
  "TaskName": "rest",
  "TotalReadoutTime": 0.02054,
  "TxRefAmp": 234.563,
  "dcmmeta_affine": [
    [-2.9582574367523193, 0.4733065962791443, 0.20900219678878784, 93.59634399414062],
    [0.4986725449562073, 2.819209098815918, 1.192102313041687, -140.6427764892578],
    [0.006263410206884146, -0.9099671840667725, 3.802014112472534, -19.200124740600586],
    [0.0, 0.0, 0.0, 1.0]
],
  "dcmmeta_reorient_transform": [
    [0.0, -1.0, 0.0, 79.0],
    [1.0, 0.0, 0.0, 0.0],
    [0.0, 0.0, 1.0, 0.0],
    [0.0, 0.0, 0.0, 1.0]
],
  "dcmmeta_shape": [80, 80, 30, 200],
  "dcmmeta_slice_dim": 2,
  "dcmmeta_version": 0.6,
  "global": {
    "const": {
      "AccessionNumber": "qa",
      "AcquisitionMatrix": [80, 0, 0, 80],
      "AngioFlag": "N",
      "BitsAllocated": 16,
      "BitsStored": 12,
      "BodyPartExamined": "BRAIN",
      "Columns": 480,
      "EchoNumbers": 1,
      "EchoTime": 35.0,
      "EchoTrainLength": 39,
      "FlipAngle": 90.0,
      "HighBit": 11,
      "ImageOrientationPatient": [0.98608577878151, -0.1662241798355, 0.00208780335995, 0.15776886651366, 0.93973640460268, 0.30332239387065],
      "ImagePositionPatient": [-817.30035262339, -546.18208437935, -274.33365072186],
      "ImageType": [
        "ORIGINAL",
        "PRIMARY",
        "M",
        "ND",
        "NORM",
        "MOSAIC"
],
      "ImagedNucleus": "1H",
      "ImagingFrequency": 123.252463,
      "InPlanePhaseEncodingDirection": "COL",
      "MRAcquisitionType": "2D",
      "MagneticFieldStrength": 3.0,
      "Manufacturer": "SIEMENS",
      "ManufacturerModelName": "Prisma",
      "Modality": "MR",
      "NumberOfAverages": 1.0,
      "NumberOfPhaseEncodingSteps": 79,
      "PercentPhaseFieldOfView": 100.0,
      "PercentSampling": 100.0,
      "PerformedProcedureStepStartTime": "092832.433000",
      "PhotometricInterpretation": "MONOCHROME2",
      "PixelBandwidth": 2315.0,
      "PixelRepresentation": 0,
      "PixelSpacing": [3.0, 3.0],
      "ProtocolName": "func-bold_task-rest_acq-p2",
      "RepetitionTime": 2000.0,
      "Rows": 480,
      "SAR": 0.0555037036451,
      "SamplesPerPixel": 1,
      "ScanOptions": "FS",
      "ScanningSequence": "EP",
      "SequenceName": "*epfid2d1_80",
      "SequenceVariant": "SK",
      "SeriesDescription": "func-bold_task-rest_acq-p2",
      "SeriesNumber": 5,
      "SeriesTime": "095027.759000",
      "SliceLocation": -55.413003401726,
      "SliceThickness": 3.5,
      "SmallestImagePixelValue": 0,
      "SoftwareVersions": "syngo MR E11",
      "SpacingBetweenSlices": 3.990000084882,
      "SpecificCharacterSet": "ISO_IR 100",
      "StudyID": "55",
      "StudyTime": "092832.339000",
      "TransmitCoilName": "Body",
      "VariableFlipAngleFlag": "N",
      "WindowCenterWidthExplanation": "Algo1",
      "dBdt": 0.0},
    "slices": {}
  },
  "time": {
    "samples": {
      "AcquisitionNumber": [1, 2, 3, 4, 5, 6, 7, 8, 9, 10, 11, 12, 13, 14, 15, 16, 17, 18, 19, 20, 21, 22, 23, 24, 25, 26, 27, 28, 29, 30, 31, 32, 33, 34, 35, 36, 37, 38, 39, 40, 41, 42, 43, 44, 45, 46, 47, 48, 49, 50, 51, 52, 53, 54, 55, 56, 57, 58, 59, 60, 61, 62, 63, 64, 65, 66, 67, 68, 69, 70, 71, 72, 73, 74, 75, 76, 77, 78, 79, 80, 81, 82, 83, 84, 85, 86, 87, 88, 89, 90, 91, 92, 93, 94, 95, 96, 97, 98, 99, 100, 101, 102, 103, 104, 105, 106, 107, 108, 109, 110, 111, 112, 113, 114, 115, 116, 117, 118, 119, 120, 121, 122, 123, 124, 125, 126, 127, 128, 129, 130, 131, 132, 133, 134, 135, 136, 137, 138, 139, 140, 141, 142, 143, 144, 145, 146, 147, 148, 149, 150, 151, 152, 153, 154, 155, 156, 157, 158, 159, 160, 161, 162, 163, 164, 165, 166, 167, 168, 169, 170, 171, 172, 173, 174, 175, 176, 177, 178, 179, 180, 181, 182, 183, 184, 185, 186, 187, 188, 189, 190, 191, 192, 193, 194, 195, 196, 197, 198, 199, 200],
      "AcquisitionTime": ["094938.827500", "094940.827500", "094942.827500", "094944.827500", "094946.827500", "094948.827500", "094950.827500", "094952.827500", "094954.827500", "094956.827500", "094958.827500", "095000.827500", "095002.827500", "095004.827500", "095006.827500", "095008.827500", "095010.827500", "095012.827500", "095014.827500", "095016.827500", "095018.827500", "095020.827500", "095022.827500", "095024.827500", "095026.827500", "095028.827500", "095030.827500", "095032.827500", "095034.827500", "095036.827500", "095038.827500", "095040.827500", "095042.827500", "095044.827500", "095046.827500", "095048.827500", "095050.827500", "095052.827500", "095054.827500", "095056.827500", "095058.827500", "095100.827500", "095102.827500", "095104.827500", "095106.827500", "095108.827500", "095110.827500", "095112.827500", "095114.827500", "095116.827500", "095118.827500", "095120.827500", "095122.827500", "095124.827500", "095126.827500", "095128.827500", "095130.827500", "095132.827500", "095134.827500", "095136.827500", "095138.827500", "095140.827500", "095142.827500", "095144.827500", "095146.827500", "095148.827500", "095150.827500", "095152.827500", "095154.827500", "095156.827500", "095158.827500", "095200.827500", "095202.827500", "095204.827500", "095206.827500", "095208.827500", "095210.827500", "095212.827500", "095214.827500", "095216.827500", "095218.827500", "095220.827500", "095222.827500", "095224.827500", "095226.827500", "095228.827500", "095230.827500", "095232.827500", "095234.827500", "095236.827500", "095238.827500", "095240.827500", "095242.827500", "095244.827500", "095246.827500", "095248.827500", "095250.827500", "095252.827500", "095254.827500", "095256.827500", "095258.827500", "095300.827500", "095302.827500", "095304.827500", "095306.827500", "095308.827500", "095310.827500", "095312.827500", "095314.827500", "095316.827500", "095318.827500", "095320.827500", "095322.827500", "095324.827500", "095326.827500", "095328.827500", "095330.827500", "095332.827500", "095334.827500", "095336.827500", "095338.827500", "095340.827500", "095342.827500", "095344.827500", "095346.827500", "095348.827500", "095350.827500", "095352.827500", "095354.827500", "095356.827500", "095358.827500", "095400.827500", "095402.827500", "095404.827500", "095406.827500", "095408.827500", "095410.827500", "095412.827500", "095414.827500", "095416.827500", "095418.827500", "095420.827500", "095422.827500", "095424.827500", "095426.827500", "095428.827500", "095430.827500", "095432.827500", "095434.827500", "095436.827500", "095438.827500", "095440.827500", "095442.827500", "095444.827500", "095446.827500", "095448.827500", "095450.827500", "095452.827500", "095454.827500", "095456.827500", "095458.827500", "095500.827500", "095502.827500", "095504.827500", "095506.827500", "095508.827500", "095510.827500", "095512.827500", "095514.827500", "095516.827500", "095518.827500", "095520.827500", "095522.827500", "095524.827500", "095526.827500", "095528.827500", "095530.827500", "095532.827500", "095534.827500", "095536.827500", "095538.827500", "095540.827500", "095542.827500", "095544.827500", "095546.827500", "095548.827500", "095550.827500", "095552.827500", "095554.827500", "095556.827500", "095558.827500", "095600.827500", "095602.827500", "095604.827500", "095606.827500", "095608.827500", "095610.827500", "095612.827500", "095614.827500", "095616.827500"],
      "ContentTime": ["095027.762000", "095027.766000", "095027.769000", "095027.771000", "095027.774000", "095027.777000", "095027.779000", "095027.790000", "095027.793000", "095027.796000", "095027.798000", "095027.801000", "095027.803000", "095027.806000", "095027.809000", "095027.812000", "095027.814000", "095027.817000", "095027.820000", "095027.822000", "095027.825000", "095027.828000", "095027.830000", "095027.833000", "095107.745000", "095107.753000", "095107.756000", "095107.759000", "095107.761000", "095107.764000", "095107.767000", "095107.770000", "095107.772000", "095107.775000", "095107.777000", "095107.780000", "095107.783000", "095107.785000", "095107.788000", "095107.791000", "095107.793000", "095107.796000", "095107.798000", "095107.801000", "095147.746000", "095147.748000", "095147.751000", "095147.754000", "095147.756000", "095147.759000", "095147.761000", "095147.764000", "095147.767000", "095147.769000", "095147.772000", "095147.775000", "095147.777000", "095147.780000", "095147.783000", "095147.785000", "095147.788000", "095147.790000", "095147.793000", "095147.796000", "095227.744000", "095227.747000", "095227.750000", "095227.753000", "095227.755000", "095227.758000", "095227.760000", "095227.763000", "095227.766000", "095227.768000", "095227.771000", "095227.774000", "095227.776000", "095227.779000", "095227.782000", "095227.784000", "095227.787000", "095227.789000", "095227.792000", "095227.795000", "095307.746000", "095307.748000", "095307.751000", "095307.754000", "095307.756000", "095307.759000", "095307.762000", "095307.765000", "095307.767000", "095307.770000", "095307.772000", "095307.775000", "095307.778000", "095307.780000", "095307.783000", "095307.786000", "095307.788000", "095307.791000", "095307.793000", "095307.796000", "095347.746000", "095347.748000", "095347.751000", "095347.754000", "095347.757000", "095347.759000", "095347.762000", "095347.764000", "095347.767000", "095347.770000", "095347.772000", "095347.775000", "095347.778000", "095347.780000", "095347.783000", "095347.785000", "095347.788000", "095347.791000", "095347.793000", "095347.796000", "095427.745000", "095427.747000", "095427.750000", "095427.753000", "095427.755000", "095427.758000", "095427.760000", "095427.763000", "095427.766000", "095427.768000", "095427.771000", "095427.773000", "095427.776000", "095427.778000", "095427.781000", "095427.784000", "095427.786000", "095427.789000", "095427.791000", "095427.794000", "095507.746000", "095507.748000", "095507.751000", "095507.754000", "095507.757000", "095507.759000", "095507.762000", "095507.764000", "095507.767000", "095507.770000", "095507.772000", "095507.775000", "095507.777000", "095507.780000", "095507.783000", "095507.785000", "095507.788000", "095507.791000", "095507.793000", "095507.796000", "095547.746000", "095547.748000", "095547.751000", "095547.754000", "095547.756000", "095547.759000", "095547.762000", "095547.764000", "095547.767000", "095547.769000", "095547.772000", "095547.775000", "095547.777000", "095547.780000", "095547.783000", "095547.785000", "095547.788000", "095547.790000", "095547.793000", "095547.796000", "095618.037000", "095618.040000", "095618.043000", "095618.046000", "095618.049000", "095618.051000", "095618.054000", "095618.056000", "095618.059000", "095618.062000", "095618.064000", "095618.073000", "095618.080000", "095618.083000", "095618.088000", "095618.092000"],
      "InstanceCreationTime": ["095027.762000", "095027.766000", "095027.769000", "095027.771000", "095027.774000", "095027.777000", "095027.779000", "095027.790000", "095027.793000", "095027.796000", "095027.798000", "095027.801000", "095027.803000", "095027.806000", "095027.809000", "095027.812000", "095027.814000", "095027.817000", "095027.820000", "095027.822000", "095027.825000", "095027.828000", "095027.830000", "095027.833000", "095107.745000", "095107.753000", "095107.756000", "095107.759000", "095107.761000", "095107.764000", "095107.767000", "095107.770000", "095107.772000", "095107.775000", "095107.777000", "095107.780000", "095107.783000", "095107.785000", "095107.788000", "095107.791000", "095107.793000", "095107.796000", "095107.798000", "095107.801000", "095147.746000", "095147.748000", "095147.751000", "095147.754000", "095147.756000", "095147.759000", "095147.761000", "095147.764000", "095147.767000", "095147.769000", "095147.772000", "095147.775000", "095147.777000", "095147.780000", "095147.783000", "095147.785000", "095147.788000", "095147.790000", "095147.793000", "095147.796000", "095227.744000", "095227.747000", "095227.750000", "095227.753000", "095227.755000", "095227.758000", "095227.760000", "095227.763000", "095227.766000", "095227.768000", "095227.771000", "095227.774000", "095227.776000", "095227.779000", "095227.782000", "095227.784000", "095227.787000", "095227.789000", "095227.792000", "095227.795000", "095307.746000", "095307.748000", "095307.751000", "095307.754000", "095307.756000", "095307.759000", "095307.762000", "095307.765000", "095307.767000", "095307.770000", "095307.772000", "095307.775000", "095307.778000", "095307.780000", "095307.783000", "095307.786000", "095307.788000", "095307.791000", "095307.793000", "095307.796000", "095347.746000", "095347.748000", "095347.751000", "095347.754000", "095347.757000", "095347.759000", "095347.762000", "095347.764000", "095347.767000", "095347.770000", "095347.772000", "095347.775000", "095347.778000", "095347.780000", "095347.783000", "095347.785000", "095347.788000", "095347.791000", "095347.793000", "095347.796000", "095427.745000", "095427.747000", "095427.750000", "095427.753000", "095427.755000", "095427.758000", "095427.760000", "095427.763000", "095427.766000", "095427.768000", "095427.771000", "095427.773000", "095427.776000", "095427.778000", "095427.781000", "095427.784000", "095427.786000", "095427.789000", "095427.791000", "095427.794000", "095507.746000", "095507.748000", "095507.751000", "095507.754000", "095507.757000", "095507.759000", "095507.762000", "095507.764000", "095507.767000", "095507.770000", "095507.772000", "095507.775000", "095507.777000", "095507.780000", "095507.783000", "095507.785000", "095507.788000", "095507.791000", "095507.793000", "095507.796000", "095547.746000", "095547.748000", "095547.751000", "095547.754000", "095547.756000", "095547.759000", "095547.762000", "095547.764000", "095547.767000", "095547.769000", "095547.772000", "095547.775000", "095547.777000", "095547.780000", "095547.783000", "095547.785000", "095547.788000", "095547.790000", "095547.793000", "095547.796000", "095618.037000", "095618.040000", "095618.043000", "095618.046000", "095618.049000", "095618.051000", "095618.054000", "095618.056000", "095618.059000", "095618.062000", "095618.064000", "095618.073000", "095618.080000", "095618.083000", "095618.088000", "095618.092000"],
      "InstanceNumber": [1, 2, 3, 4, 5, 6, 7, 8, 9, 10, 11, 12, 13, 14, 15, 16, 17, 18, 19, 20, 21, 22, 23, 24, 25, 26, 27, 28, 29, 30, 31, 32, 33, 34, 35, 36, 37, 38, 39, 40, 41, 42, 43, 44, 45, 46, 47, 48, 49, 50, 51, 52, 53, 54, 55, 56, 57, 58, 59, 60, 61, 62, 63, 64, 65, 66, 67, 68, 69, 70, 71, 72, 73, 74, 75, 76, 77, 78, 79, 80, 81, 82, 83, 84, 85, 86, 87, 88, 89, 90, 91, 92, 93, 94, 95, 96, 97, 98, 99, 100, 101, 102, 103, 104, 105, 106, 107, 108, 109, 110, 111, 112, 113, 114, 115, 116, 117, 118, 119, 120, 121, 122, 123, 124, 125, 126, 127, 128, 129, 130, 131, 132, 133, 134, 135, 136, 137, 138, 139, 140, 141, 142, 143, 144, 145, 146, 147, 148, 149, 150, 151, 152, 153, 154, 155, 156, 157, 158, 159, 160, 161, 162, 163, 164, 165, 166, 167, 168, 169, 170, 171, 172, 173, 174, 175, 176, 177, 178, 179, 180, 181, 182, 183, 184, 185, 186, 187, 188, 189, 190, 191, 192, 193, 194, 195, 196, 197, 198, 199, 200],
      "LargestImagePixelValue": [2003, 1997, 1999, 2001, 2003, 2002, 1995, 1995, 2003, 2000, 1998, 1999, 1999, 2001, 2010, 2000, 1996, 2001, 2007, 2000, 2000, 1998, 2011, 1999, 2000, 1994, 2002, 1994, 1997, 2004, 1996, 2001, 2007, 2003, 1996, 1995, 1997, 1992, 2000, 2002, 1997, 2002, 1997, 1996, 2000, 2002, 2003, 2003, 2006, 1990, 1997, 2007, 1999, 1999, 2003, 1998, 2001, 1994, 2004, 2005, 1999, 2001, 1997, 1997, 2003, 1997, 1996, 2003, 2006, 2002, 2000, 1994, 1995, 2003, 2006, 2000, 2007, 2002, 1997, 2009, 2005, 1999, 1998, 1996, 2009, 2001, 2004, 2000, 1990, 2002, 2005, 2000, 1999, 1996, 1998, 2002, 2007, 1998, 2004, 1996, 2001, 2002, 1999, 2012, 1993, 2005, 1998, 2000, 2001, 2000, 2003, 1998, 2004, 2006, 1992, 2000, 1999, 2003, 1997, 2004, 2007, 1998, 2006, 2002, 1993, 2003, 1999, 2003, 2005, 1996, 1999, 1998, 2005, 2000, 1997, 2007, 1996, 1989, 2004, 2006, 1998, 1994, 1995, 1998, 1999, 2010, 2002, 1988, 1990, 2005, 2000, 1988, 2002, 2000, 1999, 2009, 1999, 1997, 1995, 1997, 1990, 1998, 2002, 1999, 1996, 2010, 1989, 2000, 1997, 1998, 1998, 1997, 1993, 2002, 1996, 1995, 1997, 1999, 2005, 2004, 2001, 1999, 2005, 1995, 2004, 2002, 2000, 2001, 1995, 1995, 1997, 2002, 1995, 1999, 2000, 2006, 1998, 1997, 2004, 1997],
      "WindowCenter": [957.0, 957.0, 957.0, 957.0, 956.0, 956.0, 957.0, 956.0, 956.0, 956.0, 956.0, 956.0, 956.0, 956.0, 956.0, 956.0, 956.0, 956.0, 956.0, 956.0, 956.0, 956.0, 956.0, 957.0, 957.0, 956.0, 956.0, 956.0, 956.0, 956.0, 956.0, 956.0, 956.0, 956.0, 956.0, 957.0, 957.0, 957.0, 956.0, 956.0, 956.0, 956.0, 956.0, 956.0, 956.0, 956.0, 956.0, 956.0, 956.0, 956.0, 957.0, 956.0, 957.0, 957.0, 956.0, 957.0, 956.0, 956.0, 956.0, 956.0, 956.0, 956.0, 956.0, 956.0, 956.0, 957.0, 956.0, 956.0, 956.0, 956.0, 956.0, 957.0, 956.0, 956.0, 956.0, 956.0, 956.0, 956.0, 956.0, 956.0, 956.0, 956.0, 956.0, 956.0, 956.0, 957.0, 956.0, 956.0, 956.0, 956.0, 956.0, 956.0, 956.0, 956.0, 956.0, 956.0, 956.0, 956.0, 956.0, 956.0, 956.0, 957.0, 956.0, 957.0, 956.0, 956.0, 956.0, 956.0, 956.0, 956.0, 956.0, 956.0, 956.0, 956.0, 957.0, 956.0, 956.0, 956.0, 956.0, 956.0, 956.0, 956.0, 956.0, 956.0, 956.0, 956.0, 956.0, 956.0, 957.0, 956.0, 956.0, 956.0, 956.0, 956.0, 956.0, 956.0, 956.0, 956.0, 956.0, 956.0, 956.0, 956.0, 956.0, 957.0, 956.0, 957.0, 956.0, 956.0, 956.0, 956.0, 956.0, 956.0, 956.0, 956.0, 956.0, 956.0, 956.0, 956.0, 956.0, 956.0, 956.0, 957.0, 956.0, 956.0, 957.0, 956.0, 957.0, 957.0, 956.0, 956.0, 956.0, 956.0, 956.0, 956.0, 956.0, 956.0, 956.0, 956.0, 956.0, 957.0, 956.0, 956.0, 956.0, 956.0, 956.0, 956.0, 956.0, 957.0, 956.0, 956.0, 956.0, 956.0, 956.0, 956.0, 956.0, 957.0, 957.0, 956.0, 956.0, 956.0],
      "WindowWidth": [2077.0, 2076.0, 2076.0, 2077.0, 2076.0, 2076.0, 2077.0, 2076.0, 2076.0, 2076.0, 2076.0, 2076.0, 2076.0, 2076.0, 2076.0, 2076.0, 2076.0, 2076.0, 2076.0, 2076.0, 2076.0, 2076.0, 2076.0, 2077.0, 2077.0, 2076.0, 2076.0, 2076.0, 2076.0, 2076.0, 2076.0, 2076.0, 2076.0, 2076.0, 2076.0, 2077.0, 2077.0, 2077.0, 2076.0, 2076.0, 2076.0, 2076.0, 2076.0, 2076.0, 2076.0, 2076.0, 2076.0, 2076.0, 2076.0, 2076.0, 2077.0, 2076.0, 2077.0, 2077.0, 2076.0, 2076.0, 2076.0, 2075.0, 2076.0, 2076.0, 2076.0, 2076.0, 2076.0, 2076.0, 2076.0, 2077.0, 2076.0, 2076.0, 2076.0, 2076.0, 2076.0, 2077.0, 2076.0, 2077.0, 2076.0, 2076.0, 2076.0, 2076.0, 2075.0, 2075.0, 2076.0, 2076.0, 2076.0, 2076.0, 2076.0, 2076.0, 2076.0, 2076.0, 2075.0, 2076.0, 2076.0, 2076.0, 2076.0, 2076.0, 2076.0, 2076.0, 2076.0, 2076.0, 2076.0, 2076.0, 2076.0, 2077.0, 2076.0, 2077.0, 2076.0, 2076.0, 2076.0, 2076.0, 2076.0, 2076.0, 2076.0, 2076.0, 2076.0, 2076.0, 2076.0, 2076.0, 2076.0, 2076.0, 2076.0, 2076.0, 2076.0, 2076.0, 2076.0, 2076.0, 2076.0, 2075.0, 2076.0, 2076.0, 2076.0, 2076.0, 2075.0, 2076.0, 2076.0, 2076.0, 2076.0, 2076.0, 2076.0, 2075.0, 2076.0, 2076.0, 2076.0, 2076.0, 2076.0, 2076.0, 2076.0, 2076.0, 2076.0, 2076.0, 2076.0, 2076.0, 2076.0, 2075.0, 2076.0, 2076.0, 2076.0, 2076.0, 2076.0, 2076.0, 2076.0, 2076.0, 2076.0, 2076.0, 2076.0, 2075.0, 2076.0, 2076.0, 2076.0, 2076.0, 2076.0, 2076.0, 2076.0, 2075.0, 2076.0, 2076.0, 2076.0, 2075.0, 2076.0, 2076.0, 2076.0, 2076.0, 2076.0, 2076.0, 2076.0, 2075.0, 2075.0, 2075.0, 2076.0, 2076.0, 2075.0, 2076.0, 2076.0, 2075.0, 2076.0, 2075.0, 2075.0, 2076.0, 2076.0, 2075.0, 2076.0, 2075.0]
    },
    "slices": {}
  }
}