{
  "AcquisitionMatrixPE": 80,
  "AcquisitionNumber": 1,
  "AcquisitionTime": "09:02:14.775000",
  "BandwidthPerPixelPhaseEncode": 48.077,
  "BaseResolution": 80,
  "BodyPartExamined": "BRAIN",
  "CoilCombinationMethod": "Sum of Squares",
  "ConsistencyInfo": "N4_VE11E_LATEST_20181129",
  "ConversionSoftware": "dcm2niix",
  "ConversionSoftwareVersion": "v1.0.20220720",
  "DerivedVendorReportedEchoSpacing": 0.000519999,
  "DeviceSerialNumber": "66112",
  "DwellTime": 2.7e-06,
  "EchoTime": 0.035,
  "EchoTrainLength": 39,
  "EffectiveEchoSpacing": 0.00026,
  "FlipAngle": 90,
  "HeudiconvVersion": "0.13.1",
  "ImageOrientationPatientDICOM": [0.999955, 0.00949464, 0.000105056, -0.00907552, 0.952443, 0.304581],
  "ImageOrientationText": "Tra>Cor(17.7)>Sag(-0.2)",
  "ImageType": [
    "ORIGINAL",
    "PRIMARY",
    "M",
    "ND",
    "NORM",
    "MOSAIC"
],
  "ImagingFrequency": 123.259,
  "InPlanePhaseEncodingDirectionDICOM": "COL",
  "InstitutionAddress": "Maynard 3,Hanover,NH,US,03755",
  "InstitutionName": "Dartmouth College - PBS",
  "InstitutionalDepartmentName": "Department",
  "MRAcquisitionType": "2D",
  "MagneticFieldStrength": 3,
  "Manufacturer": "Siemens",
  "ManufacturersModelName": "Prisma",
  "MatrixCoilMode": "GRAPPA",
  "Modality": "MR",
  "NonlinearGradientCorrection": false,
  "ParallelReductionFactorInPlane": 2,
  "PartialFourier": 1,
  "PatientPosition": "HFS",
  "PercentPhaseFOV": 100,
  "PercentSampling": 100,
  "PhaseEncodingDirection": "j-",
  "PhaseEncodingSteps": 79,
  "PhaseResolution": 1,
  "PixelBandwidth": 2315,
  "ProcedureStepDescription": "dbic^QA",
  "ProtocolName": "func-bold_task-rest_acq-p2",
  "PulseSequenceDetails": "%SiemensSeq%\\ep2d_bold",
  "ReceiveCoilActiveElements": "HC1-7;NC1,2",
  "ReceiveCoilName": "HeadNeck_64",
  "ReconMatrixPE": 80,
  "RefLinesPE": 24,
  "RepetitionTime": 2,
  "SAR": 0.0390676,
  "ScanOptions": "FS",
  "ScanningSequence": "EP",
  "SequenceName": "*epfid2d1_80",
  "SequenceVariant": "SK",
  "SeriesDescription": "func-bold_task-rest_acq-p2",
  "SeriesNumber": 5,
  "ShimSetting": [4218, -7737, -7493, -118, -151, -239, -61, 54],
  "SliceThickness": 3.5,
  "SliceTiming": [0.99, 0, 1.055, 0.065, 1.1225, 0.1325, 1.1875, 0.1975, 1.255, 0.265, 1.32, 0.33, 1.385, 0.395, 1.4525, 0.4625, 1.5175, 0.5275, 1.585, 0.595, 1.65, 0.66, 1.715, 0.725, 1.7825, 0.7925, 1.8475, 0.8575, 1.915, 0.925],
  "SoftwareVersions": "syngo MR E11",
  "SpacingBetweenSlices": 3.99,
  "StationName": "AWP66112",
  "TaskName": "rest",
  "TotalReadoutTime": 0.02054,
  "TxRefAmp": 215.395,
  "dcmmeta_affine": [
    [-2.9998648166656494, -0.02722655050456524, -0.011139378882944584, 123.36508178710938],
    [-0.028483929112553596, 2.857330083847046, 1.2152256965637207, -129.72357177734375],
    [0.0003151681739836931, -0.9137418270111084, 3.8004214763641357, -23.118309020996094],
    [0.0, 0.0, 0.0, 1.0]
],
  "dcmmeta_reorient_transform": [
    [0.0, -1.0, 0.0, 79.0],
    [1.0, 0.0, 0.0, 0.0],
    [0.0, 0.0, 1.0, 0.0],
    [0.0, 0.0, 0.0, 1.0]
],
  "dcmmeta_shape": [80, 80, 30, 200],
  "dcmmeta_slice_dim": 2,
  "dcmmeta_version": 0.6,
  "global": {
    "const": {
      "AccessionNumber": "qa64",
      "AcquisitionMatrix": [80, 0, 0, 80],
      "AngioFlag": "N",
      "BitsAllocated": 16,
      "BitsStored": 12,
      "BodyPartExamined": "BRAIN",
      "Columns": 480,
      "EchoNumbers": 1,
      "EchoTime": 35.0,
      "EchoTrainLength": 39,
      "FlipAngle": 90.0,
      "HighBit": 11,
      "ImageOrientationPatient": [0.99995491934039, 0.00949464323566, 0.00010505605957, -0.0090755167313, 0.95244332383428, 0.30458061310526],
      "ImagePositionPatient": [-715.74182371002, -673.16827711677, -278.11531616758],
      "ImageType": [
        "ORIGINAL",
        "PRIMARY",
        "M",
        "ND",
        "NORM",
        "MOSAIC"
],
      "ImagedNucleus": "1H",
      "ImagingFrequency": 123.259254,
      "InPlanePhaseEncodingDirection": "COL",
      "LargestImagePixelValue": 4095,
      "MRAcquisitionType": "2D",
      "MagneticFieldStrength": 3.0,
      "Manufacturer": "SIEMENS",
      "ManufacturerModelName": "Prisma",
      "Modality": "MR",
      "NumberOfAverages": 1.0,
      "NumberOfPhaseEncodingSteps": 79,
      "PercentPhaseFieldOfView": 100.0,
      "PercentSampling": 100.0,
      "PerformedProcedureStepStartTime": "090011.160000",
      "PhotometricInterpretation": "MONOCHROME2",
      "PixelBandwidth": 2315.0,
      "PixelRepresentation": 0,
      "PixelSpacing": [3.0, 3.0],
      "ProtocolName": "func-bold_task-rest_acq-p2",
      "RepetitionTime": 2000.0,
      "Rows": 480,
      "SAR": 0.03906762948396,
      "SamplesPerPixel": 1,
      "ScanOptions": "FS",
      "ScanningSequence": "EP",
      "SequenceName": "*epfid2d1_80",
      "SequenceVariant": "SK",
      "SeriesDescription": "func-bold_task-rest_acq-p2",
      "SeriesNumber": 5,
      "SeriesTime": "090304.803000",
      "SliceLocation": -61.873919730596,
      "SliceThickness": 3.5,
      "SmallestImagePixelValue": 0,
      "SoftwareVersions": "syngo MR E11",
      "SpacingBetweenSlices": 3.9900000100052,
      "SpecificCharacterSet": "ISO_IR 100",
      "StudyID": "20",
      "StudyTime": "090010.865000",
      "TransmitCoilName": "Body",
      "VariableFlipAngleFlag": "N",
      "WindowCenterWidthExplanation": "Algo1"
    },
    "slices": {}
  },
  "time": {
    "samples": {
      "AcquisitionNumber": [1, 2, 3, 4, 5, 6, 7, 8, 9, 10, 11, 12, 13, 14, 15, 16, 17, 18, 19, 20, 21, 22, 23, 24, 25, 26, 27, 28, 29, 30, 31, 32, 33, 34, 35, 36, 37, 38, 39, 40, 41, 42, 43, 44, 45, 46, 47, 48, 49, 50, 51, 52, 53, 54, 55, 56, 57, 58, 59, 60, 61, 62, 63, 64, 65, 66, 67, 68, 69, 70, 71, 72, 73, 74, 75, 76, 77, 78, 79, 80, 81, 82, 83, 84, 85, 86, 87, 88, 89, 90, 91, 92, 93, 94, 95, 96, 97, 98, 99, 100, 101, 102, 103, 104, 105, 106, 107, 108, 109, 110, 111, 112, 113, 114, 115, 116, 117, 118, 119, 120, 121, 122, 123, 124, 125, 126, 127, 128, 129, 130, 131, 132, 133, 134, 135, 136, 137, 138, 139, 140, 141, 142, 143, 144, 145, 146, 147, 148, 149, 150, 151, 152, 153, 154, 155, 156, 157, 158, 159, 160, 161, 162, 163, 164, 165, 166, 167, 168, 169, 170, 171, 172, 173, 174, 175, 176, 177, 178, 179, 180, 181, 182, 183, 184, 185, 186, 187, 188, 189, 190, 191, 192, 193, 194, 195, 196, 197, 198, 199, 200],
      "AcquisitionTime": ["090214.775000", "090216.775000", "090218.775000", "090220.775000", "090222.775000", "090224.775000", "090226.775000", "090228.775000", "090230.775000", "090232.775000", "090234.775000", "090236.775000", "090238.775000", "090240.775000", "090242.775000", "090244.775000", "090246.775000", "090248.775000", "090250.775000", "090252.775000", "090254.775000", "090256.775000", "090258.775000", "090300.775000", "090302.775000", "090304.775000", "090306.775000", "090308.775000", "090310.775000", "090312.775000", "090314.775000", "090316.775000", "090318.775000", "090320.775000", "090322.775000", "090324.775000", "090326.775000", "090328.775000", "090330.775000", "090332.775000", "090334.775000", "090336.775000", "090338.775000", "090340.775000", "090342.775000", "090344.775000", "090346.775000", "090348.775000", "090350.775000", "090352.775000", "090354.775000", "090356.775000", "090358.775000", "090400.775000", "090402.775000", "090404.775000", "090406.775000", "090408.775000", "090410.775000", "090412.775000", "090414.775000", "090416.775000", "090418.775000", "090420.775000", "090422.775000", "090424.775000", "090426.775000", "090428.775000", "090430.775000", "090432.775000", "090434.775000", "090436.775000", "090438.775000", "090440.775000", "090442.775000", "090444.775000", "090446.775000", "090448.775000", "090450.775000", "090452.775000", "090454.775000", "090456.775000", "090458.775000", "090500.775000", "090502.775000", "090504.775000", "090506.775000", "090508.775000", "090510.775000", "090512.775000", "090514.775000", "090516.775000", "090518.775000", "090520.775000", "090522.775000", "090524.775000", "090526.775000", "090528.775000", "090530.775000", "090532.775000", "090534.775000", "090536.775000", "090538.775000", "090540.775000", "090542.775000", "090544.775000", "090546.775000", "090548.775000", "090550.775000", "090552.775000", "090554.775000", "090556.775000", "090558.775000", "090600.775000", "090602.775000", "090604.775000", "090606.775000", "090608.775000", "090610.775000", "090612.775000", "090614.775000", "090616.775000", "090618.775000", "090620.775000", "090622.775000", "090624.775000", "090626.775000", "090628.775000", "090630.775000", "090632.775000", "090634.775000", "090636.775000", "090638.775000", "090640.775000", "090642.775000", "090644.775000", "090646.775000", "090648.775000", "090650.775000", "090652.775000", "090654.775000", "090656.775000", "090658.775000", "090700.775000", "090702.775000", "090704.775000", "090706.775000", "090708.775000", "090710.775000", "090712.775000", "090714.775000", "090716.775000", "090718.775000", "090720.775000", "090722.775000", "090724.775000", "090726.775000", "090728.775000", "090730.775000", "090732.775000", "090734.775000", "090736.775000", "090738.775000", "090740.775000", "090742.775000", "090744.775000", "090746.775000", "090748.775000", "090750.775000", "090752.775000", "090754.775000", "090756.775000", "090758.775000", "090800.775000", "090802.775000", "090804.775000", "090806.775000", "090808.775000", "090810.775000", "090812.775000", "090814.775000", "090816.775000", "090818.775000", "090820.775000", "090822.775000", "090824.775000", "090826.775000", "090828.775000", "090830.775000", "090832.775000", "090834.775000", "090836.775000", "090838.775000", "090840.775000", "090842.775000", "090844.775000", "090846.775000", "090848.775000", "090850.775000", "090852.775000"],
      "ContentTime": ["090304.807000", "090304.810000", "090304.812000", "090304.815000", "090304.817000", "090304.819000", "090304.822000", "090304.824000", "090304.826000", "090304.829000", "090304.831000", "090304.833000", "090304.836000", "090304.847000", "090304.849000", "090304.852000", "090304.854000", "090304.856000", "090304.859000", "090304.861000", "090304.863000", "090304.866000", "090304.868000", "090304.870000", "090304.873000", "090324.796000", "090324.799000", "090324.801000", "090324.803000", "090324.806000", "090324.808000", "090324.810000", "090324.813000", "090324.815000", "090324.828000", "090404.796000", "090404.799000", "090404.801000", "090404.804000", "090404.806000", "090404.808000", "090404.811000", "090404.813000", "090404.816000", "090404.818000", "090404.820000", "090404.823000", "090404.825000", "090404.827000", "090404.830000", "090404.832000", "090404.834000", "090404.837000", "090404.839000", "090404.842000", "090444.796000", "090444.799000", "090444.801000", "090444.803000", "090444.806000", "090444.808000", "090444.810000", "090444.813000", "090444.815000", "090444.817000", "090444.820000", "090444.822000", "090444.824000", "090444.827000", "090444.829000", "090444.831000", "090444.834000", "090444.836000", "090444.838000", "090444.841000", "090524.796000", "090524.799000", "090524.801000", "090524.803000", "090524.806000", "090524.808000", "090524.810000", "090524.813000", "090524.815000", "090524.817000", "090524.820000", "090524.822000", "090524.825000", "090524.827000", "090524.829000", "090524.831000", "090524.839000", "090524.841000", "090524.844000", "090524.846000", "090604.795000", "090604.808000", "090604.810000", "090604.813000", "090604.815000", "090604.817000", "090604.820000", "090604.822000", "090604.824000", "090604.827000", "090604.829000", "090604.831000", "090604.834000", "090604.836000", "090604.838000", "090604.841000", "090604.843000", "090604.845000", "090604.848000", "090604.850000", "090644.796000", "090644.799000", "090644.801000", "090644.804000", "090644.806000", "090644.808000", "090644.811000", "090644.813000", "090644.815000", "090644.818000", "090644.820000", "090644.822000", "090644.825000", "090644.827000", "090644.829000", "090644.832000", "090644.834000", "090644.836000", "090644.839000", "090644.841000", "090724.796000", "090724.799000", "090724.801000", "090724.804000", "090724.806000", "090724.808000", "090724.811000", "090724.813000", "090724.815000", "090724.818000", "090724.820000", "090724.822000", "090724.825000", "090724.827000", "090724.829000", "090724.832000", "090724.834000", "090724.837000", "090724.839000", "090724.841000", "090804.796000", "090804.799000", "090804.801000", "090804.804000", "090804.806000", "090804.809000", "090804.811000", "090804.813000", "090804.816000", "090804.818000", "090804.821000", "090804.823000", "090804.825000", "090804.828000", "090804.830000", "090804.832000", "090804.835000", "090804.837000", "090804.840000", "090804.842000", "090844.796000", "090844.799000", "090844.801000", "090844.804000", "090844.806000", "090844.808000", "090844.811000", "090844.813000", "090844.815000", "090844.818000", "090844.820000", "090844.822000", "090844.825000", "090844.827000", "090844.830000", "090844.832000", "090844.834000", "090844.837000", "090844.839000", "090844.841000", "090854.095000", "090854.103000", "090854.106000", "090854.109000", "090854.111000"],
      "InstanceCreationTime": ["090304.807000", "090304.810000", "090304.812000", "090304.815000", "090304.817000", "090304.819000", "090304.822000", "090304.824000", "090304.826000", "090304.829000", "090304.831000", "090304.833000", "090304.836000", "090304.847000", "090304.849000", "090304.852000", "090304.854000", "090304.856000", "090304.859000", "090304.861000", "090304.863000", "090304.866000", "090304.868000", "090304.870000", "090304.873000", "090324.796000", "090324.799000", "090324.801000", "090324.803000", "090324.806000", "090324.808000", "090324.810000", "090324.813000", "090324.815000", "090324.828000", "090404.796000", "090404.799000", "090404.801000", "090404.804000", "090404.806000", "090404.808000", "090404.811000", "090404.813000", "090404.816000", "090404.818000", "090404.820000", "090404.823000", "090404.825000", "090404.827000", "090404.830000", "090404.832000", "090404.834000", "090404.837000", "090404.839000", "090404.842000", "090444.796000", "090444.799000", "090444.801000", "090444.803000", "090444.806000", "090444.808000", "090444.810000", "090444.813000", "090444.815000", "090444.817000", "090444.820000", "090444.822000", "090444.824000", "090444.827000", "090444.829000", "090444.831000", "090444.834000", "090444.836000", "090444.838000", "090444.841000", "090524.796000", "090524.799000", "090524.801000", "090524.803000", "090524.806000", "090524.808000", "090524.810000", "090524.813000", "090524.815000", "090524.817000", "090524.820000", "090524.822000", "090524.825000", "090524.827000", "090524.829000", "090524.831000", "090524.839000", "090524.841000", "090524.844000", "090524.846000", "090604.795000", "090604.808000", "090604.810000", "090604.813000", "090604.815000", "090604.817000", "090604.820000", "090604.822000", "090604.824000", "090604.827000", "090604.829000", "090604.831000", "090604.834000", "090604.836000", "090604.838000", "090604.841000", "090604.843000", "090604.845000", "090604.848000", "090604.850000", "090644.796000", "090644.799000", "090644.801000", "090644.804000", "090644.806000", "090644.808000", "090644.811000", "090644.813000", "090644.815000", "090644.818000", "090644.820000", "090644.822000", "090644.825000", "090644.827000", "090644.829000", "090644.832000", "090644.834000", "090644.836000", "090644.839000", "090644.841000", "090724.796000", "090724.799000", "090724.801000", "090724.804000", "090724.806000", "090724.808000", "090724.811000", "090724.813000", "090724.815000", "090724.818000", "090724.820000", "090724.822000", "090724.825000", "090724.827000", "090724.829000", "090724.832000", "090724.834000", "090724.837000", "090724.839000", "090724.841000", "090804.796000", "090804.799000", "090804.801000", "090804.804000", "090804.806000", "090804.809000", "090804.811000", "090804.813000", "090804.816000", "090804.818000", "090804.821000", "090804.823000", "090804.825000", "090804.828000", "090804.830000", "090804.832000", "090804.835000", "090804.837000", "090804.840000", "090804.842000", "090844.796000", "090844.799000", "090844.801000", "090844.804000", "090844.806000", "090844.808000", "090844.811000", "090844.813000", "090844.815000", "090844.818000", "090844.820000", "090844.822000", "090844.825000", "090844.827000", "090844.830000", "090844.832000", "090844.834000", "090844.837000", "090844.839000", "090844.841000", "090854.095000", "090854.103000", "090854.106000", "090854.109000", "090854.111000"],
      "InstanceNumber": [1, 2, 3, 4, 5, 6, 7, 8, 9, 10, 11, 12, 13, 14, 15, 16, 17, 18, 19, 20, 21, 22, 23, 24, 25, 26, 27, 28, 29, 30, 31, 32, 33, 34, 35, 36, 37, 38, 39, 40, 41, 42, 43, 44, 45, 46, 47, 48, 49, 50, 51, 52, 53, 54, 55, 56, 57, 58, 59, 60, 61, 62, 63, 64, 65, 66, 67, 68, 69, 70, 71, 72, 73, 74, 75, 76, 77, 78, 79, 80, 81, 82, 83, 84, 85, 86, 87, 88, 89, 90, 91, 92, 93, 94, 95, 96, 97, 98, 99, 100, 101, 102, 103, 104, 105, 106, 107, 108, 109, 110, 111, 112, 113, 114, 115, 116, 117, 118, 119, 120, 121, 122, 123, 124, 125, 126, 127, 128, 129, 130, 131, 132, 133, 134, 135, 136, 137, 138, 139, 140, 141, 142, 143, 144, 145, 146, 147, 148, 149, 150, 151, 152, 153, 154, 155, 156, 157, 158, 159, 160, 161, 162, 163, 164, 165, 166, 167, 168, 169, 170, 171, 172, 173, 174, 175, 176, 177, 178, 179, 180, 181, 182, 183, 184, 185, 186, 187, 188, 189, 190, 191, 192, 193, 194, 195, 196, 197, 198, 199, 200],
      "WindowCenter": [1550.0, 1549.0, 1548.0, 1550.0, 1549.0, 1549.0, 1549.0, 1549.0, 1549.0, 1549.0, 1548.0, 1549.0, 1548.0, 1549.0, 1549.0, 1548.0, 1548.0, 1548.0, 1548.0, 1548.0, 1549.0, 1548.0, 1548.0, 1548.0, 1548.0, 1548.0, 1548.0, 1547.0, 1548.0, 1547.0, 1547.0, 1547.0, 1547.0, 1547.0, 1547.0, 1547.0, 1547.0, 1546.0, 1546.0, 1545.0, 1546.0, 1546.0, 1546.0, 1547.0, 1547.0, 1546.0, 1546.0, 1545.0, 1545.0, 1546.0, 1546.0, 1545.0, 1545.0, 1545.0, 1545.0, 1545.0, 1545.0, 1545.0, 1544.0, 1545.0, 1544.0, 1545.0, 1545.0, 1543.0, 1544.0, 1544.0, 1543.0, 1545.0, 1544.0, 1544.0, 1544.0, 1543.0, 1544.0, 1544.0, 1543.0, 1542.0, 1544.0, 1543.0, 1543.0, 1544.0, 1543.0, 1543.0, 1543.0, 1543.0, 1543.0, 1543.0, 1543.0, 1543.0, 1543.0, 1543.0, 1543.0, 1543.0, 1542.0, 1542.0, 1543.0, 1542.0, 1543.0, 1542.0, 1543.0, 1542.0, 1543.0, 1542.0, 1543.0, 1544.0, 1544.0, 1543.0, 1543.0, 1543.0, 1544.0, 1544.0, 1544.0, 1544.0, 1544.0, 1544.0, 1544.0, 1543.0, 1544.0, 1544.0, 1544.0, 1544.0, 1544.0, 1544.0, 1544.0, 1544.0, 1544.0, 1544.0, 1545.0, 1544.0, 1544.0, 1544.0, 1545.0, 1544.0, 1544.0, 1544.0, 1544.0, 1544.0, 1545.0, 1544.0, 1544.0, 1545.0, 1544.0, 1544.0, 1544.0, 1544.0, 1544.0, 1544.0, 1544.0, 1543.0, 1543.0, 1543.0, 1544.0, 1544.0, 1544.0, 1543.0, 1543.0, 1543.0, 1543.0, 1543.0, 1543.0, 1543.0, 1543.0, 1543.0, 1543.0, 1543.0, 1543.0, 1543.0, 1543.0, 1543.0, 1543.0, 1543.0, 1543.0, 1542.0, 1543.0, 1543.0, 1543.0, 1543.0, 1542.0, 1543.0, 1542.0, 1543.0, 1543.0, 1543.0, 1542.0, 1543.0, 1543.0, 1543.0, 1543.0, 1543.0, 1543.0, 1542.0, 1542.0, 1542.0, 1543.0, 1543.0, 1543.0, 1542.0, 1542.0, 1543.0, 1542.0, 1542.0],
      "WindowWidth": [3457.0, 3457.0, 3457.0, 3456.0, 3457.0, 3457.0, 3457.0, 3457.0, 3456.0, 3456.0, 3456.0, 3456.0, 3456.0, 3456.0, 3456.0, 3456.0, 3456.0, 3456.0, 3456.0, 3456.0, 3455.0, 3455.0, 3455.0, 3455.0, 3455.0, 3455.0, 3455.0, 3455.0, 3455.0, 3455.0, 3455.0, 3455.0, 3455.0, 3454.0, 3455.0, 3454.0, 3454.0, 3455.0, 3454.0, 3455.0, 3454.0, 3454.0, 3454.0, 3454.0, 3454.0, 3454.0, 3454.0, 3454.0, 3454.0, 3453.0, 3454.0, 3453.0, 3454.0, 3454.0, 3453.0, 3453.0, 3453.0, 3453.0, 3453.0, 3453.0, 3453.0, 3453.0, 3452.0, 3453.0, 3452.0, 3452.0, 3452.0, 3452.0, 3452.0, 3452.0, 3452.0, 3452.0, 3452.0, 3452.0, 3451.0, 3452.0, 3451.0, 3451.0, 3451.0, 3451.0, 3451.0, 3451.0, 3451.0, 3451.0, 3450.0, 3451.0, 3450.0, 3450.0, 3450.0, 3450.0, 3450.0, 3450.0, 3450.0, 3450.0, 3450.0, 3450.0, 3450.0, 3450.0, 3449.0, 3449.0, 3449.0, 3449.0, 3449.0, 3449.0, 3449.0, 3449.0, 3449.0, 3449.0, 3448.0, 3448.0, 3448.0, 3448.0, 3448.0, 3448.0, 3448.0, 3448.0, 3448.0, 3448.0, 3447.0, 3448.0, 3447.0, 3448.0, 3447.0, 3447.0, 3447.0, 3447.0, 3447.0, 3447.0, 3447.0, 3447.0, 3447.0, 3447.0, 3447.0, 3447.0, 3447.0, 3446.0, 3446.0, 3446.0, 3447.0, 3446.0, 3446.0, 3446.0, 3446.0, 3446.0, 3446.0, 3446.0, 3446.0, 3447.0, 3447.0, 3447.0, 3446.0, 3446.0, 3446.0, 3446.0, 3446.0, 3446.0, 3446.0, 3446.0, 3446.0, 3446.0, 3446.0, 3446.0, 3446.0, 3446.0, 3446.0, 3446.0, 3446.0, 3446.0, 3445.0, 3445.0, 3445.0, 3446.0, 3445.0, 3445.0, 3445.0, 3445.0, 3446.0, 3445.0, 3445.0, 3445.0, 3445.0, 3445.0, 3445.0, 3445.0, 3445.0, 3445.0, 3444.0, 3445.0, 3445.0, 3445.0, 3445.0, 3445.0, 3445.0, 3444.0, 3444.0, 3444.0, 3444.0, 3444.0, 3444.0, 3444.0]
    },
    "slices": {}
  }
}