{
  "AcquisitionMatrixPE": 80,
  "AcquisitionNumber": 1,
  "AcquisitionTime": "09:09:5.435000",
  "BandwidthPerPixelPhaseEncode": 25,
  "BaseResolution": 80,
  "BodyPartExamined": "BRAIN",
  "CoilCombinationMethod": "Sum of Squares",
  "ConsistencyInfo": "N4_VE11E_LATEST_20181129",
  "ConversionSoftware": "dcm2niix",
  "ConversionSoftwareVersion": "v1.0.20220720",
  "DerivedVendorReportedEchoSpacing": 0.0005,
  "DeviceSerialNumber": "66112",
  "DwellTime": 2.7e-06,
  "EchoTime": 0.03,
  "EchoTrainLength": 80,
  "EffectiveEchoSpacing": 0.0005,
  "FlipAngle": 77,
  "HeudiconvVersion": "0.13.1",
  "ImageOrientationPatientDICOM": [0.999955, 0.00949464, 0.000105056, -0.00907552, 0.952443, 0.304581],
  "ImageOrientationText": "Tra>Cor(17.7)>Sag(-0.2)",
  "ImageType": [
    "ORIGINAL",
    "PRIMARY",
    "M",
    "ND",
    "NORM",
    "MOSAIC"
],
  "ImagingFrequency": 123.259,
  "InPlanePhaseEncodingDirectionDICOM": "COL",
  "InstitutionAddress": "Maynard 3,Hanover,NH,US,03755",
  "InstitutionName": "Dartmouth College - PBS",
  "InstitutionalDepartmentName": "Department",
  "MRAcquisitionType": "2D",
  "MagneticFieldStrength": 3,
  "Manufacturer": "Siemens",
  "ManufacturersModelName": "Prisma",
  "MatrixCoilMode": "SENSE",
  "Modality": "MR",
  "NonlinearGradientCorrection": false,
  "PartialFourier": 1,
  "PatientPosition": "HFS",
  "PercentPhaseFOV": 100,
  "PercentSampling": 100,
  "PhaseEncodingDirection": "j-",
  "PhaseEncodingSteps": 80,
  "PhaseResolution": 1,
  "PixelBandwidth": 2315,
  "ProcedureStepDescription": "dbic^QA",
  "ProtocolName": "func-bold_fa-77",
  "PulseSequenceDetails": "%SiemensSeq%\\ep2d_bold",
  "ReceiveCoilActiveElements": "HC1-7;NC1,2",
  "ReceiveCoilName": "HeadNeck_64",
  "ReconMatrixPE": 80,
  "RepetitionTime": 2,
  "SAR": 0.0307013,
  "ScanOptions": "FS",
  "ScanningSequence": "EP",
  "SequenceName": "*epfid2d1_80",
  "SequenceVariant": "SK",
  "SeriesDescription": "func-bold_fa-77",
  "SeriesNumber": 7,
  "ShimSetting": [4218, -7737, -7493, -114, -153, -237, -60, 54],
  "SliceThickness": 3.5,
  "SliceTiming": [0.99, 0, 1.055, 0.0675, 1.1225, 0.1325, 1.1875, 0.1975, 1.255, 0.265, 1.32, 0.33, 1.385, 0.3975, 1.4525, 0.4625, 1.5175, 0.5275, 1.585, 0.595, 1.65, 0.66, 1.715, 0.725, 1.7825, 0.7925, 1.8475, 0.8575, 1.915, 0.925],
  "SoftwareVersions": "syngo MR E11",
  "SpacingBetweenSlices": 3.99,
  "StationName": "AWP66112",
  "TotalReadoutTime": 0.0395,
  "TxRefAmp": 215.395,
  "dcmmeta_affine": [
    [-2.9998648166656494, -0.02722655050456524, -0.011139378882944584, 121.42422485351562],
    [-0.028483929112553596, 2.857330083847046, 1.2152256965637207, -127.52237701416016],
    [0.0003151681739836931, -0.9137418270111084, 3.8004214763641357, -22.48554229736328],
    [0.0, 0.0, 0.0, 1.0]
],
  "dcmmeta_reorient_transform": [
    [0.0, -1.0, 0.0, 79.0],
    [1.0, 0.0, 0.0, 0.0],
    [0.0, 0.0, 1.0, 0.0],
    [0.0, 0.0, 0.0, 1.0]
],
  "dcmmeta_shape": [80, 80, 30, 200],
  "dcmmeta_slice_dim": 2,
  "dcmmeta_version": 0.6,
  "global": {
    "const": {
      "AccessionNumber": "qa64",
      "AcquisitionMatrix": [80, 0, 0, 80],
      "AngioFlag": "N",
      "BitsAllocated": 16,
      "BitsStored": 12,
      "BodyPartExamined": "BRAIN",
      "Columns": 480,
      "EchoNumbers": 1,
      "EchoTime": 30.0,
      "EchoTrainLength": 80,
      "FlipAngle": 77.0,
      "HighBit": 11,
      "ImageOrientationPatient": [0.99995491934039, 0.00949464323566, 0.00010505605957, -0.0090755167313, 0.95244332383428, 0.30458061310526],
      "ImagePositionPatient": [-713.80097047191, -675.36946806526, -277.48254944394],
      "ImageType": [
        "ORIGINAL",
        "PRIMARY",
        "M",
        "ND",
        "NORM",
        "MOSAIC"
],
      "ImagedNucleus": "1H",
      "ImagingFrequency": 123.259253,
      "InPlanePhaseEncodingDirection": "COL",
      "LargestImagePixelValue": 4095,
      "MRAcquisitionType": "2D",
      "MagneticFieldStrength": 3.0,
      "Manufacturer": "SIEMENS",
      "ManufacturerModelName": "Prisma",
      "Modality": "MR",
      "NumberOfAverages": 1.0,
      "NumberOfPhaseEncodingSteps": 80,
      "PercentPhaseFieldOfView": 100.0,
      "PercentSampling": 100.0,
      "PerformedProcedureStepStartTime": "090011.160000",
      "PhotometricInterpretation": "MONOCHROME2",
      "PixelBandwidth": 2315.0,
      "PixelRepresentation": 0,
      "PixelSpacing": [3.0, 3.0],
      "ProtocolName": "func-bold_fa-77",
      "RepetitionTime": 2000.0,
      "Rows": 480,
      "SAR": 0.03070129050699,
      "SamplesPerPixel": 1,
      "ScanOptions": "FS",
      "ScanningSequence": "EP",
      "SequenceName": "*epfid2d1_80",
      "SequenceVariant": "SK",
      "SeriesDescription": "func-bold_fa-77",
      "SeriesNumber": 7,
      "SeriesTime": "090944.883000",
      "SliceLocation": -60.595387448611,
      "SliceThickness": 3.5,
      "SmallestImagePixelValue": 0,
      "SoftwareVersions": "syngo MR E11",
      "SpacingBetweenSlices": 3.989999999994,
      "SpecificCharacterSet": "ISO_IR 100",
      "StudyID": "20",
      "StudyTime": "090010.865000",
      "TransmitCoilName": "Body",
      "VariableFlipAngleFlag": "N",
      "WindowCenterWidthExplanation": "Algo1"
    },
    "slices": {}
  },
  "time": {
    "samples": {
      "AcquisitionNumber": [1, 2, 3, 4, 5, 6, 7, 8, 9, 10, 11, 12, 13, 14, 15, 16, 17, 18, 19, 20, 21, 22, 23, 24, 25, 26, 27, 28, 29, 30, 31, 32, 33, 34, 35, 36, 37, 38, 39, 40, 41, 42, 43, 44, 45, 46, 47, 48, 49, 50, 51, 52, 53, 54, 55, 56, 57, 58, 59, 60, 61, 62, 63, 64, 65, 66, 67, 68, 69, 70, 71, 72, 73, 74, 75, 76, 77, 78, 79, 80, 81, 82, 83, 84, 85, 86, 87, 88, 89, 90, 91, 92, 93, 94, 95, 96, 97, 98, 99, 100, 101, 102, 103, 104, 105, 106, 107, 108, 109, 110, 111, 112, 113, 114, 115, 116, 117, 118, 119, 120, 121, 122, 123, 124, 125, 126, 127, 128, 129, 130, 131, 132, 133, 134, 135, 136, 137, 138, 139, 140, 141, 142, 143, 144, 145, 146, 147, 148, 149, 150, 151, 152, 153, 154, 155, 156, 157, 158, 159, 160, 161, 162, 163, 164, 165, 166, 167, 168, 169, 170, 171, 172, 173, 174, 175, 176, 177, 178, 179, 180, 181, 182, 183, 184, 185, 186, 187, 188, 189, 190, 191, 192, 193, 194, 195, 196, 197, 198, 199, 200],
      "AcquisitionTime": ["090905.435000", "090907.435000", "090909.435000", "090911.435000", "090913.435000", "090915.435000", "090917.435000", "090919.435000", "090921.435000", "090923.435000", "090925.435000", "090927.435000", "090929.435000", "090931.435000", "090933.435000", "090935.435000", "090937.435000", "090939.435000", "090941.435000", "090943.435000", "090945.435000", "090947.435000", "090949.435000", "090951.435000", "090953.435000", "090955.435000", "090957.435000", "090959.435000", "091001.435000", "091003.435000", "091005.435000", "091007.435000", "091009.435000", "091011.435000", "091013.435000", "091015.435000", "091017.435000", "091019.435000", "091021.435000", "091023.435000", "091025.435000", "091027.435000", "091029.435000", "091031.435000", "091033.435000", "091035.435000", "091037.435000", "091039.435000", "091041.435000", "091043.435000", "091045.435000", "091047.435000", "091049.435000", "091051.435000", "091053.435000", "091055.435000", "091057.435000", "091059.435000", "091101.435000", "091103.435000", "091105.435000", "091107.435000", "091109.435000", "091111.435000", "091113.435000", "091115.435000", "091117.435000", "091119.435000", "091121.435000", "091123.435000", "091125.435000", "091127.435000", "091129.435000", "091131.435000", "091133.435000", "091135.435000", "091137.435000", "091139.435000", "091141.435000", "091143.435000", "091145.435000", "091147.435000", "091149.435000", "091151.435000", "091153.435000", "091155.435000", "091157.435000", "091159.435000", "091201.435000", "091203.435000", "091205.435000", "091207.435000", "091209.435000", "091211.435000", "091213.435000", "091215.435000", "091217.435000", "091219.435000", "091221.435000", "091223.435000", "091225.435000", "091227.435000", "091229.435000", "091231.435000", "091233.435000", "091235.435000", "091237.435000", "091239.435000", "091241.435000", "091243.435000", "091245.435000", "091247.435000", "091249.435000", "091251.435000", "091253.435000", "091255.435000", "091257.435000", "091259.435000", "091301.435000", "091303.435000", "091305.435000", "091307.435000", "091309.435000", "091311.435000", "091313.435000", "091315.435000", "091317.435000", "091319.435000", "091321.435000", "091323.435000", "091325.435000", "091327.435000", "091329.435000", "091331.435000", "091333.435000", "091335.435000", "091337.435000", "091339.435000", "091341.435000", "091343.435000", "091345.435000", "091347.435000", "091349.435000", "091351.435000", "091353.435000", "091355.435000", "091357.435000", "091359.435000", "091401.435000", "091403.435000", "091405.435000", "091407.435000", "091409.435000", "091411.435000", "091413.435000", "091415.435000", "091417.435000", "091419.435000", "091421.435000", "091423.435000", "091425.435000", "091427.435000", "091429.435000", "091431.435000", "091433.435000", "091435.435000", "091437.435000", "091439.435000", "091441.435000", "091443.435000", "091445.435000", "091447.435000", "091449.435000", "091451.435000", "091453.435000", "091455.435000", "091457.435000", "091459.435000", "091501.435000", "091503.435000", "091505.435000", "091507.435000", "091509.435000", "091511.435000", "091513.435000", "091515.435000", "091517.435000", "091519.435000", "091521.435000", "091523.435000", "091525.435000", "091527.435000", "091529.435000", "091531.435000", "091533.435000", "091535.435000", "091537.435000", "091539.435000", "091541.435000", "091543.435000"],
      "ContentTime": ["090944.886000", "090944.889000", "090944.891000", "090944.894000", "090944.896000", "090944.898000", "090944.901000", "090944.903000", "090944.905000", "090944.907000", "090944.910000", "090944.912000", "090944.914000", "090944.917000", "090944.919000", "090944.921000", "090944.924000", "090944.926000", "090944.928000", "090944.930000", "091024.881000", "091024.884000", "091024.886000", "091024.889000", "091024.891000", "091024.893000", "091024.895000", "091024.898000", "091024.900000", "091024.902000", "091024.905000", "091024.907000", "091024.909000", "091024.911000", "091024.914000", "091024.916000", "091024.918000", "091024.921000", "091024.923000", "091024.925000", "091104.881000", "091104.884000", "091104.886000", "091104.888000", "091104.891000", "091104.893000", "091104.895000", "091104.898000", "091104.900000", "091104.902000", "091104.905000", "091104.907000", "091104.909000", "091104.911000", "091104.914000", "091104.916000", "091104.918000", "091104.921000", "091104.923000", "091104.925000", "091144.881000", "091144.884000", "091144.886000", "091144.888000", "091144.891000", "091144.893000", "091144.895000", "091144.898000", "091144.900000", "091144.902000", "091144.905000", "091144.907000", "091144.909000", "091144.912000", "091144.914000", "091144.916000", "091144.919000", "091144.921000", "091144.923000", "091144.925000", "091224.881000", "091224.884000", "091224.886000", "091224.888000", "091224.891000", "091224.893000", "091224.895000", "091224.898000", "091224.900000", "091224.902000", "091224.905000", "091224.907000", "091224.909000", "091224.912000", "091224.914000", "091224.916000", "091224.919000", "091224.921000", "091224.923000", "091224.925000", "091304.880000", "091304.883000", "091304.885000", "091304.887000", "091304.890000", "091304.892000", "091304.894000", "091304.897000", "091304.899000", "091304.901000", "091304.903000", "091304.906000", "091304.908000", "091304.910000", "091304.913000", "091304.915000", "091304.917000", "091304.920000", "091304.922000", "091304.924000", "091324.881000", "091324.884000", "091324.886000", "091324.889000", "091324.891000", "091324.893000", "091324.895000", "091324.898000", "091324.900000", "091324.902000", "091404.881000", "091404.884000", "091404.886000", "091404.888000", "091404.891000", "091404.893000", "091404.895000", "091404.898000", "091404.900000", "091404.902000", "091404.905000", "091404.907000", "091404.909000", "091404.912000", "091404.914000", "091404.916000", "091404.919000", "091404.921000", "091404.923000", "091404.926000", "091444.881000", "091444.884000", "091444.886000", "091444.889000", "091444.891000", "091444.893000", "091444.896000", "091444.898000", "091444.900000", "091444.902000", "091444.905000", "091444.907000", "091444.909000", "091444.912000", "091444.914000", "091444.916000", "091444.919000", "091444.921000", "091444.923000", "091444.926000", "091524.881000", "091524.884000", "091524.886000", "091524.888000", "091524.891000", "091524.893000", "091524.895000", "091524.898000", "091524.900000", "091524.902000", "091524.905000", "091524.907000", "091524.909000", "091524.912000", "091524.914000", "091524.916000", "091524.919000", "091524.921000", "091524.923000", "091524.926000", "091544.705000", "091544.708000", "091544.710000", "091544.713000", "091544.715000", "091544.718000", "091544.720000", "091544.722000", "091544.725000", "091544.727000"],
      "InstanceCreationTime": ["090944.886000", "090944.889000", "090944.891000", "090944.894000", "090944.896000", "090944.898000", "090944.901000", "090944.903000", "090944.905000", "090944.907000", "090944.910000", "090944.912000", "090944.914000", "090944.917000", "090944.919000", "090944.921000", "090944.924000", "090944.926000", "090944.928000", "090944.930000", "091024.881000", "091024.884000", "091024.886000", "091024.889000", "091024.891000", "091024.893000", "091024.895000", "091024.898000", "091024.900000", "091024.902000", "091024.905000", "091024.907000", "091024.909000", "091024.911000", "091024.914000", "091024.916000", "091024.918000", "091024.921000", "091024.923000", "091024.925000", "091104.881000", "091104.884000", "091104.886000", "091104.888000", "091104.891000", "091104.893000", "091104.895000", "091104.898000", "091104.900000", "091104.902000", "091104.905000", "091104.907000", "091104.909000", "091104.911000", "091104.914000", "091104.916000", "091104.918000", "091104.921000", "091104.923000", "091104.925000", "091144.881000", "091144.884000", "091144.886000", "091144.888000", "091144.891000", "091144.893000", "091144.895000", "091144.898000", "091144.900000", "091144.902000", "091144.905000", "091144.907000", "091144.909000", "091144.912000", "091144.914000", "091144.916000", "091144.919000", "091144.921000", "091144.923000", "091144.925000", "091224.881000", "091224.884000", "091224.886000", "091224.888000", "091224.891000", "091224.893000", "091224.895000", "091224.898000", "091224.900000", "091224.902000", "091224.905000", "091224.907000", "091224.909000", "091224.912000", "091224.914000", "091224.916000", "091224.919000", "091224.921000", "091224.923000", "091224.925000", "091304.880000", "091304.883000", "091304.885000", "091304.887000", "091304.890000", "091304.892000", "091304.894000", "091304.897000", "091304.899000", "091304.901000", "091304.903000", "091304.906000", "091304.908000", "091304.910000", "091304.913000", "091304.915000", "091304.917000", "091304.920000", "091304.922000", "091304.924000", "091324.881000", "091324.884000", "091324.886000", "091324.889000", "091324.891000", "091324.893000", "091324.895000", "091324.898000", "091324.900000", "091324.902000", "091404.881000", "091404.884000", "091404.886000", "091404.888000", "091404.891000", "091404.893000", "091404.895000", "091404.898000", "091404.900000", "091404.902000", "091404.905000", "091404.907000", "091404.909000", "091404.912000", "091404.914000", "091404.916000", "091404.919000", "091404.921000", "091404.923000", "091404.926000", "091444.881000", "091444.884000", "091444.886000", "091444.889000", "091444.891000", "091444.893000", "091444.896000", "091444.898000", "091444.900000", "091444.902000", "091444.905000", "091444.907000", "091444.909000", "091444.912000", "091444.914000", "091444.916000", "091444.919000", "091444.921000", "091444.923000", "091444.926000", "091524.881000", "091524.884000", "091524.886000", "091524.888000", "091524.891000", "091524.893000", "091524.895000", "091524.898000", "091524.900000", "091524.902000", "091524.905000", "091524.907000", "091524.909000", "091524.912000", "091524.914000", "091524.916000", "091524.919000", "091524.921000", "091524.923000", "091524.926000", "091544.705000", "091544.708000", "091544.710000", "091544.713000", "091544.715000", "091544.718000", "091544.720000", "091544.722000", "091544.725000", "091544.727000"],
      "InstanceNumber": [1, 2, 3, 4, 5, 6, 7, 8, 9, 10, 11, 12, 13, 14, 15, 16, 17, 18, 19, 20, 21, 22, 23, 24, 25, 26, 27, 28, 29, 30, 31, 32, 33, 34, 35, 36, 37, 38, 39, 40, 41, 42, 43, 44, 45, 46, 47, 48, 49, 50, 51, 52, 53, 54, 55, 56, 57, 58, 59, 60, 61, 62, 63, 64, 65, 66, 67, 68, 69, 70, 71, 72, 73, 74, 75, 76, 77, 78, 79, 80, 81, 82, 83, 84, 85, 86, 87, 88, 89, 90, 91, 92, 93, 94, 95, 96, 97, 98, 99, 100, 101, 102, 103, 104, 105, 106, 107, 108, 109, 110, 111, 112, 113, 114, 115, 116, 117, 118, 119, 120, 121, 122, 123, 124, 125, 126, 127, 128, 129, 130, 131, 132, 133, 134, 135, 136, 137, 138, 139, 140, 141, 142, 143, 144, 145, 146, 147, 148, 149, 150, 151, 152, 153, 154, 155, 156, 157, 158, 159, 160, 161, 162, 163, 164, 165, 166, 167, 168, 169, 170, 171, 172, 173, 174, 175, 176, 177, 178, 179, 180, 181, 182, 183, 184, 185, 186, 187, 188, 189, 190, 191, 192, 193, 194, 195, 196, 197, 198, 199, 200],
      "WindowCenter": [1455.0, 1455.0, 1456.0, 1455.0, 1455.0, 1455.0, 1455.0, 1455.0, 1454.0, 1455.0, 1454.0, 1454.0, 1454.0, 1454.0, 1454.0, 1454.0, 1454.0, 1455.0, 1454.0, 1453.0, 1454.0, 1453.0, 1453.0, 1454.0, 1454.0, 1453.0, 1453.0, 1453.0, 1454.0, 1453.0, 1453.0, 1453.0, 1453.0, 1453.0, 1452.0, 1452.0, 1453.0, 1452.0, 1453.0, 1453.0, 1453.0, 1453.0, 1453.0, 1453.0, 1453.0, 1454.0, 1453.0, 1453.0, 1454.0, 1454.0, 1454.0, 1453.0, 1453.0, 1454.0, 1453.0, 1453.0, 1452.0, 1454.0, 1453.0, 1453.0, 1453.0, 1453.0, 1453.0, 1452.0, 1453.0, 1453.0, 1454.0, 1453.0, 1453.0, 1453.0, 1453.0, 1453.0, 1454.0, 1453.0, 1452.0, 1453.0, 1453.0, 1452.0, 1453.0, 1452.0, 1452.0, 1451.0, 1451.0, 1452.0, 1452.0, 1451.0, 1452.0, 1452.0, 1452.0, 1451.0, 1451.0, 1452.0, 1451.0, 1450.0, 1452.0, 1450.0, 1451.0, 1450.0, 1450.0, 1451.0, 1450.0, 1451.0, 1450.0, 1450.0, 1451.0, 1450.0, 1450.0, 1451.0, 1450.0, 1451.0, 1450.0, 1451.0, 1451.0, 1450.0, 1450.0, 1450.0, 1450.0, 1450.0, 1451.0, 1450.0, 1450.0, 1450.0, 1450.0, 1450.0, 1449.0, 1449.0, 1449.0, 1449.0, 1450.0, 1449.0, 1449.0, 1449.0, 1450.0, 1450.0, 1449.0, 1448.0, 1449.0, 1448.0, 1449.0, 1449.0, 1448.0, 1448.0, 1448.0, 1448.0, 1448.0, 1448.0, 1448.0, 1448.0, 1448.0, 1449.0, 1448.0, 1448.0, 1448.0, 1448.0, 1448.0, 1448.0, 1448.0, 1447.0, 1448.0, 1448.0, 1448.0, 1448.0, 1447.0, 1448.0, 1448.0, 1448.0, 1448.0, 1448.0, 1448.0, 1448.0, 1447.0, 1447.0, 1447.0, 1448.0, 1447.0, 1447.0, 1447.0, 1447.0, 1447.0, 1447.0, 1447.0, 1448.0, 1447.0, 1447.0, 1448.0, 1447.0, 1447.0, 1447.0, 1447.0, 1448.0, 1447.0, 1446.0, 1446.0, 1447.0, 1447.0, 1447.0, 1448.0, 1447.0, 1446.0, 1446.0],
      "WindowWidth": [3401.0, 3401.0, 3401.0, 3401.0, 3401.0, 3401.0, 3401.0, 3401.0, 3401.0, 3401.0, 3401.0, 3401.0, 3400.0, 3401.0, 3401.0, 3401.0, 3400.0, 3400.0, 3401.0, 3400.0, 3401.0, 3400.0, 3400.0, 3400.0, 3400.0, 3400.0, 3400.0, 3400.0, 3399.0, 3400.0, 3400.0, 3400.0, 3400.0, 3400.0, 3399.0, 3399.0, 3399.0, 3399.0, 3399.0, 3399.0, 3399.0, 3399.0, 3399.0, 3399.0, 3400.0, 3399.0, 3400.0, 3399.0, 3399.0, 3399.0, 3399.0, 3400.0, 3400.0, 3399.0, 3399.0, 3398.0, 3399.0, 3399.0, 3399.0, 3399.0, 3399.0, 3399.0, 3399.0, 3399.0, 3399.0, 3399.0, 3399.0, 3399.0, 3399.0, 3399.0, 3399.0, 3399.0, 3399.0, 3399.0, 3399.0, 3399.0, 3399.0, 3399.0, 3399.0, 3399.0, 3399.0, 3399.0, 3399.0, 3399.0, 3399.0, 3399.0, 3399.0, 3399.0, 3399.0, 3399.0, 3399.0, 3399.0, 3399.0, 3399.0, 3399.0, 3399.0, 3399.0, 3399.0, 3399.0, 3399.0, 3399.0, 3398.0, 3399.0, 3399.0, 3398.0, 3398.0, 3398.0, 3398.0, 3398.0, 3398.0, 3398.0, 3398.0, 3398.0, 3398.0, 3398.0, 3398.0, 3398.0, 3398.0, 3398.0, 3398.0, 3398.0, 3398.0, 3398.0, 3398.0, 3398.0, 3398.0, 3398.0, 3398.0, 3397.0, 3398.0, 3398.0, 3398.0, 3397.0, 3397.0, 3398.0, 3398.0, 3398.0, 3398.0, 3397.0, 3397.0, 3398.0, 3398.0, 3398.0, 3398.0, 3398.0, 3398.0, 3398.0, 3398.0, 3398.0, 3397.0, 3398.0, 3398.0, 3398.0, 3397.0, 3398.0, 3398.0, 3397.0, 3397.0, 3397.0, 3397.0, 3397.0, 3397.0, 3397.0, 3397.0, 3397.0, 3397.0, 3397.0, 3397.0, 3397.0, 3397.0, 3397.0, 3397.0, 3397.0, 3397.0, 3397.0, 3397.0, 3397.0, 3397.0, 3397.0, 3397.0, 3397.0, 3396.0, 3397.0, 3397.0, 3396.0, 3397.0, 3397.0, 3397.0, 3397.0, 3396.0, 3396.0, 3396.0, 3396.0, 3396.0, 3396.0, 3397.0, 3396.0, 3397.0, 3396.0, 3396.0]
    },
    "slices": {}
  }
}