{
  "AcquisitionMatrixPE": 122,
  "AcquisitionNumber": 1,
  "AcquisitionTime": "11:33:2.065000",
  "BandwidthPerPixelPhaseEncode": 28.76,
  "BaseResolution": 122,
  "BodyPartExamined": "BRAIN",
  "CoilCombinationMethod": "Adaptive Combine",
  "ConsistencyInfo": "N4_VE11C_LATEST_20160120",
  "ConversionSoftware": "dcm2niix",
  "ConversionSoftwareVersion": "v1.0.20220720",
  "DerivedVendorReportedEchoSpacing": 0.000570008,
  "DeviceSerialNumber": "66112",
  "DiffusionScheme": "Monopolar",
  "DwellTime": 2e-06,
  "EchoTime": 0.075,
  "EchoTrainLength": 61,
  "EffectiveEchoSpacing": 0.000285004,
  "FlipAngle": 90,
  "HeudiconvVersion": "0.13.1",
  "ImageOrientationPatientDICOM": [0.97644, 0.215236, 0.0154484, -0.209687, 0.929485, 0.303463],
  "ImageOrientationText": "Tra>Cor(17.5)>Sag(-2.9)",
  "ImageType": [
    "ORIGINAL",
    "PRIMARY",
    "DIFFUSION",
    "NONE",
    "ND",
    "NORM"
],
  "ImagingFrequency": 123.252,
  "InPlanePhaseEncodingDirectionDICOM": "COL",
  "InstitutionAddress": "Maynard 3,Hanover,NH,US,03755",
  "InstitutionName": "Dartmouth College - PBS",
  "InstitutionalDepartmentName": "Department",
  "MRAcquisitionType": "2D",
  "MagneticFieldStrength": 3,
  "Manufacturer": "Siemens",
  "ManufacturersModelName": "Prisma",
  "MatrixCoilMode": "GRAPPA",
  "Modality": "MR",
  "NonlinearGradientCorrection": false,
  "ParallelReductionFactorInPlane": 2,
  "PartialFourier": 1,
  "PatientPosition": "HFS",
  "PercentPhaseFOV": 100,
  "PercentSampling": 100,
  "PhaseEncodingDirection": "j-",
  "PhaseEncodingSteps": 122,
  "PhaseResolution": 1,
  "PixelBandwidth": 2050,
  "ProcedureStepDescription": "dbic^QA",
  "ProtocolName": "dwi_acq-DTI-30-p2",
  "PulseSequenceDetails": "%SiemensSeq%\\ep2d_diff",
  "ReceiveCoilActiveElements": "HEA;HEP",
  "ReceiveCoilName": "Head_32",
  "ReconMatrixPE": 122,
  "RefLinesPE": 38,
  "RepetitionTime": 7.7,
  "SAR": 0.0871073,
  "ScanOptions": "FS",
  "ScanningSequence": "EP",
  "SequenceName": "*ep_b0",
  "SequenceVariant": "SK\\SP",
  "SeriesDescription": "dwi_acq-DTI-30-p2",
  "SeriesNumber": 8,
  "ShimSetting": [4139, -7674, -7515, 267, 28, -265, -99, 28],
  "SliceThickness": 2,
  "SliceTiming": [3.83594, 0, 3.94531, 0.10938, 4.05469, 0.21875, 4.17188, 0.32812, 4.28125, 0.4375, 4.39062, 0.54688, 4.5, 0.65625, 4.60938, 0.76562, 4.71875, 0.875, 4.82812, 0.98438, 4.9375, 1.09375, 5.04688, 1.20312, 5.15625, 1.3125, 5.26562, 1.42969, 5.375, 1.53906, 5.48438, 1.64844, 5.59375, 1.75781, 5.70312, 1.86719, 5.8125, 1.97656, 5.92188, 2.08594, 6.03125, 2.19531, 6.14062, 2.30469, 6.25, 2.41406, 6.36719, 2.52344, 6.47656, 2.63281, 6.58594, 2.74219, 6.6875, 2.85156, 6.80469, 2.96094, 6.91406, 3.07031, 7.02344, 3.17969, 7.13281, 3.28906, 7.24219, 3.39844, 7.35156, 3.50781, 7.46094, 3.61719, 7.57031, 3.73438],
  "SoftwareVersions": "syngo MR E11",
  "SpacingBetweenSlices": 2,
  "SpoilingState": true,
  "StationName": "AWP66112",
  "TotalReadoutTime": 0.0344855,
  "TxRefAmp": 238.067,
  "dcmmeta_affine": [
    [-1.9208651781082153, -0.41249924898147583, -0.1019144058227539, 153.1149444580078],
    [-0.4234156906604767, 1.8284944295883179, 0.5991058349609375, -96.10890197753906],
    [0.030390197411179543, -0.5969758033752441, 1.9054374694824219, -50.657066345214844],
    [0.0, 0.0, 0.0, 1.0]
],
  "dcmmeta_reorient_transform": [
    [0.0, -1.0, 0.0, 121.0],
    [1.0, 0.0, 0.0, 0.0],
    [0.0, 0.0, -1.0, 69.0],
    [0.0, 0.0, 0.0, 1.0]
],
  "dcmmeta_shape": [122, 122, 70, 31],
  "dcmmeta_slice_dim": 2,
  "dcmmeta_version": 0.6,
  "global": {
    "const": {
      "AccessionNumber": "qa",
      "AcquisitionMatrix": [122, 0, 0, 122],
      "AngioFlag": "N",
      "BitsAllocated": 16,
      "BitsStored": 12,
      "BodyPartExamined": "BRAIN",
      "Columns": 122,
      "EchoNumbers": 1,
      "EchoTime": 75.0,
      "EchoTrainLength": 61,
      "FlipAngle": 90.0,
      "HighBit": 11,
      "ImageOrientationPatient": [0.9764397981652, 0.21523630975224, 0.01544835018209, -0.2096871143702, 0.92948464889501, 0.30346268557374],
      "ImageType": [
        "ORIGINAL",
        "PRIMARY",
        "DIFFUSION",
        "NONE",
        "ND",
        "NORM"
],
      "ImagedNucleus": "1H",
      "ImagingFrequency": 123.25245,
      "InPlanePhaseEncodingDirection": "COL",
      "MRAcquisitionType": "2D",
      "MagneticFieldStrength": 3.0,
      "Manufacturer": "SIEMENS",
      "ManufacturerModelName": "Prisma",
      "Modality": "MR",
      "NumberOfAverages": 1.0,
      "NumberOfPhaseEncodingSteps": 122,
      "PercentPhaseFieldOfView": 100.0,
      "PercentSampling": 100.0,
      "PerformedProcedureStepStartTime": "105248.701000",
      "PhotometricInterpretation": "MONOCHROME2",
      "PixelBandwidth": 2050.0,
      "PixelRepresentation": 0,
      "PixelSpacing": [1.9672131538391, 1.9672131538391],
      "ProtocolName": "dwi_acq-DTI-30-p2",
      "RepetitionTime": 7700.0,
      "Rows": 122,
      "SAR": 0.08710727574647,
      "SamplesPerPixel": 1,
      "ScanOptions": "FS",
      "ScanningSequence": "EP",
      "SequenceVariant": [
        "SK",
        "SP"
],
      "SeriesDescription": "dwi_acq-DTI-30-p2",
      "SeriesNumber": 8,
      "SeriesTime": "113311.263000",
      "SliceThickness": 2.0,
      "SmallestImagePixelValue": 0,
      "SoftwareVersions": "syngo MR E11",
      "SpacingBetweenSlices": 2.0,
      "SpecificCharacterSet": "ISO_IR 100",
      "StudyID": "64",
      "StudyTime": "105248.650000",
      "TransmitCoilName": "Body",
      "VariableFlipAngleFlag": "N",
      "WindowCenterWidthExplanation": "Algo1",
      "dBdt": 0.0},
    "slices": {
      "AcquisitionTime": ["113302.065000", "113258.225000", "113302.175000", "113258.335000", "113302.285000", "113258.445000", "113302.395000", "113258.555000", "113302.505000", "113258.665000", "113302.615000", "113258.775000", "113302.725000", "113258.885000", "113302.835000", "113258.995000", "113302.942500", "113259.105000", "113303.052500", "113259.212500", "113303.162500", "113259.322500", "113303.272500", "113259.432500", "113303.382500", "113259.542500", "113303.492500", "113259.652500", "113303.602500", "113259.762500", "113303.712500", "113259.872500", "113303.822500", "113259.982500", "113303.930000", "113300.092500", "113304.040000", "113300.200000", "113304.150000", "113300.310000", "113304.260000", "113300.420000", "113304.370000", "113300.530000", "113304.480000", "113300.640000", "113304.590000", "113300.750000", "113304.700000", "113300.860000", "113304.810000", "113300.970000", "113304.917500", "113301.077500", "113305.027500", "113301.187500", "113305.137500", "113301.297500", "113305.247500", "113301.407500", "113305.357500", "113301.517500", "113305.467500", "113301.627500", "113305.577500", "113301.737500", "113305.687500", "113301.847500", "113305.795000", "113301.957500", "113309.765000", "113305.925000", "113309.875000", "113306.035000", "113309.985000", "113306.145000", "113310.095000", "113306.255000", "113310.205000", "113306.365000", "113310.315000", "113306.475000", "113310.425000", "113306.585000", "113310.535000", "113306.695000", "113310.642500", "113306.805000", "113310.752500", "113306.912500", "113310.862500", "113307.022500", "113310.972500", "113307.132500", "113311.082500", "113307.242500", "113311.192500", "113307.352500", "113311.302500", "113307.462500", "113311.412500", "113307.572500", "113311.522500", "113307.682500", "113311.630000", "113307.792500", "113311.740000", "113307.900000", "113311.850000", "113308.010000", "113311.960000", "113308.120000", "113312.070000", "113308.230000", "113312.180000", "113308.340000", "113312.290000", "113308.450000", "113312.400000", "113308.560000", "113312.510000", "113308.670000", "113312.617500", "113308.777500", "113312.727500", "113308.887500", "113312.837500", "113308.997500", "113312.947500", "113309.107500", "113313.057500", "113309.217500", "113313.167500", "113309.327500", "113313.277500", "113309.437500", "113313.387500", "113309.547500", "113313.495000", "113309.657500", "113317.465000", "113313.625000", "113317.575000", "113313.735000", "113317.685000", "113313.845000", "113317.795000", "113313.955000", "113317.905000", "113314.065000", "113318.015000", "113314.175000", "113318.125000", "113314.285000", "113318.235000", "113314.395000", "113318.342500", "113314.505000", "113318.452500", "113314.612500", "113318.562500", "113314.722500", "113318.672500", "113314.832500", "113318.782500", "113314.942500", "113318.892500", "113315.052500", "113319.002500", "113315.162500", "113319.112500", "113315.272500", "113319.222500", "113315.382500", "113319.330000", "113315.492500", "113319.440000", "113315.600000", "113319.550000", "113315.710000", "113319.660000", "113315.820000", "113319.770000", "113315.930000", "113319.880000", "113316.040000", "113319.990000", "113316.150000", "113320.100000", "113316.260000", "113320.210000", "113316.370000", "113320.317500", "113316.477500", "113320.427500", "113316.587500", "113320.537500", "113316.697500", "113320.647500", "113316.807500", "113320.757500", "113316.917500", "113320.867500", "113317.027500", "113320.977500", "113317.137500", "113321.087500", "113317.247500", "113321.195000", "113317.357500", "113325.165000", "113321.325000", "113325.275000", "113321.435000", "113325.385000", "113321.545000", "113325.495000", "113321.655000", "113325.605000", "113321.765000", "113325.715000", "113321.875000", "113325.825000", "113321.985000", "113325.935000", "113322.095000", "113326.042500", "113322.205000", "113326.152500", "113322.312500", "113326.262500", "113322.422500", "113326.372500", "113322.532500", "113326.482500", "113322.642500", "113326.592500", "113322.752500", "113326.702500", "113322.862500", "113326.812500", "113322.972500", "113326.922500", "113323.082500", "113327.030000", "113323.192500", "113327.140000", "113323.300000", "113327.250000", "113323.410000", "113327.360000", "113323.520000", "113327.470000", "113323.630000", "113327.580000", "113323.740000", "113327.690000", "113323.850000", "113327.800000", "113323.960000", "113327.910000", "113324.070000", "113328.017500", "113324.177500", "113328.127500", "113324.287500", "113328.237500", "113324.397500", "113328.347500", "113324.507500", "113328.457500", "113324.617500", "113328.567500", "113324.727500", "113328.677500", "113324.837500", "113328.787500", "113324.947500", "113328.895000", "113325.057500", "113332.865000", "113329.025000", "113332.975000", "113329.135000", "113333.085000", "113329.245000", "113333.195000", "113329.355000", "113333.305000", "113329.465000", "113333.415000", "113329.575000", "113333.525000", "113329.685000", "113333.635000", "113329.795000", "113333.742500", "113329.905000", "113333.852500", "113330.012500", "113333.962500", "113330.122500", "113334.072500", "113330.232500", "113334.182500", "113330.342500", "113334.292500", "113330.452500", "113334.402500", "113330.562500", "113334.512500", "113330.672500", "113334.622500", "113330.782500", "113334.730000", "113330.892500", "113334.840000", "113331.000000", "113334.950000", "113331.110000", "113335.060000", "113331.220000", "113335.170000", "113331.330000", "113335.280000", "113331.440000", "113335.390000", "113331.550000", "113335.500000", "113331.660000", "113335.610000", "113331.770000", "113335.717500", "113331.877500", "113335.827500", "113331.987500", "113335.937500", "113332.097500", "113336.047500", "113332.207500", "113336.157500", "113332.317500", "113336.267500", "113332.427500", "113336.377500", "113332.537500", "113336.487500", "113332.647500", "113336.595000", "113332.757500", "113340.565000", "113336.725000", "113340.675000", "113336.835000", "113340.785000", "113336.945000", "113340.895000", "113337.055000", "113341.005000", "113337.165000", "113341.115000", "113337.275000", "113341.225000", "113337.385000", "113341.335000", "113337.495000", "113341.442500", "113337.605000", "113341.552500", "113337.712500", "113341.662500", "113337.822500", "113341.772500", "113337.932500", "113341.882500", "113338.042500", "113341.992500", "113338.152500", "113342.102500", "113338.262500", "113342.212500", "113338.372500", "113342.322500", "113338.482500", "113342.430000", "113338.592500", "113342.540000", "113338.700000", "113342.650000", "113338.810000", "113342.760000", "113338.920000", "113342.870000", "113339.030000", "113342.980000", "113339.140000", "113343.090000", "113339.250000", "113343.200000", "113339.360000", "113343.310000", "113339.470000", "113343.417500", "113339.577500", "113343.527500", "113339.687500", "113343.637500", "113339.797500", "113343.747500", "113339.907500", "113343.857500", "113340.017500", "113343.967500", "113340.127500", "113344.077500", "113340.237500", "113344.187500", "113340.347500", "113344.295000", "113340.457500", "113348.265000", "113344.425000", "113348.375000", "113344.535000", "113348.485000", "113344.645000", "113348.595000", "113344.755000", "113348.705000", "113344.865000", "113348.815000", "113344.975000", "113348.925000", "113345.085000", "113349.035000", "113345.195000", "113349.142500", "113345.305000", "113349.252500", "113345.412500", "113349.362500", "113345.522500", "113349.472500", "113345.632500", "113349.582500", "113345.742500", "113349.692500", "113345.852500", "113349.802500", "113345.962500", "113349.912500", "113346.072500", "113350.022500", "113346.182500", "113350.130000", "113346.292500", "113350.240000", "113346.400000", "113350.350000", "113346.510000", "113350.460000", "113346.620000", "113350.570000", "113346.730000", "113350.680000", "113346.840000", "113350.790000", "113346.950000", "113350.900000", "113347.060000", "113351.010000", "113347.170000", "113351.117500", "113347.277500", "113351.227500", "113347.387500", "113351.337500", "113347.497500", "113351.447500", "113347.607500", "113351.557500", "113347.717500", "113351.667500", "113347.827500", "113351.777500", "113347.937500", "113351.887500", "113348.047500", "113351.995000", "113348.157500", "113355.965000", "113352.125000", "113356.075000", "113352.235000", "113356.185000", "113352.345000", "113356.295000", "113352.455000", "113356.405000", "113352.565000", "113356.515000", "113352.675000", "113356.625000", "113352.785000", "113356.735000", "113352.895000", "113356.842500", "113353.005000", "113356.952500", "113353.112500", "113357.062500", "113353.222500", "113357.172500", "113353.332500", "113357.282500", "113353.442500", "113357.392500", "113353.552500", "113357.502500", "113353.662500", "113357.612500", "113353.772500", "113357.722500", "113353.882500", "113357.830000", "113353.992500", "113357.940000", "113354.100000", "113358.050000", "113354.210000", "113358.160000", "113354.320000", "113358.270000", "113354.430000", "113358.380000", "113354.540000", "113358.490000", "113354.650000", "113358.600000", "113354.760000", "113358.710000", "113354.870000", "113358.817500", "113354.977500", "113358.927500", "113355.087500", "113359.037500", "113355.197500", "113359.147500", "113355.307500", "113359.257500", "113355.417500", "113359.367500", "113355.527500", "113359.477500", "113355.637500", "113359.587500", "113355.747500", "113359.695000", "113355.857500", "113403.665000", "113359.825000", "113403.775000", "113359.935000", "113403.885000", "113400.045000", "113403.995000", "113400.155000", "113404.105000", "113400.265000", "113404.215000", "113400.375000", "113404.325000", "113400.485000", "113404.435000", "113400.595000", "113404.542500", "113400.705000", "113404.652500", "113400.812500", "113404.762500", "113400.922500", "113404.872500", "113401.032500", "113404.982500", "113401.142500", "113405.092500", "113401.252500", "113405.202500", "113401.362500", "113405.312500", "113401.472500", "113405.422500", "113401.582500", "113405.530000", "113401.692500", "113405.640000", "113401.800000", "113405.750000", "113401.910000", "113405.860000", "113402.020000", "113405.970000", "113402.130000", "113406.080000", "113402.240000", "113406.190000", "113402.350000", "113406.300000", "113402.460000", "113406.410000", "113402.570000", "113406.517500", "113402.677500", "113406.627500", "113402.787500", "113406.737500", "113402.897500", "113406.847500", "113403.007500", "113406.957500", "113403.117500", "113407.067500", "113403.227500", "113407.177500", "113403.337500", "113407.287500", "113403.447500", "113407.395000", "113403.557500", "113411.365000", "113407.525000", "113411.475000", "113407.635000", "113411.585000", "113407.745000", "113411.695000", "113407.855000", "113411.805000", "113407.965000", "113411.915000", "113408.075000", "113412.025000", "113408.185000", "113412.135000", "113408.295000", "113412.242500", "113408.405000", "113412.352500", "113408.512500", "113412.462500", "113408.622500", "113412.572500", "113408.732500", "113412.682500", "113408.842500", "113412.792500", "113408.952500", "113412.902500", "113409.062500", "113413.012500", "113409.172500", "113413.122500", "113409.282500", "113413.230000", "113409.392500", "113413.340000", "113409.500000", "113413.450000", "113409.610000", "113413.560000", "113409.720000", "113413.670000", "113409.830000", "113413.780000", "113409.940000", "113413.890000", "113410.050000", "113414.000000", "113410.160000", "113414.110000", "113410.270000", "113414.217500", "113410.377500", "113414.327500", "113410.487500", "113414.437500", "113410.597500", "113414.547500", "113410.707500", "113414.657500", "113410.817500", "113414.767500", "113410.927500", "113414.877500", "113411.037500", "113414.987500", "113411.147500", "113415.095000", "113411.257500", "113419.065000", "113415.225000", "113419.175000", "113415.335000", "113419.285000", "113415.445000", "113419.395000", "113415.555000", "113419.505000", "113415.665000", "113419.615000", "113415.775000", "113419.725000", "113415.885000", "113419.835000", "113415.995000", "113419.942500", "113416.105000", "113420.052500", "113416.212500", "113420.162500", "113416.322500", "113420.272500", "113416.432500", "113420.382500", "113416.542500", "113420.492500", "113416.652500", "113420.602500", "113416.762500", "113420.712500", "113416.872500", "113420.822500", "113416.982500", "113420.930000", "113417.092500", "113421.040000", "113417.200000", "113421.150000", "113417.310000", "113421.260000", "113417.420000", "113421.370000", "113417.530000", "113421.480000", "113417.640000", "113421.590000", "113417.750000", "113421.700000", "113417.860000", "113421.810000", "113417.970000", "113421.917500", "113418.077500", "113422.027500", "113418.187500", "113422.137500", "113418.297500", "113422.247500", "113418.407500", "113422.357500", "113418.517500", "113422.467500", "113418.627500", "113422.577500", "113418.737500", "113422.687500", "113418.847500", "113422.795000", "113418.957500", "113426.765000", "113422.925000", "113426.875000", "113423.035000", "113426.985000", "113423.145000", "113427.095000", "113423.255000", "113427.205000", "113423.365000", "113427.315000", "113423.475000", "113427.425000", "113423.585000", "113427.535000", "113423.695000", "113427.642500", "113423.805000", "113427.752500", "113423.912500", "113427.862500", "113424.022500", "113427.972500", "113424.132500", "113428.082500", "113424.242500", "113428.192500", "113424.352500", "113428.302500", "113424.462500", "113428.412500", "113424.572500", "113428.522500", "113424.682500", "113428.630000", "113424.792500", "113428.740000", "113424.900000", "113428.850000", "113425.010000", "113428.960000", "113425.120000", "113429.070000", "113425.230000", "113429.180000", "113425.340000", "113429.290000", "113425.450000", "113429.400000", "113425.560000", "113429.510000", "113425.670000", "113429.617500", "113425.777500", "113429.727500", "113425.887500", "113429.837500", "113425.997500", "113429.947500", "113426.107500", "113430.057500", "113426.217500", "113430.167500", "113426.327500", "113430.277500", "113426.437500", "113430.387500", "113426.547500", "113430.495000", "113426.657500", "113434.465000", "113430.625000", "113434.575000", "113430.735000", "113434.685000", "113430.845000", "113434.795000", "113430.955000", "113434.905000", "113431.065000", "113435.015000", "113431.175000", "113435.125000", "113431.285000", "113435.235000", "113431.395000", "113435.342500", "113431.505000", "113435.452500", "113431.612500", "113435.562500", "113431.722500", "113435.672500", "113431.832500", "113435.782500", "113431.942500", "113435.892500", "113432.052500", "113436.002500", "113432.162500", "113436.112500", "113432.272500", "113436.222500", "113432.382500", "113436.330000", "113432.492500", "113436.440000", "113432.600000", "113436.550000", "113432.710000", "113436.660000", "113432.820000", "113436.770000", "113432.930000", "113436.880000", "113433.040000", "113436.990000", "113433.150000", "113437.100000", "113433.260000", "113437.210000", "113433.370000", "113437.317500", "113433.477500", "113437.427500", "113433.587500", "113437.537500", "113433.697500", "113437.647500", "113433.807500", "113437.757500", "113433.917500", "113437.867500", "113434.027500", "113437.977500", "113434.137500", "113438.087500", "113434.247500", "113438.195000", "113434.357500", "113442.165000", "113438.325000", "113442.275000", "113438.435000", "113442.385000", "113438.545000", "113442.495000", "113438.655000", "113442.605000", "113438.765000", "113442.715000", "113438.875000", "113442.825000", "113438.985000", "113442.935000", "113439.095000", "113443.042500", "113439.205000", "113443.152500", "113439.312500", "113443.262500", "113439.422500", "113443.372500", "113439.532500", "113443.482500", "113439.642500", "113443.592500", "113439.752500", "113443.702500", "113439.862500", "113443.812500", "113439.972500", "113443.922500", "113440.082500", "113444.030000", "113440.192500", "113444.140000", "113440.300000", "113444.250000", "113440.410000", "113444.360000", "113440.520000", "113444.470000", "113440.630000", "113444.580000", "113440.740000", "113444.690000", "113440.850000", "113444.800000", "113440.960000", "113444.910000", "113441.070000", "113445.017500", "113441.177500", "113445.127500", "113441.287500", "113445.237500", "113441.397500", "113445.347500", "113441.507500", "113445.457500", "113441.617500", "113445.567500", "113441.727500", "113445.677500", "113441.837500", "113445.787500", "113441.947500", "113445.895000", "113442.057500", "113449.865000", "113446.025000", "113449.975000", "113446.135000", "113450.085000", "113446.245000", "113450.195000", "113446.355000", "113450.305000", "113446.465000", "113450.415000", "113446.575000", "113450.525000", "113446.685000", "113450.635000", "113446.795000", "113450.742500", "113446.905000", "113450.852500", "113447.012500", "113450.962500", "113447.122500", "113451.072500", "113447.232500", "113451.182500", "113447.342500", "113451.292500", "113447.452500", "113451.402500", "113447.562500", "113451.512500", "113447.672500", "113451.622500", "113447.782500", "113451.730000", "113447.892500", "113451.840000", "113448.000000", "113451.950000", "113448.110000", "113452.060000", "113448.220000", "113452.170000", "113448.330000", "113452.280000", "113448.440000", "113452.390000", "113448.550000", "113452.500000", "113448.660000", "113452.610000", "113448.770000", "113452.717500", "113448.877500", "113452.827500", "113448.987500", "113452.937500", "113449.097500", "113453.047500", "113449.207500", "113453.157500", "113449.317500", "113453.267500", "113449.427500", "113453.377500", "113449.537500", "113453.487500", "113449.647500", "113453.595000", "113449.757500", "113457.565000", "113453.725000", "113457.675000", "113453.835000", "113457.785000", "113453.945000", "113457.895000", "113454.055000", "113458.005000", "113454.165000", "113458.115000", "113454.275000", "113458.225000", "113454.385000", "113458.335000", "113454.495000", "113458.442500", "113454.605000", "113458.552500", "113454.712500", "113458.662500", "113454.822500", "113458.772500", "113454.932500", "113458.882500", "113455.042500", "113458.992500", "113455.152500", "113459.102500", "113455.262500", "113459.212500", "113455.372500", "113459.322500", "113455.482500", "113459.430000", "113455.592500", "113459.540000", "113455.700000", "113459.650000", "113455.810000", "113459.760000", "113455.920000", "113459.870000", "113456.030000", "113459.980000", "113456.140000", "113500.090000", "113456.250000", "113500.200000", "113456.360000", "113500.310000", "113456.470000", "113500.417500", "113456.577500", "113500.527500", "113456.687500", "113500.637500", "113456.797500", "113500.747500", "113456.907500", "113500.857500", "113457.017500", "113500.967500", "113457.127500", "113501.077500", "113457.237500", "113501.187500", "113457.347500", "113501.295000", "113457.457500", "113505.265000", "113501.425000", "113505.375000", "113501.535000", "113505.485000", "113501.645000", "113505.595000", "113501.755000", "113505.705000", "113501.865000", "113505.815000", "113501.975000", "113505.925000", "113502.085000", "113506.035000", "113502.195000", "113506.142500", "113502.305000", "113506.252500", "113502.412500", "113506.362500", "113502.522500", "113506.472500", "113502.632500", "113506.582500", "113502.742500", "113506.692500", "113502.852500", "113506.802500", "113502.962500", "113506.912500", "113503.072500", "113507.022500", "113503.182500", "113507.130000", "113503.292500", "113507.240000", "113503.400000", "113507.350000", "113503.510000", "113507.460000", "113503.620000", "113507.570000", "113503.730000", "113507.680000", "113503.840000", "113507.790000", "113503.950000", "113507.900000", "113504.060000", "113508.010000", "113504.170000", "113508.117500", "113504.277500", "113508.227500", "113504.387500", "113508.337500", "113504.497500", "113508.447500", "113504.607500", "113508.557500", "113504.717500", "113508.667500", "113504.827500", "113508.777500", "113504.937500", "113508.887500", "113505.047500", "113508.995000", "113505.157500", "113512.965000", "113509.125000", "113513.075000", "113509.235000", "113513.185000", "113509.345000", "113513.295000", "113509.455000", "113513.405000", "113509.565000", "113513.515000", "113509.675000", "113513.625000", "113509.785000", "113513.735000", "113509.895000", "113513.842500", "113510.005000", "113513.952500", "113510.112500", "113514.062500", "113510.222500", "113514.172500", "113510.332500", "113514.282500", "113510.442500", "113514.392500", "113510.552500", "113514.502500", "113510.662500", "113514.612500", "113510.772500", "113514.722500", "113510.882500", "113514.830000", "113510.992500", "113514.940000", "113511.100000", "113515.050000", "113511.210000", "113515.160000", "113511.320000", "113515.270000", "113511.430000", "113515.380000", "113511.540000", "113515.490000", "113511.650000", "113515.600000", "113511.760000", "113515.710000", "113511.870000", "113515.817500", "113511.977500", "113515.927500", "113512.087500", "113516.037500", "113512.197500", "113516.147500", "113512.307500", "113516.257500", "113512.417500", "113516.367500", "113512.527500", "113516.477500", "113512.637500", "113516.587500", "113512.747500", "113516.695000", "113512.857500", "113520.665000", "113516.825000", "113520.775000", "113516.935000", "113520.885000", "113517.045000", "113520.995000", "113517.155000", "113521.105000", "113517.265000", "113521.215000", "113517.375000", "113521.325000", "113517.485000", "113521.435000", "113517.595000", "113521.542500", "113517.705000", "113521.652500", "113517.812500", "113521.762500", "113517.922500", "113521.872500", "113518.032500", "113521.982500", "113518.142500", "113522.092500", "113518.252500", "113522.202500", "113518.362500", "113522.312500", "113518.472500", "113522.422500", "113518.582500", "113522.530000", "113518.692500", "113522.640000", "113518.800000", "113522.750000", "113518.910000", "113522.860000", "113519.020000", "113522.970000", "113519.130000", "113523.080000", "113519.240000", "113523.190000", "113519.350000", "113523.300000", "113519.460000", "113523.410000", "113519.570000", "113523.517500", "113519.677500", "113523.627500", "113519.787500", "113523.737500", "113519.897500", "113523.847500", "113520.007500", "113523.957500", "113520.117500", "113524.067500", "113520.227500", "113524.177500", "113520.337500", "113524.287500", "113520.447500", "113524.395000", "113520.557500", "113528.365000", "113524.525000", "113528.475000", "113524.635000", "113528.585000", "113524.745000", "113528.695000", "113524.855000", "113528.805000", "113524.965000", "113528.915000", "113525.075000", "113529.025000", "113525.185000", "113529.135000", "113525.295000", "113529.242500", "113525.405000", "113529.352500", "113525.512500", "113529.462500", "113525.622500", "113529.572500", "113525.732500", "113529.682500", "113525.842500", "113529.792500", "113525.952500", "113529.902500", "113526.062500", "113530.012500", "113526.172500", "113530.122500", "113526.282500", "113530.230000", "113526.392500", "113530.340000", "113526.500000", "113530.450000", "113526.610000", "113530.560000", "113526.720000", "113530.670000", "113526.830000", "113530.780000", "113526.940000", "113530.890000", "113527.050000", "113531.000000", "113527.160000", "113531.110000", "113527.270000", "113531.217500", "113527.377500", "113531.327500", "113527.487500", "113531.437500", "113527.597500", "113531.547500", "113527.707500", "113531.657500", "113527.817500", "113531.767500", "113527.927500", "113531.877500", "113528.037500", "113531.987500", "113528.147500", "113532.095000", "113528.257500", "113536.065000", "113532.225000", "113536.175000", "113532.335000", "113536.285000", "113532.445000", "113536.395000", "113532.555000", "113536.505000", "113532.665000", "113536.615000", "113532.775000", "113536.725000", "113532.885000", "113536.835000", "113532.995000", "113536.942500", "113533.105000", "113537.052500", "113533.212500", "113537.162500", "113533.322500", "113537.272500", "113533.432500", "113537.382500", "113533.542500", "113537.492500", "113533.652500", "113537.602500", "113533.762500", "113537.712500", "113533.872500", "113537.822500", "113533.982500", "113537.930000", "11