{
  "AcquisitionMatrixPE": 122,
  "AcquisitionNumber": 1,
  "AcquisitionTime": "11:37:24.450000",
  "BandwidthPerPixelPhaseEncode": 27.785,
  "BaseResolution": 122,
  "BodyPartExamined": "BRAIN",
  "CoilCombinationMethod": "Adaptive Combine",
  "ConsistencyInfo": "N4_VE11C_LATEST_20160120",
  "ConversionSoftware": "dcm2niix",
  "ConversionSoftwareVersion": "v1.0.20220720",
  "DerivedVendorReportedEchoSpacing": 0.000590011,
  "DeviceSerialNumber": "66112",
  "DiffusionScheme": "Monopolar",
  "DwellTime": 2e-06,
  "EchoTime": 0.068,
  "EchoTrainLength": 61,
  "EffectiveEchoSpacing": 0.000295005,
  "FlipAngle": 90,
  "HeudiconvVersion": "0.13.1",
  "ImageOrientationPatientDICOM": [0.97644, 0.215236, 0.0154484, -0.209687, 0.929485, 0.303463],
  "ImageOrientationText": "Tra>Cor(17.5)>Sag(-2.9)",
  "ImageType": [
    "ORIGINAL",
    "PRIMARY",
    "DIFFUSION",
    "NONE",
    "ND",
    "NORM"
],
  "ImagingFrequency": 123.252,
  "InPlanePhaseEncodingDirectionDICOM": "COL",
  "InstitutionAddress": "Maynard 3,Hanover,NH,US,03755",
  "InstitutionName": "Dartmouth College - PBS",
  "InstitutionalDepartmentName": "Department",
  "MRAcquisitionType": "2D",
  "MagneticFieldStrength": 3,
  "Manufacturer": "Siemens",
  "ManufacturersModelName": "Prisma",
  "Modality": "MR",
  "MultibandAccelerationFactor": 4,
  "NonlinearGradientCorrection": false,
  "ParallelReductionFactorInPlane": 2,
  "PartialFourier": 1,
  "PatientPosition": "HFS",
  "PercentPhaseFOV": 100,
  "PercentSampling": 100,
  "PhaseEncodingDirection": "j-",
  "PhaseEncodingSteps": 122,
  "PhaseResolution": 1,
  "PixelBandwidth": 2050,
  "ProcedureStepDescription": "dbic^QA",
  "ProtocolName": "dwi_acq-DTI-30-p2-s4",
  "PulseSequenceDetails": "%SiemensSeq%\\ep2d_diff",
  "ReceiveCoilActiveElements": "HEA;HEP",
  "ReceiveCoilName": "Head_32",
  "ReconMatrixPE": 122,
  "RefLinesPE": 38,
  "RepetitionTime": 3.6,
  "SAR": 0.140056,
  "ScanOptions": "FS",
  "ScanningSequence": "EP",
  "SequenceName": "*ep_b0",
  "SequenceVariant": "SK\\SP",
  "SeriesDescription": "dwi_acq-DTI-30-p2-s4",
  "SeriesNumber": 9,
  "ShimSetting": [4139, -7674, -7516, 267, 26, -268, -99, 28],
  "SliceThickness": 2,
  "SliceTiming": [2.58594, 0, 1.78906, 0.19531, 1.98438, 0.39844, 2.1875, 0.59375, 2.38281, 0.99219, 2.78125, 1.1875, 2.97656, 1.39062, 3.17969, 1.58594, 3.375, 0.78906, 2.58594, 0, 1.78906, 0.19531, 1.98438, 0.39844, 2.1875, 0.59375, 2.38281, 0.99219, 2.78125, 1.1875, 2.97656, 1.39062, 3.17969, 1.58594, 3.375, 0.78906, 2.58594, 0, 1.78906, 0.19531, 1.98438, 0.39844, 2.1875, 0.59375, 2.38281, 0.99219, 2.78125, 1.1875, 2.97656, 1.39062, 3.17969, 1.58594, 3.375, 0.78906, 2.58594, 0, 1.78906, 0.19531, 1.98438, 0.39844, 2.1875, 0.59375, 2.38281, 0.99219, 2.78125, 1.1875, 2.97656, 1.39062, 3.17969, 1.58594, 3.375, 0.78906],
  "SoftwareVersions": "syngo MR E11",
  "SpacingBetweenSlices": 2,
  "SpoilingState": true,
  "StationName": "AWP66112",
  "TotalReadoutTime": 0.0356956,
  "TxRefAmp": 238.067,
  "dcmmeta_affine": [
    [-1.9208651781082153, -0.41249924898147583, -0.1019144058227539, 153.21685791015625],
    [-0.4234156906604767, 1.8284944295883179, 0.5991039276123047, -96.70787811279297],
    [0.030390197411179543, -0.5969758033752441, 1.9054374694824219, -52.562503814697266],
    [0.0, 0.0, 0.0, 1.0]
],
  "dcmmeta_reorient_transform": [
    [0.0, -1.0, 0.0, 121.0],
    [1.0, 0.0, 0.0, 0.0],
    [0.0, 0.0, -1.0, 71.0],
    [0.0, 0.0, 0.0, 1.0]
],
  "dcmmeta_shape": [122, 122, 72, 31],
  "dcmmeta_slice_dim": 2,
  "dcmmeta_version": 0.6,
  "global": {
    "const": {
      "AccessionNumber": "qa",
      "AcquisitionMatrix": [122, 0, 0, 122],
      "AngioFlag": "N",
      "BitsAllocated": 16,
      "BitsStored": 12,
      "BodyPartExamined": "BRAIN",
      "Columns": 122,
      "EchoNumbers": 1,
      "EchoTime": 68.0,
      "EchoTrainLength": 61,
      "FlipAngle": 90.0,
      "HighBit": 11,
      "ImageOrientationPatient": [0.9764397981652, 0.21523630975224, 0.01544835018209, -0.2096871143702, 0.92948464889501, 0.30346268557374],
      "ImageType": [
        "ORIGINAL",
        "PRIMARY",
        "DIFFUSION",
        "NONE",
        "ND",
        "NORM"
],
      "ImagedNucleus": "1H",
      "ImagingFrequency": 123.252456,
      "InPlanePhaseEncodingDirection": "COL",
      "MRAcquisitionType": "2D",
      "MagneticFieldStrength": 3.0,
      "Manufacturer": "SIEMENS",
      "ManufacturerModelName": "Prisma",
      "Modality": "MR",
      "NumberOfAverages": 1.0,
      "NumberOfPhaseEncodingSteps": 122,
      "PercentPhaseFieldOfView": 100.0,
      "PercentSampling": 100.0,
      "PerformedProcedureStepStartTime": "105248.701000",
      "PhotometricInterpretation": "MONOCHROME2",
      "PixelBandwidth": 2050.0,
      "PixelRepresentation": 0,
      "PixelSpacing": [1.9672131538391, 1.9672131538391],
      "ProtocolName": "dwi_acq-DTI-30-p2-s4",
      "RepetitionTime": 3600.0,
      "Rows": 122,
      "SAR": 0.14005618666262,
      "SamplesPerPixel": 1,
      "ScanOptions": "FS",
      "ScanningSequence": "EP",
      "SequenceVariant": [
        "SK",
        "SP"
],
      "SeriesDescription": "dwi_acq-DTI-30-p2-s4",
      "SeriesNumber": 9,
      "SeriesTime": "113731.118000",
      "SliceThickness": 2.0,
      "SmallestImagePixelValue": 0,
      "SoftwareVersions": "syngo MR E11",
      "SpacingBetweenSlices": 2.0,
      "SpecificCharacterSet": "ISO_IR 100",
      "StudyID": "64",
      "StudyTime": "105248.650000",
      "TransmitCoilName": "Body",
      "VariableFlipAngleFlag": "N",
      "WindowCenterWidthExplanation": "Algo1",
      "dBdt": 0.0},
    "slices": {
      "AcquisitionTime": ["113724.450000", "113721.865000", "113723.655000", "113722.062500", "113723.852500", "113722.262500", "113724.052500", "113722.460000", "113724.250000", "113722.857500", "113724.647500", "113723.057500", "113724.847500", "113723.255000", "113725.045000", "113723.455000", "113725.245000", "113722.660000", "113724.450000", "113721.865000", "113723.655000", "113722.062500", "113723.852500", "113722.262500", "113724.052500", "113722.460000", "113724.250000", "113722.857500", "113724.647500", "113723.057500", "113724.847500", "113723.255000", "113725.045000", "113723.455000", "113725.245000", "113722.660000", "113724.450000", "113721.865000", "113723.655000", "113722.062500", "113723.852500", "113722.262500", "113724.052500", "113722.460000", "113724.250000", "113722.857500", "113724.647500", "113723.057500", "113724.847500", "113723.255000", "113725.045000", "113723.455000", "113725.245000", "113722.660000", "113724.450000", "113721.865000", "113723.655000", "113722.062500", "113723.852500", "113722.262500", "113724.052500", "113722.460000", "113724.250000", "113722.857500", "113724.647500", "113723.057500", "113724.847500", "113723.255000", "113725.045000", "113723.455000", "113725.245000", "113722.660000", "113728.050000", "113725.465000", "113727.255000", "113725.662500", "113727.452500", "113725.862500", "113727.652500", "113726.060000", "113727.850000", "113726.457500", "113728.247500", "113726.657500", "113728.447500", "113726.855000", "113728.645000", "113727.055000", "113728.845000", "113726.260000", "113728.050000", "113725.465000", "113727.255000", "113725.662500", "113727.452500", "113725.862500", "113727.652500", "113726.060000", "113727.850000", "113726.457500", "113728.247500", "113726.657500", "113728.447500", "113726.855000", "113728.645000", "113727.055000", "113728.845000", "113726.260000", "113728.050000", "113725.465000", "113727.255000", "113725.662500", "113727.452500", "113725.862500", "113727.652500", "113726.060000", "113727.850000", "113726.457500", "113728.247500", "113726.657500", "113728.447500", "113726.855000", "113728.645000", "113727.055000", "113728.845000", "113726.260000", "113728.050000", "113725.465000", "113727.255000", "113725.662500", "113727.452500", "113725.862500", "113727.652500", "113726.060000", "113727.850000", "113726.457500", "113728.247500", "113726.657500", "113728.447500", "113726.855000", "113728.645000", "113727.055000", "113728.845000", "113726.260000", "113731.650000", "113729.065000", "113730.855000", "113729.262500", "113731.052500", "113729.462500", "113731.252500", "113729.660000", "113731.450000", "113730.057500", "113731.847500", "113730.257500", "113732.047500", "113730.455000", "113732.245000", "113730.655000", "113732.445000", "113729.860000", "113731.650000", "113729.065000", "113730.855000", "113729.262500", "113731.052500", "113729.462500", "113731.252500", "113729.660000", "113731.450000", "113730.057500", "113731.847500", "113730.257500", "113732.047500", "113730.455000", "113732.245000", "113730.655000", "113732.445000", "113729.860000", "113731.650000", "113729.065000", "113730.855000", "113729.262500", "113731.052500", "113729.462500", "113731.252500", "113729.660000", "113731.450000", "113730.057500", "113731.847500", "113730.257500", "113732.047500", "113730.455000", "113732.245000", "113730.655000", "113732.445000", "113729.860000", "113731.650000", "113729.065000", "113730.855000", "113729.262500", "113731.052500", "113729.462500", "113731.252500", "113729.660000", "113731.450000", "113730.057500", "113731.847500", "113730.257500", "113732.047500", "113730.455000", "113732.245000", "113730.655000", "113732.445000", "113729.860000", "113735.250000", "113732.665000", "113734.455000", "113732.862500", "113734.652500", "113733.062500", "113734.852500", "113733.260000", "113735.050000", "113733.657500", "113735.447500", "113733.857500", "113735.647500", "113734.055000", "113735.845000", "113734.255000", "113736.045000", "113733.460000", "113735.250000", "113732.665000", "113734.455000", "113732.862500", "113734.652500", "113733.062500", "113734.852500", "113733.260000", "113735.050000", "113733.657500", "113735.447500", "113733.857500", "113735.647500", "113734.055000", "113735.845000", "113734.255000", "113736.045000", "113733.460000", "113735.250000", "113732.665000", "113734.455000", "113732.862500", "113734.652500", "113733.062500", "113734.852500", "113733.260000", "113735.050000", "113733.657500", "113735.447500", "113733.857500", "113735.647500", "113734.055000", "113735.845000", "113734.255000", "113736.045000", "113733.460000", "113735.250000", "113732.665000", "113734.455000", "113732.862500", "113734.652500", "113733.062500", "113734.852500", "113733.260000", "113735.050000", "113733.657500", "113735.447500", "113733.857500", "113735.647500", "113734.055000", "113735.845000", "113734.255000", "113736.045000", "113733.460000", "113738.850000", "113736.265000", "113738.055000", "113736.462500", "113738.252500", "113736.662500", "113738.452500", "113736.860000", "113738.650000", "113737.257500", "113739.047500", "113737.457500", "113739.247500", "113737.655000", "113739.445000", "113737.855000", "113739.645000", "113737.060000", "113738.850000", "113736.265000", "113738.055000", "113736.462500", "113738.252500", "113736.662500", "113738.452500", "113736.860000", "113738.650000", "113737.257500", "113739.047500", "113737.457500", "113739.247500", "113737.655000", "113739.445000", "113737.855000", "113739.645000", "113737.060000", "113738.850000", "113736.265000", "113738.055000", "113736.462500", "113738.252500", "113736.662500", "113738.452500", "113736.860000", "113738.650000", "113737.257500", "113739.047500", "113737.457500", "113739.247500", "113737.655000", "113739.445000", "113737.855000", "113739.645000", "113737.060000", "113738.850000", "113736.265000", "113738.055000", "113736.462500", "113738.252500", "113736.662500", "113738.452500", "113736.860000", "113738.650000", "113737.257500", "113739.047500", "113737.457500", "113739.247500", "113737.655000", "113739.445000", "113737.855000", "113739.645000", "113737.060000", "113742.450000", "113739.865000", "113741.655000", "113740.062500", "113741.852500", "113740.262500", "113742.052500", "113740.460000", "113742.250000", "113740.857500", "113742.647500", "113741.057500", "113742.847500", "113741.255000", "113743.045000", "113741.455000", "113743.245000", "113740.660000", "113742.450000", "113739.865000", "113741.655000", "113740.062500", "113741.852500", "113740.262500", "113742.052500", "113740.460000", "113742.250000", "113740.857500", "113742.647500", "113741.057500", "113742.847500", "113741.255000", "113743.045000", "113741.455000", "113743.245000", "113740.660000", "113742.450000", "113739.865000", "113741.655000", "113740.062500", "113741.852500", "113740.262500", "113742.052500", "113740.460000", "113742.250000", "113740.857500", "113742.647500", "113741.057500", "113742.847500", "113741.255000", "113743.045000", "113741.455000", "113743.245000", "113740.660000", "113742.450000", "113739.865000", "113741.655000", "113740.062500", "113741.852500", "113740.262500", "113742.052500", "113740.460000", "113742.250000", "113740.857500", "113742.647500", "113741.057500", "113742.847500", "113741.255000", "113743.045000", "113741.455000", "113743.245000", "113740.660000", "113746.050000", "113743.465000", "113745.255000", "113743.662500", "113745.452500", "113743.862500", "113745.652500", "113744.060000", "113745.850000", "113744.457500", "113746.247500", "113744.657500", "113746.447500", "113744.855000", "113746.645000", "113745.055000", "113746.845000", "113744.260000", "113746.050000", "113743.465000", "113745.255000", "113743.662500", "113745.452500", "113743.862500", "113745.652500", "113744.060000", "113745.850000", "113744.457500", "113746.247500", "113744.657500", "113746.447500", "113744.855000", "113746.645000", "113745.055000", "113746.845000", "113744.260000", "113746.050000", "113743.465000", "113745.255000", "113743.662500", "113745.452500", "113743.862500", "113745.652500", "113744.060000", "113745.850000", "113744.457500", "113746.247500", "113744.657500", "113746.447500", "113744.855000", "113746.645000", "113745.055000", "113746.845000", "113744.260000", "113746.050000", "113743.465000", "113745.255000", "113743.662500", "113745.452500", "113743.862500", "113745.652500", "113744.060000", "113745.850000", "113744.457500", "113746.247500", "113744.657500", "113746.447500", "113744.855000", "113746.645000", "113745.055000", "113746.845000", "113744.260000", "113749.650000", "113747.065000", "113748.855000", "113747.262500", "113749.052500", "113747.462500", "113749.252500", "113747.660000", "113749.450000", "113748.057500", "113749.847500", "113748.257500", "113750.047500", "113748.455000", "113750.245000", "113748.655000", "113750.445000", "113747.860000", "113749.650000", "113747.065000", "113748.855000", "113747.262500", "113749.052500", "113747.462500", "113749.252500", "113747.660000", "113749.450000", "113748.057500", "113749.847500", "113748.257500", "113750.047500", "113748.455000", "113750.245000", "113748.655000", "113750.445000", "113747.860000", "113749.650000", "113747.065000", "113748.855000", "113747.262500", "113749.052500", "113747.462500", "113749.252500", "113747.660000", "113749.450000", "113748.057500", "113749.847500", "113748.257500", "113750.047500", "113748.455000", "113750.245000", "113748.655000", "113750.445000", "113747.860000", "113749.650000", "113747.065000", "113748.855000", "113747.262500", "113749.052500", "113747.462500", "113749.252500", "113747.660000", "113749.450000", "113748.057500", "113749.847500", "113748.257500", "113750.047500", "113748.455000", "113750.245000", "113748.655000", "113750.445000", "113747.860000", "113753.250000", "113750.665000", "113752.455000", "113750.862500", "113752.652500", "113751.062500", "113752.852500", "113751.260000", "113753.050000", "113751.657500", "113753.447500", "113751.857500", "113753.647500", "113752.055000", "113753.845000", "113752.255000", "113754.045000", "113751.460000", "113753.250000", "113750.665000", "113752.455000", "113750.862500", "113752.652500", "113751.062500", "113752.852500", "113751.260000", "113753.050000", "113751.657500", "113753.447500", "113751.857500", "113753.647500", "113752.055000", "113753.845000", "113752.255000", "113754.045000", "113751.460000", "113753.250000", "113750.665000", "113752.455000", "113750.862500", "113752.652500", "113751.062500", "113752.852500", "113751.260000", "113753.050000", "113751.657500", "113753.447500", "113751.857500", "113753.647500", "113752.055000", "113753.845000", "113752.255000", "113754.045000", "113751.460000", "113753.250000", "113750.665000", "113752.455000", "113750.862500", "113752.652500", "113751.062500", "113752.852500", "113751.260000", "113753.050000", "113751.657500", "113753.447500", "113751.857500", "113753.647500", "113752.055000", "113753.845000", "113752.255000", "113754.045000", "113751.460000", "113756.850000", "113754.265000", "113756.055000", "113754.462500", "113756.252500", "113754.662500", "113756.452500", "113754.860000", "113756.650000", "113755.257500", "113757.047500", "113755.457500", "113757.247500", "113755.655000", "113757.445000", "113755.855000", "113757.645000", "113755.060000", "113756.850000", "113754.265000", "113756.055000", "113754.462500", "113756.252500", "113754.662500", "113756.452500", "113754.860000", "113756.650000", "113755.257500", "113757.047500", "113755.457500", "113757.247500", "113755.655000", "113757.445000", "113755.855000", "113757.645000", "113755.060000", "113756.850000", "113754.265000", "113756.055000", "113754.462500", "113756.252500", "113754.662500", "113756.452500", "113754.860000", "113756.650000", "113755.257500", "113757.047500", "113755.457500", "113757.247500", "113755.655000", "113757.445000", "113755.855000", "113757.645000", "113755.060000", "113756.850000", "113754.265000", "113756.055000", "113754.462500", "113756.252500", "113754.662500", "113756.452500", "113754.860000", "113756.650000", "113755.257500", "113757.047500", "113755.457500", "113757.247500", "113755.655000", "113757.445000", "113755.855000", "113757.645000", "113755.060000", "113800.450000", "113757.865000", "113759.655000", "113758.062500", "113759.852500", "113758.262500", "113800.052500", "113758.460000", "113800.250000", "113758.857500", "113800.647500", "113759.057500", "113800.847500", "113759.255000", "113801.045000", "113759.455000", "113801.245000", "113758.660000", "113800.450000", "113757.865000", "113759.655000", "113758.062500", "113759.852500", "113758.262500", "113800.052500", "113758.460000", "113800.250000", "113758.857500", "113800.647500", "113759.057500", "113800.847500", "113759.255000", "113801.045000", "113759.455000", "113801.245000", "113758.660000", "113800.450000", "113757.865000", "113759.655000", "113758.062500", "113759.852500", "113758.262500", "113800.052500", "113758.460000", "113800.250000", "113758.857500", "113800.647500", "113759.057500", "113800.847500", "113759.255000", "113801.045000", "113759.455000", "113801.245000", "113758.660000", "113800.450000", "113757.865000", "113759.655000", "113758.062500", "113759.852500", "113758.262500", "113800.052500", "113758.460000", "113800.250000", "113758.857500", "113800.647500", "113759.057500", "113800.847500", "113759.255000", "113801.045000", "113759.455000", "113801.245000", "113758.660000", "113804.050000", "113801.465000", "113803.255000", "113801.662500", "113803.452500", "113801.862500", "113803.652500", "113802.060000", "113803.850000", "113802.457500", "113804.247500", "113802.657500", "113804.447500", "113802.855000", "113804.645000", "113803.055000", "113804.845000", "113802.260000", "113804.050000", "113801.465000", "113803.255000", "113801.662500", "113803.452500", "113801.862500", "113803.652500", "113802.060000", "113803.850000", "113802.457500", "113804.247500", "113802.657500", "113804.447500", "113802.855000", "113804.645000", "113803.055000", "113804.845000", "113802.260000", "113804.050000", "113801.465000", "113803.255000", "113801.662500", "113803.452500", "113801.862500", "113803.652500", "113802.060000", "113803.850000", "113802.457500", "113804.247500", "113802.657500", "113804.447500", "113802.855000", "113804.645000", "113803.055000", "113804.845000", "113802.260000", "113804.050000", "113801.465000", "113803.255000", "113801.662500", "113803.452500", "113801.862500", "113803.652500", "113802.060000", "113803.850000", "113802.457500", "113804.247500", "113802.657500", "113804.447500", "113802.855000", "113804.645000", "113803.055000", "113804.845000", "113802.260000", "113807.650000", "113805.065000", "113806.855000", "113805.262500", "113807.052500", "113805.462500", "113807.252500", "113805.660000", "113807.450000", "113806.057500", "113807.847500", "113806.257500", "113808.047500", "113806.455000", "113808.245000", "113806.655000", "113808.445000", "113805.860000", "113807.650000", "113805.065000", "113806.855000", "113805.262500", "113807.052500", "113805.462500", "113807.252500", "113805.660000", "113807.450000", "113806.057500", "113807.847500", "113806.257500", "113808.047500", "113806.455000", "113808.245000", "113806.655000", "113808.445000", "113805.860000", "113807.650000", "113805.065000", "113806.855000", "113805.262500", "113807.052500", "113805.462500", "113807.252500", "113805.660000", "113807.450000", "113806.057500", "113807.847500", "113806.257500", "113808.047500", "113806.455000", "113808.245000", "113806.655000", "113808.445000", "113805.860000", "113807.650000", "113805.065000", "113806.855000", "113805.262500", "113807.052500", "113805.462500", "113807.252500", "113805.660000", "113807.450000", "113806.057500", "113807.847500", "113806.257500", "113808.047500", "113806.455000", "113808.245000", "113806.655000", "113808.445000", "113805.860000", "113811.250000", "113808.665000", "113810.455000", "113808.862500", "113810.652500", "113809.062500", "113810.852500", "113809.260000", "113811.050000", "113809.657500", "113811.447500", "113809.857500", "113811.647500", "113810.055000", "113811.845000", "113810.255000", "113812.045000", "113809.460000", "113811.250000", "113808.665000", "113810.455000", "113808.862500", "113810.652500", "113809.062500", "113810.852500", "113809.260000", "113811.050000", "113809.657500", "113811.447500", "113809.857500", "113811.647500", "113810.055000", "113811.845000", "113810.255000", "113812.045000", "113809.460000", "113811.250000", "113808.665000", "113810.455000", "113808.862500", "113810.652500", "113809.062500", "113810.852500", "113809.260000", "113811.050000", "113809.657500", "113811.447500", "113809.857500", "113811.647500", "113810.055000", "113811.845000", "113810.255000", "113812.045000", "113809.460000", "113811.250000", "113808.665000", "113810.455000", "113808.862500", "113810.652500", "113809.062500", "113810.852500", "113809.260000", "113811.050000", "113809.657500", "113811.447500", "113809.857500", "113811.647500", "113810.055000", "113811.845000", "113810.255000", "113812.045000", "113809.460000", "113814.850000", "113812.265000", "113814.055000", "113812.462500", "113814.252500", "113812.662500", "113814.452500", "113812.860000", "113814.650000", "113813.257500", "113815.047500", "113813.457500", "113815.247500", "113813.655000", "113815.445000", "113813.855000", "113815.645000", "113813.060000", "113814.850000", "113812.265000", "113814.055000", "113812.462500", "113814.252500", "113812.662500", "113814.452500", "113812.860000", "113814.650000", "113813.257500", "113815.047500", "113813.457500", "113815.247500", "113813.655000", "113815.445000", "113813.855000", "113815.645000", "113813.060000", "113814.850000", "113812.265000", "113814.055000", "113812.462500", "113814.252500", "113812.662500", "113814.452500", "113812.860000", "113814.650000", "113813.257500", "113815.047500", "113813.457500", "113815.247500", "113813.655000", "113815.445000", "113813.855000", "113815.645000", "113813.060000", "113814.850000", "113812.265000", "113814.055000", "113812.462500", "113814.252500", "113812.662500", "113814.452500", "113812.860000", "113814.650000", "113813.257500", "113815.047500", "113813.457500", "113815.247500", "113813.655000", "113815.445000", "113813.855000", "113815.645000", "113813.060000", "113818.450000", "113815.865000", "113817.655000", "113816.062500", "113817.852500", "113816.262500", "113818.052500", "113816.460000", "113818.250000", "113816.857500", "113818.647500", "113817.057500", "113818.847500", "113817.255000", "113819.045000", "113817.455000", "113819.245000", "113816.660000", "113818.450000", "113815.865000", "113817.655000", "113816.062500", "113817.852500", "113816.262500", "113818.052500", "113816.460000", "113818.250000", "113816.857500", "113818.647500", "113817.057500", "113818.847500", "113817.255000", "113819.045000", "113817.455000", "113819.245000", "113816.660000", "113818.450000", "113815.865000", "113817.655000", "113816.062500", "113817.852500", "113816.262500", "113818.052500", "113816.460000", "113818.250000", "113816.857500", "113818.647500", "113817.057500", "113818.847500", "113817.255000", "113819.045000", "113817.455000", "113819.245000", "113816.660000", "113818.450000", "113815.865000", "113817.655000", "113816.062500", "113817.852500", "113816.262500", "113818.052500", "113816.460000", "113818.250000", "113816.857500", "113818.647500", "113817.057500", "113818.847500", "113817.255000", "113819.045000", "113817.455000", "113819.245000", "113816.660000", "113822.050000", "113819.465000", "113821.255000", "113819.662500", "113821.452500", "113819.862500", "113821.652500", "113820.060000", "113821.850000", "113820.457500", "113822.247500", "113820.657500", "113822.447500", "113820.855000", "113822.645000", "113821.055000", "113822.845000", "113820.260000", "113822.050000", "113819.465000", "113821.255000", "113819.662500", "113821.452500", "113819.862500", "113821.652500", "113820.060000", "113821.850000", "113820.457500", "113822.247500", "113820.657500", "113822.447500", "113820.855000", "113822.645000", "113821.055000", "113822.845000", "113820.260000", "113822.050000", "113819.465000", "113821.255000", "113819.662500", "113821.452500", "113819.862500", "113821.652500", "113820.060000", "113821.850000", "113820.457500", "113822.247500", "113820.657500", "113822.447500", "113820.855000", "113822.645000", "113821.055000", "113822.845000", "113820.260000", "113822.050000", "113819.465000", "113821.255000", "113819.662500", "113821.452500", "113819.862500", "113821.652500", "113820.060000", "113821.850000", "113820.457500", "113822.247500", "113820.657500", "113822.447500", "113820.855000", "113822.645000", "113821.055000", "113822.845000", "113820.260000", "113825.650000", "113823.065000", "113824.855000", "113823.262500", "113825.052500", "113823.462500", "113825.252500", "113823.660000", "113825.450000", "113824.057500", "113825.847500", "113824.257500", "113826.047500", "113824.455000", "113826.245000", "113824.655000", "113826.445000", "113823.860000", "113825.650000", "113823.065000", "113824.855000", "113823.262500", "113825.052500", "113823.462500", "113825.252500", "113823.660000", "113825.450000", "113824.057500", "113825.847500", "113824.257500", "113826.047500", "113824.455000", "113826.245000", "113824.655000", "113826.445000", "113823.860000", "113825.650000", "113823.065000", "113824.855000", "113823.262500", "113825.052500", "113823.462500", "113825.252500", "113823.660000", "113825.450000", "113824.057500", "113825.847500", "113824.257500", "113826.047500", "113824.455000", "113826.245000", "113824.655000", "113826.445000", "113823.860000", "113825.650000", "113823.065000", "113824.855000", "113823.262500", "113825.052500", "113823.462500", "113825.252500", "113823.660000", "113825.450000", "113824.057500", "113825.847500", "113824.257500", "113826.047500", "113824.455000", "113826.245000", "113824.655000", "113826.445000", "113823.860000", "113829.250000", "113826.665000", "113828.455000", "113826.862500", "113828.652500", "113827.062500", "113828.852500", "113827.260000", "113829.050000", "113827.657500", "113829.447500", "113827.857500", "113829.647500", "113828.055000", "113829.845000", "113828.255000", "113830.045000", "113827.460000", "113829.250000", "113826.665000", "113828.455000", "113826.862500", "113828.652500", "113827.062500", "113828.852500", "113827.260000", "113829.050000", "113827.657500", "113829.447500", "113827.857500", "113829.647500", "113828.055000", "113829.845000", "113828.255000", "113830.045000", "113827.460000", "113829.250000", "113826.665000", "113828.455000", "113826.862500", "113828.652500", "113827.062500", "113828.852500", "113827.260000", "113829.050000", "113827.657500", "113829.447500", "113827.857500", "113829.647500", "113828.055000", "113829.845000", "113828.255000", "113830.045000", "113827.460000", "113829.250000", "113826.665000", "113828.455000", "113826.862500", "113828.652500", "113827.062500", "113828.852500", "113827.260000", "113829.050000", "113827.657500", "113829.447500", "113827.857500", "113829.647500", "113828.055000", "113829.845000", "113828.255000", "113830.045000", "113827.460000", "113832.850000", "113830.265000", "113832.055000", "113830.462500", "113832.252500", "113830.662500", "113832.452500", "113830.860000", "113832.650000", "113831.257500", "113833.047500", "113831.457500", "113833.247500", "113831.655000", "113833.445000", "113831.855000", "113833.645000", "113831.060000", "113832.850000", "113830.265000", "113832.055000", "113830.462500", "113832.252500", "113830.662500", "113832.452500", "113830.860000", "113832.650000", "113831.257500", "113833.047500", "113831.457500", "113833.247500", "113831.655000", "113833.445000", "113831.855000", "113833.645000", "113831.060000", "113832.850000", "113830.265000", "113832.055000", "113830.462500", "113832.252500", "113830.662500", "113832.452500", "113830.860000", "113832.650000", "113831.257500", "113833.047500", "113831.457500", "113833.247500", "113831.655000", "113833.445000", "113831.855000", "113833.645000", "113831.060000", "113832.850000", "113830.265000", "113832.055000", "113830.462500", "113832.252500", "113830.662500", "113832.452500", "113830.860000", "113832.650000", "113831.257500", "113833.047500", "113831.457500",