{
  "AcquisitionMatrixPE": 80,
  "AcquisitionNumber": 1,
  "AcquisitionTime": "11:09:44.397500",
  "BandwidthPerPixelPhaseEncode": 25,
  "BaseResolution": 80,
  "BodyPartExamined": "BRAIN",
  "CoilCombinationMethod": "Sum of Squares",
  "ConsistencyInfo": "N4_VE11E_LATEST_20181129",
  "ConversionSoftware": "dcm2niix",
  "ConversionSoftwareVersion": "v1.0.20220720",
  "DerivedVendorReportedEchoSpacing": 0.0005,
  "DeviceSerialNumber": "66112",
  "DwellTime": 2.7e-06,
  "EchoTime": 0.03,
  "EchoTrainLength": 80,
  "EffectiveEchoSpacing": 0.0005,
  "FlipAngle": 77,
  "HeudiconvVersion": "0.13.1",
  "ImageOrientationPatientDICOM": [0.991139, 0.132704, 0.00581203, -0.128199, 0.944204, 0.303387],
  "ImageOrientationText": "Tra>Cor(17.6)>Sag(-2.0)",
  "ImageType": [
    "ORIGINAL",
    "PRIMARY",
    "M",
    "ND",
    "NORM",
    "MOSAIC"
],
  "ImagingFrequency": 123.259,
  "InPlanePhaseEncodingDirectionDICOM": "COL",
  "InstitutionAddress": "Maynard 3,Hanover,NH,US,03755",
  "InstitutionName": "Dartmouth College - PBS",
  "InstitutionalDepartmentName": "Department",
  "MRAcquisitionType": "2D",
  "MagneticFieldStrength": 3,
  "Manufacturer": "Siemens",
  "ManufacturersModelName": "Prisma",
  "MatrixCoilMode": "SENSE",
  "Modality": "MR",
  "NonlinearGradientCorrection": false,
  "PartialFourier": 1,
  "PatientPosition": "HFS",
  "PercentPhaseFOV": 100,
  "PercentSampling": 100,
  "PhaseEncodingDirection": "j-",
  "PhaseEncodingSteps": 80,
  "PhaseResolution": 1,
  "PixelBandwidth": 2315,
  "ProcedureStepDescription": "dbic^QA",
  "ProtocolName": "func-bold_fa-77",
  "PulseSequenceDetails": "%SiemensSeq%\\ep2d_bold",
  "ReceiveCoilActiveElements": "HEA;HEP",
  "ReceiveCoilName": "Head_32",
  "ReconMatrixPE": 80,
  "RepetitionTime": 2,
  "SAR": 0.0463857,
  "ScanOptions": "FS",
  "ScanningSequence": "EP",
  "SequenceName": "*epfid2d1_80",
  "SequenceVariant": "SK",
  "SeriesDescription": "func-bold_fa-77",
  "SeriesNumber": 8,
  "ShimSetting": [4220, -7739, -7478, 11, -138, -71, -15, 58],
  "SliceThickness": 3.5,
  "SliceTiming": [0.99, 0, 1.0575, 0.0675, 1.1225, 0.1325, 1.1875, 0.1975, 1.255, 0.265, 1.32, 0.33, 1.3875, 0.3975, 1.4525, 0.4625, 1.5175, 0.5275, 1.585, 0.595, 1.65, 0.66, 1.7175, 0.7275, 1.7825, 0.7925, 1.8475, 0.8575, 1.915, 0.925],
  "SoftwareVersions": "syngo MR E11",
  "SpacingBetweenSlices": 3.99,
  "StationName": "AWP66112",
  "TotalReadoutTime": 0.0395,
  "TxRefAmp": 233.683,
  "dcmmeta_affine": [
    [-2.9734160900115967, -0.3845961391925812, -0.13874377310276031, 136.87826538085938],
    [-0.3981112241744995, 2.8326122760772705, 1.202761173248291, -114.42716979980469],
    [0.017436088994145393, -0.9101616144180298, 3.801870107650757, -10.183036804199219],
    [0.0, 0.0, 0.0, 1.0]
],
  "dcmmeta_reorient_transform": [
    [0.0, -1.0, 0.0, 79.0],
    [1.0, 0.0, 0.0, 0.0],
    [0.0, 0.0, 1.0, 0.0],
    [0.0, 0.0, 0.0, 1.0]
],
  "dcmmeta_shape": [80, 80, 30, 200],
  "dcmmeta_slice_dim": 2,
  "dcmmeta_version": 0.6,
  "global": {
    "const": {
      "AccessionNumber": "qa",
      "AcquisitionMatrix": [80, 0, 0, 80],
      "AngioFlag": "N",
      "BitsAllocated": 16,
      "BitsStored": 12,
      "BodyPartExamined": "BRAIN",
      "Columns": 480,
      "EchoNumbers": 1,
      "EchoTime": 30.0,
      "EchoTrainLength": 80,
      "FlipAngle": 77.0,
      "HighBit": 11,
      "ImageOrientationPatient": [0.99113870749998, 0.13270374073806, 0.00581202971356, -0.1281987117207, 0.94420405413761, 0.30338720220742],
      "ImagePositionPatient": [-624.25916284584, -755.49386873443, -267.60534242988],
      "ImageType": [
        "ORIGINAL",
        "PRIMARY",
        "M",
        "ND",
        "NORM",
        "MOSAIC"
],
      "ImagedNucleus": "1H",
      "ImagingFrequency": 123.259229,
      "InPlanePhaseEncodingDirection": "COL",
      "MRAcquisitionType": "2D",
      "MagneticFieldStrength": 3.0,
      "Manufacturer": "SIEMENS",
      "ManufacturerModelName": "Prisma",
      "Modality": "MR",
      "NumberOfAverages": 1.0,
      "NumberOfPhaseEncodingSteps": 80,
      "PercentPhaseFieldOfView": 100.0,
      "PercentSampling": 100.0,
      "PerformedProcedureStepStartTime": "104240.955000",
      "PhotometricInterpretation": "MONOCHROME2",
      "PixelBandwidth": 2315.0,
      "PixelRepresentation": 0,
      "PixelSpacing": [3.0, 3.0],
      "ProtocolName": "func-bold_fa-77",
      "RepetitionTime": 2000.0,
      "Rows": 480,
      "SAR": 0.04638565778939,
      "SamplesPerPixel": 1,
      "ScanOptions": "FS",
      "ScanningSequence": "EP",
      "SequenceName": "*epfid2d1_80",
      "SequenceVariant": "SK",
      "SeriesDescription": "func-bold_fa-77",
      "SeriesNumber": 8,
      "SeriesTime": "111024.797000",
      "SliceLocation": -48.955924471775,
      "SliceThickness": 3.5,
      "SmallestImagePixelValue": 0,
      "SoftwareVersions": "syngo MR E11",
      "SpacingBetweenSlices": 3.9900001094739,
      "SpecificCharacterSet": "ISO_IR 100",
      "StudyID": "21",
      "StudyTime": "104240.902000",
      "TransmitCoilName": "Body",
      "VariableFlipAngleFlag": "N",
      "WindowCenterWidthExplanation": "Algo1"
    },
    "slices": {}
  },
  "time": {
    "samples": {
      "AcquisitionNumber": [1, 2, 3, 4, 5, 6, 7, 8, 9, 10, 11, 12, 13, 14, 15, 16, 17, 18, 19, 20, 21, 22, 23, 24, 25, 26, 27, 28, 29, 30, 31, 32, 33, 34, 35, 36, 37, 38, 39, 40, 41, 42, 43, 44, 45, 46, 47, 48, 49, 50, 51, 52, 53, 54, 55, 56, 57, 58, 59, 60, 61, 62, 63, 64, 65, 66, 67, 68, 69, 70, 71, 72, 73, 74, 75, 76, 77, 78, 79, 80, 81, 82, 83, 84, 85, 86, 87, 88, 89, 90, 91, 92, 93, 94, 95, 96, 97, 98, 99, 100, 101, 102, 103, 104, 105, 106, 107, 108, 109, 110, 111, 112, 113, 114, 115, 116, 117, 118, 119, 120, 121, 122, 123, 124, 125, 126, 127, 128, 129, 130, 131, 132, 133, 134, 135, 136, 137, 138, 139, 140, 141, 142, 143, 144, 145, 146, 147, 148, 149, 150, 151, 152, 153, 154, 155, 156, 157, 158, 159, 160, 161, 162, 163, 164, 165, 166, 167, 168, 169, 170, 171, 172, 173, 174, 175, 176, 177, 178, 179, 180, 181, 182, 183, 184, 185, 186, 187, 188, 189, 190, 191, 192, 193, 194, 195, 196, 197, 198, 199, 200],
      "AcquisitionTime": ["110944.397500", "110946.397500", "110948.397500", "110950.397500", "110952.397500", "110954.397500", "110956.397500", "110958.397500", "111000.397500", "111002.397500", "111004.397500", "111006.397500", "111008.397500", "111010.397500", "111012.397500", "111014.397500", "111016.397500", "111018.397500", "111020.397500", "111022.397500", "111024.397500", "111026.397500", "111028.397500", "111030.397500", "111032.397500", "111034.397500", "111036.397500", "111038.397500", "111040.397500", "111042.397500", "111044.397500", "111046.397500", "111048.397500", "111050.397500", "111052.397500", "111054.397500", "111056.397500", "111058.397500", "111100.397500", "111102.397500", "111104.397500", "111106.397500", "111108.397500", "111110.397500", "111112.397500", "111114.397500", "111116.397500", "111118.397500", "111120.397500", "111122.397500", "111124.397500", "111126.397500", "111128.397500", "111130.397500", "111132.397500", "111134.397500", "111136.397500", "111138.397500", "111140.397500", "111142.397500", "111144.397500", "111146.397500", "111148.397500", "111150.397500", "111152.397500", "111154.397500", "111156.397500", "111158.397500", "111200.397500", "111202.397500", "111204.397500", "111206.397500", "111208.397500", "111210.397500", "111212.397500", "111214.397500", "111216.397500", "111218.397500", "111220.397500", "111222.397500", "111224.397500", "111226.397500", "111228.397500", "111230.397500", "111232.397500", "111234.397500", "111236.397500", "111238.397500", "111240.397500", "111242.397500", "111244.397500", "111246.397500", "111248.397500", "111250.397500", "111252.397500", "111254.397500", "111256.397500", "111258.397500", "111300.397500", "111302.397500", "111304.397500", "111306.397500", "111308.397500", "111310.397500", "111312.397500", "111314.397500", "111316.397500", "111318.397500", "111320.397500", "111322.397500", "111324.397500", "111326.397500", "111328.397500", "111330.397500", "111332.397500", "111334.397500", "111336.397500", "111338.397500", "111340.397500", "111342.397500", "111344.397500", "111346.397500", "111348.397500", "111350.397500", "111352.397500", "111354.397500", "111356.397500", "111358.397500", "111400.397500", "111402.397500", "111404.397500", "111406.397500", "111408.397500", "111410.397500", "111412.397500", "111414.397500", "111416.397500", "111418.397500", "111420.397500", "111422.397500", "111424.397500", "111426.397500", "111428.397500", "111430.397500", "111432.397500", "111434.397500", "111436.397500", "111438.397500", "111440.397500", "111442.397500", "111444.397500", "111446.397500", "111448.397500", "111450.397500", "111452.397500", "111454.397500", "111456.397500", "111458.397500", "111500.397500", "111502.397500", "111504.397500", "111506.397500", "111508.397500", "111510.397500", "111512.397500", "111514.397500", "111516.397500", "111518.397500", "111520.397500", "111522.397500", "111524.397500", "111526.397500", "111528.397500", "111530.397500", "111532.397500", "111534.397500", "111536.397500", "111538.397500", "111540.397500", "111542.397500", "111544.397500", "111546.397500", "111548.397500", "111550.397500", "111552.397500", "111554.397500", "111556.397500", "111558.397500", "111600.397500", "111602.397500", "111604.397500", "111606.397500", "111608.397500", "111610.397500", "111612.397500", "111614.397500", "111616.397500", "111618.397500", "111620.397500", "111622.397500"],
      "ContentTime": ["111024.801000", "111024.804000", "111024.806000", "111024.808000", "111024.810000", "111024.813000", "111024.815000", "111024.817000", "111024.820000", "111024.822000", "111024.832000", "111024.835000", "111024.837000", "111024.839000", "111024.841000", "111024.844000", "111024.850000", "111024.852000", "111024.855000", "111024.857000", "111104.795000", "111104.798000", "111104.800000", "111104.803000", "111104.805000", "111104.807000", "111104.810000", "111104.812000", "111104.814000", "111104.816000", "111104.819000", "111104.821000", "111104.823000", "111104.832000", "111104.834000", "111104.837000", "111104.839000", "111104.841000", "111104.844000", "111104.846000", "111144.796000", "111144.799000", "111144.801000", "111144.804000", "111144.806000", "111144.808000", "111144.811000", "111144.813000", "111144.815000", "111144.818000", "111144.820000", "111144.822000", "111144.824000", "111144.827000", "111144.829000", "111144.831000", "111144.833000", "111144.836000", "111144.838000", "111144.840000", "111224.796000", "111224.799000", "111224.801000", "111224.803000", "111224.806000", "111224.808000", "111224.810000", "111224.813000", "111224.815000", "111224.817000", "111224.820000", "111224.822000", "111224.824000", "111224.826000", "111224.829000", "111224.831000", "111224.833000", "111224.835000", "111224.838000", "111224.840000", "111304.796000", "111304.799000", "111304.801000", "111304.803000", "111304.806000", "111304.808000", "111304.810000", "111304.813000", "111304.815000", "111304.817000", "111304.820000", "111304.822000", "111304.824000", "111304.827000", "111304.829000", "111304.831000", "111304.834000", "111304.836000", "111304.838000", "111304.840000", "111344.796000", "111344.799000", "111344.801000", "111344.803000", "111344.806000", "111344.808000", "111344.810000", "111344.812000", "111344.815000", "111344.817000", "111344.819000", "111344.822000", "111344.824000", "111344.826000", "111344.829000", "111344.831000", "111344.833000", "111344.836000", "111344.838000", "111344.840000", "111424.796000", "111424.799000", "111424.801000", "111424.804000", "111424.806000", "111424.808000", "111424.810000", "111424.813000", "111424.815000", "111424.817000", "111424.820000", "111424.822000", "111424.824000", "111424.826000", "111424.829000", "111424.831000", "111424.833000", "111424.836000", "111424.838000", "111424.840000", "111504.796000", "111504.799000", "111504.801000", "111504.803000", "111504.806000", "111504.808000", "111504.810000", "111504.813000", "111504.815000", "111504.817000", "111504.819000", "111504.822000", "111504.824000", "111504.826000", "111504.829000", "111504.831000", "111504.833000", "111504.836000", "111504.838000", "111504.840000", "111544.795000", "111544.798000", "111544.800000", "111544.803000", "111544.805000", "111544.807000", "111544.809000", "111544.812000", "111544.814000", "111544.816000", "111544.819000", "111544.821000", "111544.823000", "111544.825000", "111544.828000", "111544.830000", "111544.832000", "111544.834000", "111544.837000", "111544.839000", "111623.682000", "111623.685000", "111623.687000", "111623.690000", "111623.692000", "111623.694000", "111623.697000", "111623.699000", "111623.701000", "111623.704000", "111623.706000", "111623.708000", "111623.711000", "111623.713000", "111623.715000", "111623.718000", "111623.720000", "111623.723000", "111623.725000", "111623.727000"],
      "InstanceCreationTime": ["111024.801000", "111024.804000", "111024.806000", "111024.808000", "111024.810000", "111024.813000", "111024.815000", "111024.817000", "111024.820000", "111024.822000", "111024.832000", "111024.835000", "111024.837000", "111024.839000", "111024.841000", "111024.844000", "111024.850000", "111024.852000", "111024.855000", "111024.857000", "111104.795000", "111104.798000", "111104.800000", "111104.803000", "111104.805000", "111104.807000", "111104.810000", "111104.812000", "111104.814000", "111104.816000", "111104.819000", "111104.821000", "111104.823000", "111104.832000", "111104.834000", "111104.837000", "111104.839000", "111104.841000", "111104.844000", "111104.846000", "111144.796000", "111144.799000", "111144.801000", "111144.804000", "111144.806000", "111144.808000", "111144.811000", "111144.813000", "111144.815000", "111144.818000", "111144.820000", "111144.822000", "111144.824000", "111144.827000", "111144.829000", "111144.831000", "111144.833000", "111144.836000", "111144.838000", "111144.840000", "111224.796000", "111224.799000", "111224.801000", "111224.803000", "111224.806000", "111224.808000", "111224.810000", "111224.813000", "111224.815000", "111224.817000", "111224.820000", "111224.822000", "111224.824000", "111224.826000", "111224.829000", "111224.831000", "111224.833000", "111224.835000", "111224.838000", "111224.840000", "111304.796000", "111304.799000", "111304.801000", "111304.803000", "111304.806000", "111304.808000", "111304.810000", "111304.813000", "111304.815000", "111304.817000", "111304.820000", "111304.822000", "111304.824000", "111304.827000", "111304.829000", "111304.831000", "111304.834000", "111304.836000", "111304.838000", "111304.840000", "111344.796000", "111344.799000", "111344.801000", "111344.803000", "111344.806000", "111344.808000", "111344.810000", "111344.812000", "111344.815000", "111344.817000", "111344.819000", "111344.822000", "111344.824000", "111344.826000", "111344.829000", "111344.831000", "111344.833000", "111344.836000", "111344.838000", "111344.840000", "111424.796000", "111424.799000", "111424.801000", "111424.804000", "111424.806000", "111424.808000", "111424.810000", "111424.813000", "111424.815000", "111424.817000", "111424.820000", "111424.822000", "111424.824000", "111424.826000", "111424.829000", "111424.831000", "111424.833000", "111424.836000", "111424.838000", "111424.840000", "111504.796000", "111504.799000", "111504.801000", "111504.803000", "111504.806000", "111504.808000", "111504.810000", "111504.813000", "111504.815000", "111504.817000", "111504.819000", "111504.822000", "111504.824000", "111504.826000", "111504.829000", "111504.831000", "111504.833000", "111504.836000", "111504.838000", "111504.840000", "111544.795000", "111544.798000", "111544.800000", "111544.803000", "111544.805000", "111544.807000", "111544.809000", "111544.812000", "111544.814000", "111544.816000", "111544.819000", "111544.821000", "111544.823000", "111544.825000", "111544.828000", "111544.830000", "111544.832000", "111544.834000", "111544.837000", "111544.839000", "111623.682000", "111623.685000", "111623.687000", "111623.690000", "111623.692000", "111623.694000", "111623.697000", "111623.699000", "111623.701000", "111623.704000", "111623.706000", "111623.708000", "111623.711000", "111623.713000", "111623.715000", "111623.718000", "111623.720000", "111623.723000", "111623.725000", "111623.727000"],
      "InstanceNumber": [1, 2, 3, 4, 5, 6, 7, 8, 9, 10, 11, 12, 13, 14, 15, 16, 17, 18, 19, 20, 21, 22, 23, 24, 25, 26, 27, 28, 29, 30, 31, 32, 33, 34, 35, 36, 37, 38, 39, 40, 41, 42, 43, 44, 45, 46, 47, 48, 49, 50, 51, 52, 53, 54, 55, 56, 57, 58, 59, 60, 61, 62, 63, 64, 65, 66, 67, 68, 69, 70, 71, 72, 73, 74, 75, 76, 77, 78, 79, 80, 81, 82, 83, 84, 85, 86, 87, 88, 89, 90, 91, 92, 93, 94, 95, 96, 97, 98, 99, 100, 101, 102, 103, 104, 105, 106, 107, 108, 109, 110, 111, 112, 113, 114, 115, 116, 117, 118, 119, 120, 121, 122, 123, 124, 125, 126, 127, 128, 129, 130, 131, 132, 133, 134, 135, 136, 137, 138, 139, 140, 141, 142, 143, 144, 145, 146, 147, 148, 149, 150, 151, 152, 153, 154, 155, 156, 157, 158, 159, 160, 161, 162, 163, 164, 165, 166, 167, 168, 169, 170, 171, 172, 173, 174, 175, 176, 177, 178, 179, 180, 181, 182, 183, 184, 185, 186, 187, 188, 189, 190, 191, 192, 193, 194, 195, 196, 197, 198, 199, 200],
      "LargestImagePixelValue": [2159, 2160, 2160, 2160, 2159, 2161, 2160, 2159, 2159, 2159, 2162, 2161, 2160, 2158, 2159, 2161, 2160, 2160, 2161, 2159, 2159, 2158, 2158, 2161, 2159, 2159, 2157, 2158, 2160, 2157, 2159, 2157, 2159, 2158, 2158, 2159, 2159, 2158, 2158, 2158, 2157, 2157, 2158, 2159, 2158, 2160, 2158, 2158, 2159, 2157, 2159, 2159, 2158, 2158, 2160, 2158, 2158, 2156, 2157, 2160, 2160, 2158, 2159, 2159, 2159, 2161, 2158, 2158, 2159, 2158, 2160, 2159, 2159, 2158, 2158, 2157, 2159, 2157, 2159, 2158, 2158, 2157, 2159, 2157, 2158, 2158, 2159, 2158, 2160, 2160, 2158, 2160, 2158, 2159, 2159, 2160, 2158, 2156, 2159, 2159, 2157, 2158, 2158, 2157, 2159, 2159, 2160, 2158, 2162, 2158, 2160, 2158, 2159, 2159, 2158, 2156, 2156, 2158, 2158, 2157, 2158, 2157, 2156, 2156, 2158, 2157, 2157, 2158, 2158, 2156, 2158, 2158, 2157, 2158, 2159, 2160, 2157, 2157, 2157, 2157, 2160, 2156, 2155, 2156, 2156, 2156, 2155, 2155, 2159, 2158, 2155, 2157, 2155, 2159, 2156, 2157, 2156, 2155, 2157, 2158, 2158, 2157, 2155, 2159, 2154, 2154, 2158, 2156, 2155, 2155, 2155, 2155, 2158, 2155, 2157, 2158, 2156, 2157, 2159, 2157, 2156, 2156, 2157, 2158, 2158, 2156, 2157, 2158, 2155, 2154, 2156, 2155, 2156, 2154, 2156, 2155, 2153, 2155, 2154, 2155],
      "WindowCenter": [1020.0, 1020.0, 1020.0, 1020.0, 1019.0, 1020.0, 1020.0, 1020.0, 1020.0, 1020.0, 1021.0, 1019.0, 1020.0, 1019.0, 1020.0, 1019.0, 1020.0, 1019.0, 1020.0, 1020.0, 1020.0, 1020.0, 1019.0, 1019.0, 1019.0, 1019.0, 1020.0, 1019.0, 1019.0, 1019.0, 1018.0, 1018.0, 1019.0, 1020.0, 1019.0, 1018.0, 1019.0, 1019.0, 1019.0, 1019.0, 1018.0, 1019.0, 1019.0, 1019.0, 1019.0, 1020.0, 1018.0, 1019.0, 1019.0, 1018.0, 1018.0, 1019.0, 1019.0, 1020.0, 1018.0, 1019.0, 1018.0, 1019.0, 1019.0, 1019.0, 1018.0, 1019.0, 1019.0, 1019.0, 1019.0, 1019.0, 1018.0, 1019.0, 1018.0, 1019.0, 1019.0, 1019.0, 1019.0, 1019.0, 1019.0, 1019.0, 1018.0, 1019.0, 1019.0, 1019.0, 1019.0, 1018.0, 1019.0, 1019.0, 1018.0, 1018.0, 1019.0, 1019.0, 1019.0, 1019.0, 1019.0, 1019.0, 1019.0, 1019.0, 1019.0, 1019.0, 1019.0, 1018.0, 1019.0, 1019.0, 1019.0, 1019.0, 1020.0, 1019.0, 1019.0, 1018.0, 1019.0, 1019.0, 1019.0, 1019.0, 1019.0, 1019.0, 1019.0, 1018.0, 1019.0, 1019.0, 1019.0, 1018.0, 1019.0, 1018.0, 1019.0, 1018.0, 1019.0, 1018.0, 1019.0, 1019.0, 1019.0, 1019.0, 1019.0, 1018.0, 1018.0, 1018.0, 1018.0, 1019.0, 1018.0, 1019.0, 1019.0, 1019.0, 1019.0, 1018.0, 1019.0, 1018.0, 1018.0, 1018.0, 1018.0, 1019.0, 1018.0, 1018.0, 1018.0, 1019.0, 1018.0, 1019.0, 1018.0, 1018.0, 1018.0, 1017.0, 1017.0, 1018.0, 1018.0, 1018.0, 1018.0, 1018.0, 1018.0, 1018.0, 1018.0, 1017.0, 1018.0, 1018.0, 1017.0, 1018.0, 1018.0, 1018.0, 1018.0, 1018.0, 1018.0, 1018.0, 1018.0, 1018.0, 1018.0, 1018.0, 1017.0, 1018.0, 1017.0, 1018.0, 1018.0, 1018.0, 1017.0, 1018.0, 1018.0, 1018.0, 1018.0, 1017.0, 1017.0, 1018.0, 1018.0, 1018.0, 1018.0, 1018.0, 1018.0, 1018.0],
      "WindowWidth": [2274.0, 2275.0, 2275.0, 2275.0, 2274.0, 2275.0, 2275.0, 2275.0, 2275.0, 2275.0, 2276.0, 2274.0, 2275.0, 2274.0, 2275.0, 2274.0, 2274.0, 2274.0, 2274.0, 2274.0, 2275.0, 2274.0, 2274.0, 2275.0, 2275.0, 2274.0, 2275.0, 2275.0, 2275.0, 2275.0, 2274.0, 2274.0, 2275.0, 2276.0, 2275.0, 2274.0, 2275.0, 2274.0, 2274.0, 2275.0, 2274.0, 2275.0, 2275.0, 2275.0, 2275.0, 2275.0, 2273.0, 2275.0, 2275.0, 2274.0, 2273.0, 2274.0, 2275.0, 2275.0, 2274.0, 2275.0, 2274.0, 2274.0, 2274.0, 2275.0, 2274.0, 2275.0, 2274.0, 2274.0, 2274.0, 2274.0, 2273.0, 2274.0, 2273.0, 2274.0, 2274.0, 2274.0, 2274.0, 2274.0, 2274.0, 2274.0, 2273.0, 2274.0, 2274.0, 2274.0, 2274.0, 2273.0, 2274.0, 2274.0, 2273.0, 2273.0, 2274.0, 2274.0, 2274.0, 2274.0, 2274.0, 2274.0, 2274.0, 2274.0, 2274.0, 2274.0, 2274.0, 2273.0, 2274.0, 2274.0, 2274.0, 2274.0, 2274.0, 2274.0, 2274.0, 2273.0, 2274.0, 2274.0, 2274.0, 2274.0, 2274.0, 2273.0, 2274.0, 2273.0, 2274.0, 2274.0, 2273.0, 2273.0, 2273.0, 2273.0, 2273.0, 2273.0, 2273.0, 2273.0, 2273.0, 2273.0, 2273.0, 2273.0, 2273.0, 2273.0, 2273.0, 2273.0, 2273.0, 2273.0, 2273.0, 2273.0, 2273.0, 2273.0, 2273.0, 2273.0, 2273.0, 2273.0, 2273.0, 2273.0, 2273.0, 2273.0, 2273.0, 2272.0, 2272.0, 2273.0, 2272.0, 2273.0, 2273.0, 2273.0, 2273.0, 2272.0, 2272.0, 2273.0, 2273.0, 2272.0, 2272.0, 2273.0, 2273.0, 2273.0, 2273.0, 2272.0, 2273.0, 2273.0, 2272.0, 2273.0, 2272.0, 2272.0, 2273.0, 2272.0, 2273.0, 2273.0, 2273.0, 2273.0, 2273.0, 2273.0, 2272.0, 2272.0, 2272.0, 2273.0, 2272.0, 2272.0, 2272.0, 2272.0, 2273.0, 2272.0, 2272.0, 2271.0, 2272.0, 2272.0, 2272.0, 2272.0, 2272.0, 2272.0, 2272.0, 2272.0]
    },
    "slices": {}
  }
}