{
  "AcquisitionMatrixPE": 122,
  "AcquisitionNumber": 1,
  "AcquisitionTime": "09:10:16.112500",
  "BandwidthPerPixelPhaseEncode": 28.76,
  "BaseResolution": 122,
  "BodyPartExamined": "BRAIN",
  "CoilCombinationMethod": "Adaptive Combine",
  "ConsistencyInfo": "N4_VE11C_LATEST_20160120",
  "ConversionSoftware": "dcm2niix",
  "ConversionSoftwareVersion": "v1.0.20220720",
  "DerivedVendorReportedEchoSpacing": 0.000570008,
  "DeviceSerialNumber": "66112",
  "DiffusionScheme": "Monopolar",
  "DwellTime": 2e-06,
  "EchoTime": 0.075,
  "EchoTrainLength": 61,
  "EffectiveEchoSpacing": 0.000285004,
  "FlipAngle": 90,
  "HeudiconvVersion": "0.13.1",
  "ImageOrientationPatientDICOM": [0.978106, 0.207907, 0.00909286, -0.200776, 0.931266, 0.304028],
  "ImageOrientationText": "Tra>Cor(17.4)>Sag(-3.1)",
  "ImageType": [
    "ORIGINAL",
    "PRIMARY",
    "DIFFUSION",
    "NONE",
    "ND",
    "NORM"
],
  "ImagingFrequency": 123.252,
  "InPlanePhaseEncodingDirectionDICOM": "COL",
  "InstitutionAddress": "Maynard 3,Hanover,NH,US,03755",
  "InstitutionName": "Dartmouth College - PBS",
  "InstitutionalDepartmentName": "Department",
  "MRAcquisitionType": "2D",
  "MagneticFieldStrength": 3,
  "Manufacturer": "Siemens",
  "ManufacturersModelName": "Prisma",
  "MatrixCoilMode": "GRAPPA",
  "Modality": "MR",
  "NonlinearGradientCorrection": false,
  "ParallelReductionFactorInPlane": 2,
  "PartialFourier": 1,
  "PatientPosition": "HFS",
  "PercentPhaseFOV": 100,
  "PercentSampling": 100,
  "PhaseEncodingDirection": "j-",
  "PhaseEncodingSteps": 122,
  "PhaseResolution": 1,
  "PixelBandwidth": 2050,
  "ProcedureStepDescription": "dbic^QA",
  "ProtocolName": "dwi_acq-DTI-30-p2",
  "PulseSequenceDetails": "%SiemensSeq%\\ep2d_diff",
  "ReceiveCoilActiveElements": "HEA;HEP",
  "ReceiveCoilName": "Head_32",
  "ReconMatrixPE": 122,
  "RefLinesPE": 38,
  "RepetitionTime": 7.7,
  "SAR": 0.102132,
  "ScanOptions": "FS",
  "ScanningSequence": "EP",
  "SequenceName": "*ep_b0",
  "SequenceVariant": "SK\\SP",
  "SeriesDescription": "dwi_acq-DTI-30-p2",
  "SeriesNumber": 8,
  "ShimSetting": [4149, -7698, -7521, 280, -30, -112, -67, 22],
  "SliceThickness": 2,
  "SliceTiming": [3.83594, 0, 3.94531, 0.10938, 4.05469, 0.21875, 4.16406, 0.32812, 4.27344, 0.4375, 4.38281, 0.54688, 4.5, 0.65625, 4.60938, 0.76562, 4.71875, 0.875, 4.82031, 0.98438, 4.9375, 1.09375, 5.04688, 1.20312, 5.15625, 1.3125, 5.26562, 1.42188, 5.375, 1.53125, 5.48438, 1.64062, 5.59375, 1.75781, 5.70312, 1.86719, 5.8125, 1.96875, 5.92188, 2.07812, 6.03125, 2.19531, 6.14062, 2.30469, 6.25, 2.41406, 6.35938, 2.52344, 6.46875, 2.63281, 6.57812, 2.74219, 6.6875, 2.85156, 6.79688, 2.96094, 6.90625, 3.07031, 7.01562, 3.17969, 7.13281, 3.28906, 7.24219, 3.39844, 7.35156, 3.50781, 7.46094, 3.61719, 7.57031, 3.72656],
  "SoftwareVersions": "syngo MR E11",
  "SpacingBetweenSlices": 2,
  "SpoilingState": true,
  "StationName": "AWP66112",
  "TotalReadoutTime": 0.0344855,
  "TxRefAmp": 232.82,
  "dcmmeta_affine": [
    [-1.9241437911987305, -0.39496999979019165, -0.10948324203491211, 153.60684204101562],
    [-0.40899643301963806, 1.8319982290267944, 0.5983943939208984, -103.51731872558594],
    [0.01788758486509323, -0.5980876684188843, 1.9052391052246094, -48.15699005126953],
    [0.0, 0.0, 0.0, 1.0]
],
  "dcmmeta_reorient_transform": [
    [0.0, -1.0, 0.0, 121.0],
    [1.0, 0.0, 0.0, 0.0],
    [0.0, 0.0, -1.0, 69.0],
    [0.0, 0.0, 0.0, 1.0]
],
  "dcmmeta_shape": [122, 122, 70, 31],
  "dcmmeta_slice_dim": 2,
  "dcmmeta_version": 0.6,
  "global": {
    "const": {
      "AccessionNumber": "qa",
      "AcquisitionMatrix": [122, 0, 0, 122],
      "AngioFlag": "N",
      "BitsAllocated": 16,
      "BitsStored": 12,
      "BodyPartExamined": "BRAIN",
      "Columns": 122,
      "EchoNumbers": 1,
      "EchoTime": 75.0,
      "EchoTrainLength": 61,
      "FlipAngle": 90.0,
      "HighBit": 11,
      "ImageOrientationPatient": [0.97810643675682, 0.20790651348472, 0.00909285573988, -0.2007764060673, 0.93126574150973, 0.3040278826967],
      "ImageType": [
        "ORIGINAL",
        "PRIMARY",
        "DIFFUSION",
        "NONE",
        "ND",
        "NORM"
],
      "ImagedNucleus": "1H",
      "ImagingFrequency": 123.252472,
      "InPlanePhaseEncodingDirection": "COL",
      "MRAcquisitionType": "2D",
      "MagneticFieldStrength": 3.0,
      "Manufacturer": "SIEMENS",
      "ManufacturerModelName": "Prisma",
      "Modality": "MR",
      "NumberOfAverages": 1.0,
      "NumberOfPhaseEncodingSteps": 122,
      "PercentPhaseFieldOfView": 100.0,
      "PercentSampling": 100.0,
      "PerformedProcedureStepStartTime": "085129.141000",
      "PhotometricInterpretation": "MONOCHROME2",
      "PixelBandwidth": 2050.0,
      "PixelRepresentation": 0,
      "PixelSpacing": [1.9672131538391, 1.9672131538391],
      "ProtocolName": "dwi_acq-DTI-30-p2",
      "RepetitionTime": 7700.0,
      "Rows": 122,
      "SAR": 0.10213152216975,
      "SamplesPerPixel": 1,
      "ScanOptions": "FS",
      "ScanningSequence": "EP",
      "SequenceVariant": [
        "SK",
        "SP"
],
      "SeriesDescription": "dwi_acq-DTI-30-p2",
      "SeriesNumber": 8,
      "SeriesTime": "091027.082000",
      "SliceThickness": 2.0,
      "SmallestImagePixelValue": 0,
      "SoftwareVersions": "syngo MR E11",
      "SpacingBetweenSlices": 2.0,
      "SpecificCharacterSet": "ISO_IR 100",
      "StudyID": "32",
      "StudyTime": "085129.037000",
      "TransmitCoilName": "Body",
      "VariableFlipAngleFlag": "N",
      "WindowCenterWidthExplanation": "Algo1",
      "dBdt": 0.0},
    "slices": {
      "AcquisitionTime": ["091016.112500", "091012.272500", "091016.220000", "091012.380000", "091016.330000", "091012.490000", "091016.440000", "091012.600000", "091016.550000", "091012.710000", "091016.660000", "091012.820000", "091016.770000", "091012.930000", "091016.880000", "091013.040000", "091016.990000", "091013.150000", "091017.097500", "091013.260000", "091017.207500", "091013.367500", "091017.317500", "091013.477500", "091017.427500", "091013.587500", "091017.537500", "091013.697500", "091017.647500", "091013.807500", "091017.757500", "091013.917500", "091017.867500", "091014.027500", "091017.977500", "091014.137500", "091018.085000", "091014.245000", "091018.195000", "091014.355000", "091018.305000", "091014.465000", "091018.415000", "091014.575000", "091018.525000", "091014.685000", "091018.635000", "091014.795000", "091018.745000", "091014.905000", "091018.855000", "091015.015000", "091018.962500", "091015.125000", "091019.072500", "091015.232500", "091019.182500", "091015.342500", "091019.292500", "091015.452500", "091019.402500", "091015.562500", "091019.512500", "091015.672500", "091019.622500", "091015.782500", "091019.732500", "091015.892500", "091019.842500", "091016.002500", "091023.812500", "091019.972500", "091023.920000", "091020.080000", "091024.030000", "091020.190000", "091024.140000", "091020.300000", "091024.250000", "091020.410000", "091024.360000", "091020.520000", "091024.470000", "091020.630000", "091024.580000", "091020.740000", "091024.690000", "091020.850000", "091024.797500", "091020.960000", "091024.907500", "091021.067500", "091025.017500", "091021.177500", "091025.127500", "091021.287500", "091025.237500", "091021.397500", "091025.347500", "091021.507500", "091025.457500", "091021.617500", "091025.567500", "091021.727500", "091025.677500", "091021.837500", "091025.785000", "091021.945000", "091025.895000", "091022.055000", "091026.005000", "091022.165000", "091026.115000", "091022.275000", "091026.225000", "091022.385000", "091026.335000", "091022.495000", "091026.445000", "091022.605000", "091026.555000", "091022.715000", "091026.662500", "091022.825000", "091026.772500", "091022.932500", "091026.882500", "091023.042500", "091026.992500", "091023.152500", "091027.102500", "091023.262500", "091027.212500", "091023.372500", "091027.322500", "091023.482500", "091027.432500", "091023.592500", "091027.542500", "091023.702500", "091031.512500", "091027.672500", "091031.620000", "091027.780000", "091031.730000", "091027.890000", "091031.840000", "091028.000000", "091031.950000", "091028.110000", "091032.060000", "091028.220000", "091032.170000", "091028.330000", "091032.280000", "091028.440000", "091032.390000", "091028.550000", "091032.497500", "091028.660000", "091032.607500", "091028.767500", "091032.717500", "091028.877500", "091032.827500", "091028.987500", "091032.937500", "091029.097500", "091033.047500", "091029.207500", "091033.157500", "091029.317500", "091033.267500", "091029.427500", "091033.377500", "091029.537500", "091033.485000", "091029.645000", "091033.595000", "091029.755000", "091033.705000", "091029.865000", "091033.815000", "091029.975000", "091033.925000", "091030.085000", "091034.035000", "091030.195000", "091034.145000", "091030.305000", "091034.255000", "091030.415000", "091034.362500", "091030.525000", "091034.472500", "091030.632500", "091034.582500", "091030.742500", "091034.692500", "091030.852500", "091034.802500", "091030.962500", "091034.912500", "091031.072500", "091035.022500", "091031.182500", "091035.132500", "091031.292500", "091035.242500", "091031.402500", "091039.212500", "091035.372500", "091039.320000", "091035.480000", "091039.430000", "091035.590000", "091039.540000", "091035.700000", "091039.650000", "091035.810000", "091039.760000", "091035.920000", "091039.870000", "091036.030000", "091039.980000", "091036.140000", "091040.090000", "091036.250000", "091040.197500", "091036.360000", "091040.307500", "091036.467500", "091040.417500", "091036.577500", "091040.527500", "091036.687500", "091040.637500", "091036.797500", "091040.747500", "091036.907500", "091040.857500", "091037.017500", "091040.967500", "091037.127500", "091041.077500", "091037.237500", "091041.185000", "091037.345000", "091041.295000", "091037.455000", "091041.405000", "091037.565000", "091041.515000", "091037.675000", "091041.625000", "091037.785000", "091041.735000", "091037.895000", "091041.845000", "091038.005000", "091041.955000", "091038.115000", "091042.062500", "091038.225000", "091042.172500", "091038.332500", "091042.282500", "091038.442500", "091042.392500", "091038.552500", "091042.502500", "091038.662500", "091042.612500", "091038.772500", "091042.722500", "091038.882500", "091042.832500", "091038.992500", "091042.942500", "091039.102500", "091046.912500", "091043.072500", "091047.020000", "091043.180000", "091047.130000", "091043.290000", "091047.240000", "091043.400000", "091047.350000", "091043.510000", "091047.460000", "091043.620000", "091047.570000", "091043.730000", "091047.680000", "091043.840000", "091047.790000", "091043.950000", "091047.897500", "091044.060000", "091048.007500", "091044.167500", "091048.117500", "091044.277500", "091048.227500", "091044.387500", "091048.337500", "091044.497500", "091048.447500", "091044.607500", "091048.557500", "091044.717500", "091048.667500", "091044.827500", "091048.777500", "091044.937500", "091048.885000", "091045.045000", "091048.995000", "091045.155000", "091049.105000", "091045.265000", "091049.215000", "091045.375000", "091049.325000", "091045.485000", "091049.435000", "091045.595000", "091049.545000", "091045.705000", "091049.655000", "091045.815000", "091049.762500", "091045.925000", "091049.872500", "091046.032500", "091049.982500", "091046.142500", "091050.092500", "091046.252500", "091050.202500", "091046.362500", "091050.312500", "091046.472500", "091050.422500", "091046.582500", "091050.532500", "091046.692500", "091050.642500", "091046.802500", "091054.612500", "091050.772500", "091054.720000", "091050.880000", "091054.830000", "091050.990000", "091054.940000", "091051.100000", "091055.050000", "091051.210000", "091055.160000", "091051.320000", "091055.270000", "091051.430000", "091055.380000", "091051.540000", "091055.490000", "091051.650000", "091055.597500", "091051.760000", "091055.707500", "091051.867500", "091055.817500", "091051.977500", "091055.927500", "091052.087500", "091056.037500", "091052.197500", "091056.147500", "091052.307500", "091056.257500", "091052.417500", "091056.367500", "091052.527500", "091056.477500", "091052.637500", "091056.585000", "091052.745000", "091056.695000", "091052.855000", "091056.805000", "091052.965000", "091056.915000", "091053.075000", "091057.025000", "091053.185000", "091057.135000", "091053.295000", "091057.245000", "091053.405000", "091057.355000", "091053.515000", "091057.462500", "091053.625000", "091057.572500", "091053.732500", "091057.682500", "091053.842500", "091057.792500", "091053.952500", "091057.902500", "091054.062500", "091058.012500", "091054.172500", "091058.122500", "091054.282500", "091058.232500", "091054.392500", "091058.342500", "091054.502500", "091102.312500", "091058.472500", "091102.420000", "091058.580000", "091102.530000", "091058.690000", "091102.640000", "091058.800000", "091102.750000", "091058.910000", "091102.860000", "091059.020000", "091102.970000", "091059.130000", "091103.080000", "091059.240000", "091103.190000", "091059.350000", "091103.297500", "091059.460000", "091103.407500", "091059.567500", "091103.517500", "091059.677500", "091103.627500", "091059.787500", "091103.737500", "091059.897500", "091103.847500", "091100.007500", "091103.957500", "091100.117500", "091104.067500", "091100.227500", "091104.177500", "091100.337500", "091104.285000", "091100.445000", "091104.395000", "091100.555000", "091104.505000", "091100.665000", "091104.615000", "091100.775000", "091104.725000", "091100.885000", "091104.835000", "091100.995000", "091104.945000", "091101.105000", "091105.055000", "091101.215000", "091105.162500", "091101.325000", "091105.272500", "091101.432500", "091105.382500", "091101.542500", "091105.492500", "091101.652500", "091105.602500", "091101.762500", "091105.712500", "091101.872500", "091105.822500", "091101.982500", "091105.932500", "091102.092500", "091106.042500", "091102.202500", "091110.012500", "091106.172500", "091110.120000", "091106.280000", "091110.230000", "091106.390000", "091110.340000", "091106.500000", "091110.450000", "091106.610000", "091110.560000", "091106.720000", "091110.670000", "091106.830000", "091110.780000", "091106.940000", "091110.890000", "091107.050000", "091110.997500", "091107.160000", "091111.107500", "091107.267500", "091111.217500", "091107.377500", "091111.327500", "091107.487500", "091111.437500", "091107.597500", "091111.547500", "091107.707500", "091111.657500", "091107.817500", "091111.767500", "091107.927500", "091111.877500", "091108.037500", "091111.985000", "091108.145000", "091112.095000", "091108.255000", "091112.205000", "091108.365000", "091112.315000", "091108.475000", "091112.425000", "091108.585000", "091112.535000", "091108.695000", "091112.645000", "091108.805000", "091112.755000", "091108.915000", "091112.862500", "091109.025000", "091112.972500", "091109.132500", "091113.082500", "091109.242500", "091113.192500", "091109.352500", "091113.302500", "091109.462500", "091113.412500", "091109.572500", "091113.522500", "091109.682500", "091113.632500", "091109.792500", "091113.742500", "091109.902500", "091117.712500", "091113.872500", "091117.820000", "091113.980000", "091117.930000", "091114.090000", "091118.040000", "091114.200000", "091118.150000", "091114.310000", "091118.260000", "091114.420000", "091118.370000", "091114.530000", "091118.480000", "091114.640000", "091118.590000", "091114.750000", "091118.697500", "091114.860000", "091118.807500", "091114.967500", "091118.917500", "091115.077500", "091119.027500", "091115.187500", "091119.137500", "091115.297500", "091119.247500", "091115.407500", "091119.357500", "091115.517500", "091119.467500", "091115.627500", "091119.577500", "091115.737500", "091119.685000", "091115.845000", "091119.795000", "091115.955000", "091119.905000", "091116.065000", "091120.015000", "091116.175000", "091120.125000", "091116.285000", "091120.235000", "091116.395000", "091120.345000", "091116.505000", "091120.455000", "091116.615000", "091120.562500", "091116.725000", "091120.672500", "091116.832500", "091120.782500", "091116.942500", "091120.892500", "091117.052500", "091121.002500", "091117.162500", "091121.112500", "091117.272500", "091121.222500", "091117.382500", "091121.332500", "091117.492500", "091121.442500", "091117.602500", "091125.412500", "091121.572500", "091125.520000", "091121.680000", "091125.630000", "091121.790000", "091125.740000", "091121.900000", "091125.850000", "091122.010000", "091125.960000", "091122.120000", "091126.070000", "091122.230000", "091126.180000", "091122.340000", "091126.290000", "091122.450000", "091126.397500", "091122.560000", "091126.507500", "091122.667500", "091126.617500", "091122.777500", "091126.727500", "091122.887500", "091126.837500", "091122.997500", "091126.947500", "091123.107500", "091127.057500", "091123.217500", "091127.167500", "091123.327500", "091127.277500", "091123.437500", "091127.385000", "091123.545000", "091127.495000", "091123.655000", "091127.605000", "091123.765000", "091127.715000", "091123.875000", "091127.825000", "091123.985000", "091127.935000", "091124.095000", "091128.045000", "091124.205000", "091128.155000", "091124.315000", "091128.262500", "091124.425000", "091128.372500", "091124.532500", "091128.482500", "091124.642500", "091128.592500", "091124.752500", "091128.702500", "091124.862500", "091128.812500", "091124.972500", "091128.922500", "091125.082500", "091129.032500", "091125.192500", "091129.142500", "091125.302500", "091133.112500", "091129.272500", "091133.220000", "091129.380000", "091133.330000", "091129.490000", "091133.440000", "091129.600000", "091133.550000", "091129.710000", "091133.660000", "091129.820000", "091133.770000", "091129.930000", "091133.880000", "091130.040000", "091133.990000", "091130.150000", "091134.097500", "091130.260000", "091134.207500", "091130.367500", "091134.317500", "091130.477500", "091134.427500", "091130.587500", "091134.537500", "091130.697500", "091134.647500", "091130.807500", "091134.757500", "091130.917500", "091134.867500", "091131.027500", "091134.977500", "091131.137500", "091135.085000", "091131.245000", "091135.195000", "091131.355000", "091135.305000", "091131.465000", "091135.415000", "091131.575000", "091135.525000", "091131.685000", "091135.635000", "091131.795000", "091135.745000", "091131.905000", "091135.855000", "091132.015000", "091135.962500", "091132.125000", "091136.072500", "091132.232500", "091136.182500", "091132.342500", "091136.292500", "091132.452500", "091136.402500", "091132.562500", "091136.512500", "091132.672500", "091136.622500", "091132.782500", "091136.732500", "091132.892500", "091136.842500", "091133.002500", "091140.812500", "091136.972500", "091140.920000", "091137.080000", "091141.030000", "091137.190000", "091141.140000", "091137.300000", "091141.250000", "091137.410000", "091141.360000", "091137.520000", "091141.470000", "091137.630000", "091141.580000", "091137.740000", "091141.690000", "091137.850000", "091141.797500", "091137.960000", "091141.907500", "091138.067500", "091142.017500", "091138.177500", "091142.127500", "091138.287500", "091142.237500", "091138.397500", "091142.347500", "091138.507500", "091142.457500", "091138.617500", "091142.567500", "091138.727500", "091142.677500", "091138.837500", "091142.785000", "091138.945000", "091142.895000", "091139.055000", "091143.005000", "091139.165000", "091143.115000", "091139.275000", "091143.225000", "091139.385000", "091143.335000", "091139.495000", "091143.445000", "091139.605000", "091143.555000", "091139.715000", "091143.662500", "091139.825000", "091143.772500", "091139.932500", "091143.882500", "091140.042500", "091143.992500", "091140.152500", "091144.102500", "091140.262500", "091144.212500", "091140.372500", "091144.322500", "091140.482500", "091144.432500", "091140.592500", "091144.542500", "091140.702500", "091148.512500", "091144.672500", "091148.620000", "091144.780000", "091148.730000", "091144.890000", "091148.840000", "091145.000000", "091148.950000", "091145.110000", "091149.060000", "091145.220000", "091149.170000", "091145.330000", "091149.280000", "091145.440000", "091149.390000", "091145.550000", "091149.497500", "091145.660000", "091149.607500", "091145.767500", "091149.717500", "091145.877500", "091149.827500", "091145.987500", "091149.937500", "091146.097500", "091150.047500", "091146.207500", "091150.157500", "091146.317500", "091150.267500", "091146.427500", "091150.377500", "091146.537500", "091150.485000", "091146.645000", "091150.595000", "091146.755000", "091150.705000", "091146.865000", "091150.815000", "091146.975000", "091150.925000", "091147.085000", "091151.035000", "091147.195000", "091151.145000", "091147.305000", "091151.255000", "091147.415000", "091151.362500", "091147.525000", "091151.472500", "091147.632500", "091151.582500", "091147.742500", "091151.692500", "091147.852500", "091151.802500", "091147.962500", "091151.912500", "091148.072500", "091152.022500", "091148.182500", "091152.132500", "091148.292500", "091152.242500", "091148.402500", "091156.212500", "091152.372500", "091156.320000", "091152.480000", "091156.430000", "091152.590000", "091156.540000", "091152.700000", "091156.650000", "091152.810000", "091156.760000", "091152.920000", "091156.870000", "091153.030000", "091156.980000", "091153.140000", "091157.090000", "091153.250000", "091157.197500", "091153.360000", "091157.307500", "091153.467500", "091157.417500", "091153.577500", "091157.527500", "091153.687500", "091157.637500", "091153.797500", "091157.747500", "091153.907500", "091157.857500", "091154.017500", "091157.967500", "091154.127500", "091158.077500", "091154.237500", "091158.185000", "091154.345000", "091158.295000", "091154.455000", "091158.405000", "091154.565000", "091158.515000", "091154.675000", "091158.625000", "091154.785000", "091158.735000", "091154.895000", "091158.845000", "091155.005000", "091158.955000", "091155.115000", "091159.062500", "091155.225000", "091159.172500", "091155.332500", "091159.282500", "091155.442500", "091159.392500", "091155.552500", "091159.502500", "091155.662500", "091159.612500", "091155.772500", "091159.722500", "091155.882500", "091159.832500", "091155.992500", "091159.942500", "091156.102500", "091203.912500", "091200.072500", "091204.020000", "091200.180000", "091204.130000", "091200.290000", "091204.240000", "091200.400000", "091204.350000", "091200.510000", "091204.460000", "091200.620000", "091204.570000", "091200.730000", "091204.680000", "091200.840000", "091204.790000", "091200.950000", "091204.897500", "091201.060000", "091205.007500", "091201.167500", "091205.117500", "091201.277500", "091205.227500", "091201.387500", "091205.337500", "091201.497500", "091205.447500", "091201.607500", "091205.557500", "091201.717500", "091205.667500", "091201.827500", "091205.777500", "091201.937500", "091205.885000", "091202.045000", "091205.995000", "091202.155000", "091206.105000", "091202.265000", "091206.215000", "091202.375000", "091206.325000", "091202.485000", "091206.435000", "091202.595000", "091206.545000", "091202.705000", "091206.655000", "091202.815000", "091206.762500", "091202.925000", "091206.872500", "091203.032500", "091206.982500", "091203.142500", "091207.092500", "091203.252500", "091207.202500", "091203.362500", "091207.312500", "091203.472500", "091207.422500", "091203.582500", "091207.532500", "091203.692500", "091207.642500", "091203.802500", "091211.612500", "091207.772500", "091211.720000", "091207.880000", "091211.830000", "091207.990000", "091211.940000", "091208.100000", "091212.050000", "091208.210000", "091212.160000", "091208.320000", "091212.270000", "091208.430000", "091212.380000", "091208.540000", "091212.490000", "091208.650000", "091212.597500", "091208.760000", "091212.707500", "091208.867500", "091212.817500", "091208.977500", "091212.927500", "091209.087500", "091213.037500", "091209.197500", "091213.147500", "091209.307500", "091213.257500", "091209.417500", "091213.367500", "091209.527500", "091213.477500", "091209.637500", "091213.585000", "091209.745000", "091213.695000", "091209.855000", "091213.805000", "091209.965000", "091213.915000", "091210.075000", "091214.025000", "091210.185000", "091214.135000", "091210.295000", "091214.245000", "091210.405000", "091214.355000", "091210.515000", "091214.462500", "091210.625000", "091214.572500", "091210.732500", "091214.682500", "091210.842500", "091214.792500", "091210.952500", "091214.902500", "091211.062500", "091215.012500", "091211.172500", "091215.122500", "091211.282500", "091215.232500", "091211.392500", "091215.342500", "091211.502500", "091219.312500", "091215.472500", "091219.420000", "091215.580000", "091219.530000", "091215.690000", "091219.640000", "091215.800000", "091219.750000", "091215.910000", "091219.860000", "091216.020000", "091219.970000", "091216.130000", "091220.080000", "091216.240000", "091220.190000", "091216.350000", "091220.297500", "091216.460000", "091220.407500", "091216.567500", "091220.517500", "091216.677500", "091220.627500", "091216.787500", "091220.737500", "091216.897500", "091220.847500", "091217.007500", "091220.957500", "091217.117500", "091221.067500", "091217.227500", "091221.177500", "091217.337500", "091221.285000", "091217.445000", "091221.395000", "091217.555000", "091221.505000", "091217.665000", "091221.615000", "091217.775000", "091221.725000", "091217.885000", "091221.835000", "091217.995000", "091221.945000", "091218.105000", "091222.055000", "091218.215000", "091222.162500", "091218.325000", "091222.272500", "091218.432500", "091222.382500", "091218.542500", "091222.492500", "091218.652500", "091222.602500", "091218.762500", "091222.712500", "091218.872500", "091222.822500", "091218.982500", "091222.932500", "091219.092500", "091223.042500", "091219.202500", "091227.012500", "091223.172500", "091227.120000", "091223.280000", "091227.230000", "091223.390000", "091227.340000", "091223.500000", "091227.450000", "091223.610000", "091227.560000", "091223.720000", "091227.670000", "091223.830000", "091227.780000", "091223.940000", "091227.890000", "091224.050000", "091227.997500", "091224.160000", "091228.107500", "091224.267500", "091228.217500", "091224.377500", "091228.327500", "091224.487500", "091228.437500", "091224.597500", "091228.547500", "091224.707500", "091228.657500", "091224.817500", "091228.767500", "091224.927500", "091228.877500", "091225.037500", "091228.985000", "091225.145000", "091229.095000", "091225.255000", "091229.205000", "091225.365000", "091229.315000", "091225.475000", "091229.425000", "091225.585000", "091229.535000", "091225.695000", "091229.645000", "091225.805000", "091229.755000", "091225.915000", "091229.862500", "091226.025000", "091229.972500", "091226.132500", "091230.082500", "091226.242500", "091230.192500", "091226.352500", "091230.302500", "091226.462500", "091230.412500", "091226.572500", "091230.522500", "091226.682500", "091230.632500", "091226.792500", "091230.742500", "091226.902500", "091234.712500", "091230.872500", "091234.820000", "091230.980000", "091234.930000", "091231.090000", "091235.040000", "091231.200000", "091235.150000", "091231.310000", "091235.260000", "091231.420000", "091235.370000", "091231.530000", "091235.480000", "091231.640000", "091235.590000", "091231.750000", "091235.697500", "091231.860000", "091235.807500", "091231.967500", "091235.917500", "091232.077500", "091236.027500", "091232.187500", "091236.137500", "091232.297500", "091236.247500", "091232.407500", "091236.357500", "091232.517500", "091236.467500", "091232.627500", "091236.577500", "091232.737500", "091236.685000", "091232.845000", "091236.795000", "091232.955000", "091236.905000", "091233.065000", "091237.015000", "091233.175000", "091237.125000", "091233.285000", "091237.235000", "091233.395000", "091237.345000", "091233.505000", "091237.455000", "091233.615000", "091237.562500", "091233.725000", "091237.672500", "091233.832500", "091237.782500", "091233.942500", "091237.892500", "091234.052500", "091238.002500", "091234.162500", "091238.112500", "091234.272500", "091238.222500", "091234.382500", "091238.332500", "091234.492500", "091238.442500", "091234.602500", "091242.412500", "091238.572500", "091242.520000", "091238.680000", "091242.630000", "091238.790000", "091242.740000", "091238.900000", "091242.850000", "091239.010000", "091242.960000", "091239.120000", "091243.070000", "091239.230000", "091243.180000", "091239.340000", "091243.290000", "091239.450000", "091243.397500", "091239.560000", "091243.507500", "091239.667500", "091243.617500", "091239.777500", "091243.727500", "091239.887500", "091243.837500", "091239.997500", "091243.947500", "091240.107500", "091244.057500", "091240.217500", "091244.167500", "091240.327500", "091244.277500", "091240.437500", "091244.385000", "091240.545000", "091244.495000", "091240.655000", "091244.605000", "091240.765000", "091244.715000", "091240.875000", "091244.825000", "091240.985000", "091244.935000", "091241.095000", "091245.045000", "091241.205000", "091245.155000", "091241.315000", "091245.262500", "091241.425000", "091245.372500", "091241.532500", "091245.482500", "091241.642500", "091245.592500", "091241.752500", "091245.702500", "091241.862500", "091245.812500", "091241.972500", "091245.922500", "091242.082500", "091246.032500", "091242.192500", "091246.142500", "091242.302500", "091250.112500", "091246.272500", "091250.220000", "091246.380000", "091250.330000", "091246.490000", "091250.440000", "091246.600000", "091250.550000", "091246.710000", "091250.660000", "091246.820000", "091250.770000", "091246.930000", "091250.880000", "091247.040000", "091250.990000", "091247.150000", "091251.097500", "091247.260000", "091251.207500", "091247.367500", "091251.317500", "091247.477500", "091251.427500", "091247.587500", "091251.537500", "091247.697500", "091251.647500", "091247.807500", "091251.757500", "091247.917500", "091251.867500", "091248.027500", "091251.977500"