{
  "AcquisitionMatrixPE": 80,
  "AcquisitionNumber": 1,
  "AcquisitionTime": "09:00:58.515000",
  "BandwidthPerPixelPhaseEncode": 25,
  "BaseResolution": 80,
  "BodyPartExamined": "BRAIN",
  "CoilCombinationMethod": "Sum of Squares",
  "ConsistencyInfo": "N4_VE11C_LATEST_20160120",
  "ConversionSoftware": "dcm2niix",
  "ConversionSoftwareVersion": "v1.0.20220720",
  "DerivedVendorReportedEchoSpacing": 0.0005,
  "DeviceSerialNumber": "66112",
  "DwellTime": 2.7e-06,
  "EchoTime": 0.03,
  "EchoTrainLength": 80,
  "EffectiveEchoSpacing": 0.0005,
  "FlipAngle": 10,
  "HeudiconvVersion": "0.13.1",
  "ImageOrientationPatientDICOM": [0.991102, 0.132873, 0.00784625, -0.129074, 0.945022, 0.300456],
  "ImageOrientationText": "Tra>Cor(17.4)>Sag(-1.9)",
  "ImageType": [
    "ORIGINAL",
    "PRIMARY",
    "M",
    "ND",
    "NORM",
    "MOSAIC"
],
  "ImagingFrequency": 123.252,
  "InPlanePhaseEncodingDirectionDICOM": "COL",
  "InstitutionAddress": "Maynard 3,Hanover,NH,US,03755",
  "InstitutionName": "Dartmouth College - PBS",
  "InstitutionalDepartmentName": "Department",
  "MRAcquisitionType": "2D",
  "MagneticFieldStrength": 3,
  "Manufacturer": "Siemens",
  "ManufacturersModelName": "Prisma",
  "MatrixCoilMode": "SENSE",
  "Modality": "MR",
  "NonlinearGradientCorrection": false,
  "PartialFourier": 1,
  "PatientPosition": "HFS",
  "PercentPhaseFOV": 100,
  "PercentSampling": 100,
  "PhaseEncodingDirection": "j-",
  "PhaseEncodingSteps": 80,
  "PhaseResolution": 1,
  "PixelBandwidth": 2315,
  "ProcedureStepDescription": "dbic^QA",
  "ProtocolName": "func-bold_fa-10",
  "PulseSequenceDetails": "%SiemensSeq%\\ep2d_bold",
  "ReceiveCoilActiveElements": "HEA;HEP",
  "ReceiveCoilName": "Head_32",
  "ReconMatrixPE": 80,
  "RepetitionTime": 2,
  "SAR": 0.0117549,
  "ScanOptions": "FS",
  "ScanningSequence": "EP",
  "SequenceName": "*epfid2d1_80",
  "SequenceVariant": "SK",
  "SeriesDescription": "func-bold_fa-10",
  "SeriesNumber": 10,
  "ShimSetting": [4156, -7708, -7511, 299, -66, -81, -4, 110],
  "SliceThickness": 3.5,
  "SliceTiming": [0.99, 0, 1.0575, 0.0675, 1.1225, 0.1325, 1.1875, 0.1975, 1.255, 0.265, 1.32, 0.33, 1.3875, 0.3975, 1.4525, 0.4625, 1.5175, 0.5275, 1.585, 0.595, 1.65, 0.66, 1.715, 0.7275, 1.7825, 0.7925, 1.8475, 0.8575, 1.915, 0.925],
  "SoftwareVersions": "syngo MR E11",
  "SpacingBetweenSlices": 3.99,
  "StationName": "AWP66112",
  "TotalReadoutTime": 0.0395,
  "TxRefAmp": 228.872,
  "dcmmeta_affine": [
    [-2.973306179046631, -0.387220561504364, -0.1297048181295395, 136.12208557128906],
    [-0.39861801266670227, 2.8350656032562256, 1.1921921968460083, -110.77722930908203],
    [0.023538757115602493, -0.9013671875, 3.805516242980957, -9.895037651062012],
    [0.0, 0.0, 0.0, 1.0]
],
  "dcmmeta_reorient_transform": [
    [0.0, -1.0, 0.0, 79.0],
    [1.0, 0.0, 0.0, 0.0],
    [0.0, 0.0, 1.0, 0.0],
    [0.0, 0.0, 0.0, 1.0]
],
  "dcmmeta_shape": [80, 80, 30, 200],
  "dcmmeta_slice_dim": 2,
  "dcmmeta_version": 0.6,
  "global": {
    "const": {
      "AccessionNumber": "qa",
      "AcquisitionMatrix": [80, 0, 0, 80],
      "AngioFlag": "N",
      "BitsAllocated": 16,
      "BitsStored": 12,
      "BodyPartExamined": "BRAIN",
      "Columns": 480,
      "EchoNumbers": 1,
      "EchoTime": 30.0,
      "EchoTrainLength": 80,
      "FlipAngle": 10.0,
      "HighBit": 11,
      "ImageOrientationPatient": [0.99110205875983, 0.13287266629414, 0.00784625222045, -0.1290735189208, 0.94502189512245, 0.30045572794105],
      "ImagePositionPatient": [-622.74879026126, -759.92969960691, -266.08423342502],
      "ImageType": [
        "ORIGINAL",
        "PRIMARY",
        "M",
        "ND",
        "NORM",
        "MOSAIC"
],
      "ImagedNucleus": "1H",
      "ImagingFrequency": 123.252332,
      "InPlanePhaseEncodingDirection": "COL",
      "MRAcquisitionType": "2D",
      "MagneticFieldStrength": 3.0,
      "Manufacturer": "SIEMENS",
      "ManufacturerModelName": "Prisma",
      "Modality": "MR",
      "NumberOfAverages": 1.0,
      "NumberOfPhaseEncodingSteps": 80,
      "PercentPhaseFieldOfView": 100.0,
      "PercentSampling": 100.0,
      "PerformedProcedureStepStartTime": "083903.843000",
      "PhotometricInterpretation": "MONOCHROME2",
      "PixelBandwidth": 2315.0,
      "PixelRepresentation": 0,
      "PixelSpacing": [3.0, 3.0],
      "ProtocolName": "func-bold_fa-10",
      "RepetitionTime": 2000.0,
      "Rows": 480,
      "SAR": 0.01175490101737,
      "SamplesPerPixel": 1,
      "ScanOptions": "FS",
      "ScanningSequence": "EP",
      "SequenceName": "*epfid2d1_80",
      "SequenceVariant": "SK",
      "SeriesDescription": "func-bold_fa-10",
      "SeriesNumber": 10,
      "SeriesTime": "090142.578000",
      "SliceLocation": -46.962196140155,
      "SliceThickness": 3.5,
      "SmallestImagePixelValue": 0,
      "SoftwareVersions": "syngo MR E11",
      "SpacingBetweenSlices": 3.9900000083103,
      "SpecificCharacterSet": "ISO_IR 100",
      "StudyID": "10",
      "StudyTime": "083903.799000",
      "TransmitCoilName": "Body",
      "VariableFlipAngleFlag": "N",
      "WindowCenterWidthExplanation": "Algo1",
      "dBdt": 0.0},
    "slices": {}
  },
  "time": {
    "samples": {
      "AcquisitionNumber": [1, 2, 3, 4, 5, 6, 7, 8, 9, 10, 11, 12, 13, 14, 15, 16, 17, 18, 19, 20, 21, 22, 23, 24, 25, 26, 27, 28, 29, 30, 31, 32, 33, 34, 35, 36, 37, 38, 39, 40, 41, 42, 43, 44, 45, 46, 47, 48, 49, 50, 51, 52, 53, 54, 55, 56, 57, 58, 59, 60, 61, 62, 63, 64, 65, 66, 67, 68, 69, 70, 71, 72, 73, 74, 75, 76, 77, 78, 79, 80, 81, 82, 83, 84, 85, 86, 87, 88, 89, 90, 91, 92, 93, 94, 95, 96, 97, 98, 99, 100, 101, 102, 103, 104, 105, 106, 107, 108, 109, 110, 111, 112, 113, 114, 115, 116, 117, 118, 119, 120, 121, 122, 123, 124, 125, 126, 127, 128, 129, 130, 131, 132, 133, 134, 135, 136, 137, 138, 139, 140, 141, 142, 143, 144, 145, 146, 147, 148, 149, 150, 151, 152, 153, 154, 155, 156, 157, 158, 159, 160, 161, 162, 163, 164, 165, 166, 167, 168, 169, 170, 171, 172, 173, 174, 175, 176, 177, 178, 179, 180, 181, 182, 183, 184, 185, 186, 187, 188, 189, 190, 191, 192, 193, 194, 195, 196, 197, 198, 199, 200],
      "AcquisitionTime": ["090058.515000", "090100.515000", "090102.515000", "090104.515000", "090106.515000", "090108.515000", "090110.515000", "090112.515000", "090114.515000", "090116.515000", "090118.515000", "090120.515000", "090122.515000", "090124.515000", "090126.515000", "090128.515000", "090130.515000", "090132.515000", "090134.515000", "090136.515000", "090138.515000", "090140.515000", "090142.515000", "090144.515000", "090146.515000", "090148.515000", "090150.515000", "090152.515000", "090154.515000", "090156.515000", "090158.515000", "090200.515000", "090202.515000", "090204.515000", "090206.515000", "090208.515000", "090210.515000", "090212.515000", "090214.515000", "090216.515000", "090218.515000", "090220.515000", "090222.515000", "090224.515000", "090226.515000", "090228.515000", "090230.515000", "090232.515000", "090234.515000", "090236.515000", "090238.515000", "090240.515000", "090242.515000", "090244.515000", "090246.515000", "090248.515000", "090250.515000", "090252.515000", "090254.515000", "090256.515000", "090258.515000", "090300.515000", "090302.515000", "090304.515000", "090306.515000", "090308.515000", "090310.515000", "090312.515000", "090314.515000", "090316.515000", "090318.515000", "090320.515000", "090322.515000", "090324.515000", "090326.515000", "090328.515000", "090330.515000", "090332.515000", "090334.515000", "090336.515000", "090338.515000", "090340.515000", "090342.515000", "090344.515000", "090346.515000", "090348.515000", "090350.515000", "090352.515000", "090354.515000", "090356.515000", "090358.515000", "090400.515000", "090402.515000", "090404.515000", "090406.515000", "090408.515000", "090410.515000", "090412.515000", "090414.515000", "090416.515000", "090418.515000", "090420.515000", "090422.515000", "090424.515000", "090426.515000", "090428.515000", "090430.515000", "090432.515000", "090434.515000", "090436.515000", "090438.515000", "090440.515000", "090442.515000", "090444.515000", "090446.515000", "090448.515000", "090450.515000", "090452.515000", "090454.515000", "090456.515000", "090458.515000", "090500.515000", "090502.515000", "090504.515000", "090506.515000", "090508.515000", "090510.515000", "090512.515000", "090514.515000", "090516.515000", "090518.515000", "090520.515000", "090522.515000", "090524.515000", "090526.515000", "090528.515000", "090530.515000", "090532.515000", "090534.515000", "090536.515000", "090538.515000", "090540.515000", "090542.515000", "090544.515000", "090546.515000", "090548.515000", "090550.515000", "090552.515000", "090554.515000", "090556.515000", "090558.515000", "090600.515000", "090602.515000", "090604.515000", "090606.515000", "090608.515000", "090610.515000", "090612.515000", "090614.515000", "090616.515000", "090618.515000", "090620.515000", "090622.515000", "090624.515000", "090626.515000", "090628.515000", "090630.515000", "090632.515000", "090634.515000", "090636.515000", "090638.515000", "090640.515000", "090642.515000", "090644.515000", "090646.515000", "090648.515000", "090650.515000", "090652.515000", "090654.515000", "090656.515000", "090658.515000", "090700.515000", "090702.515000", "090704.515000", "090706.515000", "090708.515000", "090710.515000", "090712.515000", "090714.515000", "090716.515000", "090718.515000", "090720.515000", "090722.515000", "090724.515000", "090726.515000", "090728.515000", "090730.515000", "090732.515000", "090734.515000", "090736.515000"],
      "ContentTime": ["090142.581000", "090142.584000", "090142.587000", "090142.589000", "090142.592000", "090142.594000", "090142.597000", "090142.599000", "090142.606000", "090142.609000", "090142.611000", "090142.614000", "090142.616000", "090142.619000", "090142.621000", "090142.623000", "090142.626000", "090142.628000", "090142.631000", "090142.633000", "090142.636000", "090142.638000", "090222.577000", "090222.580000", "090222.583000", "090222.585000", "090222.587000", "090222.590000", "090222.592000", "090222.595000", "090222.597000", "090222.600000", "090222.602000", "090222.605000", "090222.607000", "090222.610000", "090222.612000", "090222.615000", "090222.617000", "090222.620000", "090222.622000", "090222.625000", "090302.577000", "090302.580000", "090302.583000", "090302.589000", "090302.592000", "090302.594000", "090302.597000", "090302.599000", "090302.601000", "090302.604000", "090302.606000", "090302.609000", "090302.611000", "090302.614000", "090302.616000", "090302.619000", "090302.621000", "090302.624000", "090302.626000", "090302.628000", "090322.577000", "090322.580000", "090322.583000", "090322.585000", "090322.588000", "090322.590000", "090322.592000", "090322.595000", "090322.597000", "090322.600000", "090402.577000", "090402.579000", "090402.582000", "090402.584000", "090402.587000", "090402.589000", "090402.592000", "090402.594000", "090402.597000", "090402.599000", "090402.602000", "090402.604000", "090402.607000", "090402.609000", "090402.611000", "090402.614000", "090402.616000", "090402.619000", "090402.621000", "090402.624000", "090442.577000", "090442.580000", "090442.583000", "090442.585000", "090442.588000", "090442.590000", "090442.593000", "090442.595000", "090442.597000", "090442.600000", "090442.602000", "090442.605000", "090442.607000", "090442.610000", "090442.612000", "090442.615000", "090442.617000", "090442.620000", "090442.622000", "090442.625000", "090522.577000", "090522.580000", "090522.583000", "090522.585000", "090522.588000", "090522.590000", "090522.592000", "090522.595000", "090522.597000", "090522.600000", "090522.602000", "090522.605000", "090522.607000", "090522.610000", "090522.612000", "090522.615000", "090522.617000", "090522.620000", "090522.622000", "090522.625000", "090602.576000", "090602.579000", "090602.582000", "090602.584000", "090602.587000", "090602.589000", "090602.592000", "090602.594000", "090602.597000", "090602.599000", "090602.601000", "090602.604000", "090602.606000", "090602.609000", "090602.611000", "090602.614000", "090602.616000", "090602.619000", "090602.621000", "090602.624000", "090642.577000", "090642.580000", "090642.583000", "090642.585000", "090642.588000", "090642.590000", "090642.610000", "090642.612000", "090642.615000", "090642.617000", "090642.620000", "090642.622000", "090642.625000", "090642.627000", "090642.630000", "090642.632000", "090642.634000", "090642.637000", "090642.639000", "090642.642000", "090722.577000", "090722.580000", "090722.583000", "090722.585000", "090722.588000", "090722.590000", "090722.593000", "090722.595000", "090722.598000", "090722.600000", "090722.603000", "090722.605000", "090722.608000", "090722.610000", "090722.613000", "090722.615000", "090722.617000", "090722.620000", "090722.622000", "090722.625000", "090738.419000", "090738.422000", "090738.424000", "090738.427000", "090738.429000", "090738.432000", "090738.434000", "090738.437000"],
      "InstanceCreationTime": ["090142.581000", "090142.584000", "090142.587000", "090142.589000", "090142.592000", "090142.594000", "090142.597000", "090142.599000", "090142.606000", "090142.609000", "090142.611000", "090142.614000", "090142.616000", "090142.619000", "090142.621000", "090142.623000", "090142.626000", "090142.628000", "090142.631000", "090142.633000", "090142.636000", "090142.638000", "090222.577000", "090222.580000", "090222.583000", "090222.585000", "090222.587000", "090222.590000", "090222.592000", "090222.595000", "090222.597000", "090222.600000", "090222.602000", "090222.605000", "090222.607000", "090222.610000", "090222.612000", "090222.615000", "090222.617000", "090222.620000", "090222.622000", "090222.625000", "090302.577000", "090302.580000", "090302.583000", "090302.589000", "090302.592000", "090302.594000", "090302.597000", "090302.599000", "090302.601000", "090302.604000", "090302.606000", "090302.609000", "090302.611000", "090302.614000", "090302.616000", "090302.619000", "090302.621000", "090302.624000", "090302.626000", "090302.628000", "090322.577000", "090322.580000", "090322.583000", "090322.585000", "090322.588000", "090322.590000", "090322.592000", "090322.595000", "090322.597000", "090322.600000", "090402.577000", "090402.579000", "090402.582000", "090402.584000", "090402.587000", "090402.589000", "090402.592000", "090402.594000", "090402.597000", "090402.599000", "090402.602000", "090402.604000", "090402.607000", "090402.609000", "090402.611000", "090402.614000", "090402.616000", "090402.619000", "090402.621000", "090402.624000", "090442.577000", "090442.580000", "090442.583000", "090442.585000", "090442.588000", "090442.590000", "090442.593000", "090442.595000", "090442.597000", "090442.600000", "090442.602000", "090442.605000", "090442.607000", "090442.610000", "090442.612000", "090442.615000", "090442.617000", "090442.620000", "090442.622000", "090442.625000", "090522.577000", "090522.580000", "090522.583000", "090522.585000", "090522.588000", "090522.590000", "090522.592000", "090522.595000", "090522.597000", "090522.600000", "090522.602000", "090522.605000", "090522.607000", "090522.610000", "090522.612000", "090522.615000", "090522.617000", "090522.620000", "090522.622000", "090522.625000", "090602.576000", "090602.579000", "090602.582000", "090602.584000", "090602.587000", "090602.589000", "090602.592000", "090602.594000", "090602.597000", "090602.599000", "090602.601000", "090602.604000", "090602.606000", "090602.609000", "090602.611000", "090602.614000", "090602.616000", "090602.619000", "090602.621000", "090602.624000", "090642.577000", "090642.580000", "090642.583000", "090642.585000", "090642.588000", "090642.590000", "090642.610000", "090642.612000", "090642.615000", "090642.617000", "090642.620000", "090642.622000", "090642.625000", "090642.627000", "090642.630000", "090642.632000", "090642.634000", "090642.637000", "090642.639000", "090642.642000", "090722.577000", "090722.580000", "090722.583000", "090722.585000", "090722.588000", "090722.590000", "090722.593000", "090722.595000", "090722.598000", "090722.600000", "090722.603000", "090722.605000", "090722.608000", "090722.610000", "090722.613000", "090722.615000", "090722.617000", "090722.620000", "090722.622000", "090722.625000", "090738.419000", "090738.422000", "090738.424000", "090738.427000", "090738.429000", "090738.432000", "090738.434000", "090738.437000"],
      "InstanceNumber": [1, 2, 3, 4, 5, 6, 7, 8, 9, 10, 11, 12, 13, 14, 15, 16, 17, 18, 19, 20, 21, 22, 23, 24, 25, 26, 27, 28, 29, 30, 31, 32, 33, 34, 35, 36, 37, 38, 39, 40, 41, 42, 43, 44, 45, 46, 47, 48, 49, 50, 51, 52, 53, 54, 55, 56, 57, 58, 59, 60, 61, 62, 63, 64, 65, 66, 67, 68, 69, 70, 71, 72, 73, 74, 75, 76, 77, 78, 79, 80, 81, 82, 83, 84, 85, 86, 87, 88, 89, 90, 91, 92, 93, 94, 95, 96, 97, 98, 99, 100, 101, 102, 103, 104, 105, 106, 107, 108, 109, 110, 111, 112, 113, 114, 115, 116, 117, 118, 119, 120, 121, 122, 123, 124, 125, 126, 127, 128, 129, 130, 131, 132, 133, 134, 135, 136, 137, 138, 139, 140, 141, 142, 143, 144, 145, 146, 147, 148, 149, 150, 151, 152, 153, 154, 155, 156, 157, 158, 159, 160, 161, 162, 163, 164, 165, 166, 167, 168, 169, 170, 171, 172, 173, 174, 175, 176, 177, 178, 179, 180, 181, 182, 183, 184, 185, 186, 187, 188, 189, 190, 191, 192, 193, 194, 195, 196, 197, 198, 199, 200],
      "LargestImagePixelValue": [361, 356, 357, 357, 359, 357, 357, 357, 356, 355, 358, 360, 356, 358, 361, 357, 358, 359, 360, 356, 357, 355, 356, 361, 355, 357, 357, 356, 359, 360, 357, 356, 358, 359, 356, 357, 357, 356, 358, 357, 356, 357, 357, 357, 359, 356, 359, 356, 358, 358, 355, 360, 358, 357, 359, 358, 354, 358, 355, 356, 356, 357, 358, 355, 358, 357, 356, 355, 358, 357, 357, 357, 360, 359, 356, 357, 356, 355, 356, 356, 357, 357, 354, 361, 361, 357, 355, 358, 361, 355, 357, 357, 356, 356, 356, 355, 356, 357, 357, 356, 355, 357, 357, 357, 356, 357, 357, 358, 356, 358, 360, 358, 356, 358, 356, 358, 357, 356, 358, 356, 355, 354, 357, 356, 355, 356, 356, 355, 355, 358, 354, 356, 355, 360, 357, 356, 355, 358, 355, 356, 356, 356, 355, 355, 359, 358, 356, 355, 356, 358, 356, 357, 355, 356, 358, 357, 356, 358, 356, 358, 356, 355, 359, 356, 358, 358, 355, 354, 355, 355, 361, 356, 360, 357, 356, 355, 357, 356, 355, 357, 355, 355, 357, 356, 357, 355, 356, 356, 356, 356, 357, 356, 354, 355, 358, 356, 356, 354, 356, 356],
      "WindowCenter": [294.0, 293.0, 294.0, 294.0, 294.0, 294.0, 294.0, 294.0, 294.0, 294.0, 294.0, 294.0, 294.0, 294.0, 293.0, 294.0, 294.0, 294.0, 294.0, 294.0, 294.0, 293.0, 293.0, 294.0, 294.0, 294.0, 293.0, 294.0, 294.0, 294.0, 294.0, 294.0, 294.0, 294.0, 294.0, 294.0, 293.0, 294.0, 294.0, 294.0, 294.0, 294.0, 294.0, 294.0, 294.0, 294.0, 294.0, 294.0, 294.0, 294.0, 294.0, 294.0, 294.0, 294.0, 294.0, 294.0, 294.0, 294.0, 293.0, 294.0, 294.0, 293.0, 294.0, 294.0, 294.0, 294.0, 293.0, 294.0, 294.0, 294.0, 294.0, 293.0, 293.0, 294.0, 294.0, 294.0, 294.0, 294.0, 294.0, 294.0, 294.0, 294.0, 294.0, 294.0, 294.0, 293.0, 294.0, 294.0, 294.0, 293.0, 293.0, 293.0, 294.0, 294.0, 294.0, 294.0, 294.0, 294.0, 294.0, 294.0, 294.0, 294.0, 293.0, 294.0, 294.0, 294.0, 293.0, 293.0, 294.0, 294.0, 294.0, 294.0, 293.0, 294.0, 293.0, 293.0, 293.0, 293.0, 293.0, 293.0, 293.0, 293.0, 293.0, 293.0, 293.0, 293.0, 293.0, 293.0, 293.0, 293.0, 293.0, 293.0, 292.0, 293.0, 293.0, 293.0, 292.0, 292.0, 293.0, 293.0, 293.0, 293.0, 293.0, 293.0, 293.0, 293.0, 293.0, 293.0, 293.0, 292.0, 293.0, 293.0, 293.0, 293.0, 293.0, 293.0, 293.0, 293.0, 293.0, 293.0, 293.0, 293.0, 293.0, 293.0, 293.0, 293.0, 293.0, 293.0, 293.0, 293.0, 293.0, 293.0, 293.0, 293.0, 293.0, 292.0, 292.0, 293.0, 293.0, 293.0, 293.0, 293.0, 293.0, 293.0, 293.0, 293.0, 293.0, 292.0, 293.0, 293.0, 293.0, 293.0, 293.0, 293.0, 293.0, 293.0, 293.0, 293.0, 293.0, 293.0],
      "WindowWidth": [639.0, 639.0, 639.0, 639.0, 639.0, 639.0, 639.0, 639.0, 639.0, 639.0, 639.0, 639.0, 639.0, 639.0, 639.0, 639.0, 639.0, 639.0, 639.0, 639.0, 639.0, 638.0, 639.0, 639.0, 639.0, 639.0, 639.0, 639.0, 639.0, 639.0, 639.0, 639.0, 639.0, 639.0, 639.0, 639.0, 638.0, 639.0, 639.0, 639.0, 639.0, 639.0, 639.0, 639.0, 639.0, 639.0, 639.0, 639.0, 639.0, 639.0, 639.0, 639.0, 639.0, 639.0, 639.0, 639.0, 639.0, 639.0, 638.0, 639.0, 639.0, 638.0, 639.0, 639.0, 639.0, 639.0, 638.0, 639.0, 639.0, 639.0, 639.0, 638.0, 638.0, 639.0, 639.0, 639.0, 639.0, 639.0, 639.0, 639.0, 639.0, 639.0, 639.0, 639.0, 639.0, 638.0, 639.0, 639.0, 638.0, 638.0, 638.0, 638.0, 639.0, 639.0, 639.0, 639.0, 639.0, 639.0, 639.0, 639.0, 639.0, 639.0, 638.0, 639.0, 639.0, 639.0, 638.0, 638.0, 639.0, 639.0, 639.0, 639.0, 638.0, 639.0, 637.0, 637.0, 637.0, 637.0, 637.0, 637.0, 637.0, 637.0, 638.0, 637.0, 637.0, 637.0, 637.0, 637.0, 637.0, 638.0, 637.0, 637.0, 637.0, 637.0, 637.0, 637.0, 637.0, 637.0, 637.0, 637.0, 637.0, 637.0, 637.0, 637.0, 637.0, 637.0, 637.0, 637.0, 637.0, 637.0, 637.0, 637.0, 637.0, 637.0, 637.0, 637.0, 637.0, 637.0, 637.0, 637.0, 637.0, 637.0, 637.0, 637.0, 637.0, 637.0, 637.0, 637.0, 637.0, 637.0, 637.0, 637.0, 637.0, 637.0, 637.0, 637.0, 637.0, 637.0, 637.0, 637.0, 637.0, 637.0, 637.0, 637.0, 637.0, 637.0, 637.0, 637.0, 637.0, 637.0, 637.0, 637.0, 637.0, 637.0, 637.0, 637.0, 637.0, 637.0, 637.0, 637.0]
    },
    "slices": {}
  }
}