{
  "AcquisitionMatrixPE": 80,
  "AcquisitionNumber": 1,
  "AcquisitionTime": "08:40:28.480000",
  "BandwidthPerPixelPhaseEncode": 48.077,
  "BaseResolution": 80,
  "BodyPartExamined": "BRAIN",
  "CoilCombinationMethod": "Sum of Squares",
  "ConsistencyInfo": "N4_VE11C_LATEST_20160120",
  "ConversionSoftware": "dcm2niix",
  "ConversionSoftwareVersion": "v1.0.20220720",
  "DerivedVendorReportedEchoSpacing": 0.000519999,
  "DeviceSerialNumber": "66112",
  "DwellTime": 2.7e-06,
  "EchoTime": 0.035,
  "EchoTrainLength": 39,
  "EffectiveEchoSpacing": 0.00026,
  "FlipAngle": 90,
  "HeudiconvVersion": "0.13.1",
  "ImageOrientationPatientDICOM": [0.991102, 0.132873, 0.00784625, -0.129074, 0.945022, 0.300456],
  "ImageOrientationText": "Tra>Cor(17.4)>Sag(-1.9)",
  "ImageType": [
    "ORIGINAL",
    "PRIMARY",
    "M",
    "ND",
    "NORM",
    "MOSAIC"
],
  "ImagingFrequency": 123.252,
  "InPlanePhaseEncodingDirectionDICOM": "COL",
  "InstitutionAddress": "Maynard 3,Hanover,NH,US,03755",
  "InstitutionName": "Dartmouth College - PBS",
  "InstitutionalDepartmentName": "Department",
  "MRAcquisitionType": "2D",
  "MagneticFieldStrength": 3,
  "Manufacturer": "Siemens",
  "ManufacturersModelName": "Prisma",
  "MatrixCoilMode": "GRAPPA",
  "Modality": "MR",
  "NonlinearGradientCorrection": false,
  "ParallelReductionFactorInPlane": 2,
  "PartialFourier": 1,
  "PatientPosition": "HFS",
  "PercentPhaseFOV": 100,
  "PercentSampling": 100,
  "PhaseEncodingDirection": "j-",
  "PhaseEncodingSteps": 79,
  "PhaseResolution": 1,
  "PixelBandwidth": 2315,
  "ProcedureStepDescription": "dbic^QA",
  "ProtocolName": "func-bold_task-rest_acq-p2",
  "PulseSequenceDetails": "%SiemensSeq%\\ep2d_bold",
  "ReceiveCoilActiveElements": "HEA;HEP",
  "ReceiveCoilName": "Head_32",
  "ReconMatrixPE": 80,
  "RefLinesPE": 24,
  "RepetitionTime": 2,
  "SAR": 0.0557624,
  "ScanOptions": "FS",
  "ScanningSequence": "EP",
  "SequenceName": "*epfid2d1_80",
  "SequenceVariant": "SK",
  "SeriesDescription": "func-bold_task-rest_acq-p2",
  "SeriesNumber": 5,
  "ShimSetting": [4156, -7708, -7511, 299, -67, -82, -4, 111],
  "SliceThickness": 3.5,
  "SliceTiming": [0.99, 0, 1.0575, 0.0675, 1.1225, 0.1325, 1.1875, 0.1975, 1.255, 0.265, 1.32, 0.33, 1.3875, 0.3975, 1.4525, 0.4625, 1.5175, 0.5275, 1.585, 0.595, 1.65, 0.66, 1.7175, 0.7275, 1.7825, 0.7925, 1.8475, 0.8575, 1.915, 0.925],
  "SoftwareVersions": "syngo MR E11",
  "SpacingBetweenSlices": 3.99,
  "StationName": "AWP66112",
  "TaskName": "rest",
  "TotalReadoutTime": 0.02054,
  "TxRefAmp": 228.872,
  "dcmmeta_affine": [
    [-2.973306179046631, -0.387220561504364, -0.1297048181295395, 136.4732666015625],
    [-0.39861801266670227, 2.8350656032562256, 1.1921921968460083, -113.38764953613281],
    [0.023538757115602493, -0.9013671875, 3.805516481399536, -9.736868858337402],
    [0.0, 0.0, 0.0, 1.0]
],
  "dcmmeta_reorient_transform": [
    [0.0, -1.0, 0.0, 79.0],
    [1.0, 0.0, 0.0, 0.0],
    [0.0, 0.0, 1.0, 0.0],
    [0.0, 0.0, 0.0, 1.0]
],
  "dcmmeta_shape": [80, 80, 30, 200],
  "dcmmeta_slice_dim": 2,
  "dcmmeta_version": 0.6,
  "global": {
    "const": {
      "AccessionNumber": "qa",
      "AcquisitionMatrix": [80, 0, 0, 80],
      "AngioFlag": "N",
      "BitsAllocated": 16,
      "BitsStored": 12,
      "BodyPartExamined": "BRAIN",
      "Columns": 480,
      "EchoNumbers": 1,
      "EchoTime": 35.0,
      "EchoTrainLength": 39,
      "FlipAngle": 90.0,
      "HighBit": 11,
      "ImageOrientationPatient": [0.99110205875983, 0.13287266629414, 0.00784625222045, -0.1290735189208, 0.94502189512245, 0.30045572794105],
      "ImagePositionPatient": [-623.09996008586, -757.31927365781, -265.92606463229],
      "ImageType": [
        "ORIGINAL",
        "PRIMARY",
        "M",
        "ND",
        "NORM",
        "MOSAIC"
],
      "ImagedNucleus": "1H",
      "ImagingFrequency": 123.252335,
      "InPlanePhaseEncodingDirection": "COL",
      "MRAcquisitionType": "2D",
      "MagneticFieldStrength": 3.0,
      "Manufacturer": "SIEMENS",
      "ManufacturerModelName": "Prisma",
      "Modality": "MR",
      "NumberOfAverages": 1.0,
      "NumberOfPhaseEncodingSteps": 79,
      "PercentPhaseFieldOfView": 100.0,
      "PercentSampling": 100.0,
      "PerformedProcedureStepStartTime": "083903.843000",
      "PhotometricInterpretation": "MONOCHROME2",
      "PixelBandwidth": 2315.0,
      "PixelRepresentation": 0,
      "PixelSpacing": [3.0, 3.0],
      "ProtocolName": "func-bold_task-rest_acq-p2",
      "RepetitionTime": 2000.0,
      "Rows": 480,
      "SAR": 0.05576235429824,
      "SamplesPerPixel": 1,
      "ScanOptions": "FS",
      "ScanningSequence": "EP",
      "SequenceName": "*epfid2d1_80",
      "SequenceVariant": "SK",
      "SeriesDescription": "func-bold_task-rest_acq-p2",
      "SeriesNumber": 5,
      "SeriesTime": "084122.579000",
      "SliceLocation": -47.60273847441,
      "SliceThickness": 3.5,
      "SmallestImagePixelValue": 0,
      "SoftwareVersions": "syngo MR E11",
      "SpacingBetweenSlices": 3.9900001337695,
      "SpecificCharacterSet": "ISO_IR 100",
      "StudyID": "10",
      "StudyTime": "083903.799000",
      "TransmitCoilName": "Body",
      "VariableFlipAngleFlag": "N",
      "WindowCenterWidthExplanation": "Algo1",
      "dBdt": 0.0},
    "slices": {}
  },
  "time": {
    "samples": {
      "AcquisitionNumber": [1, 2, 3, 4, 5, 6, 7, 8, 9, 10, 11, 12, 13, 14, 15, 16, 17, 18, 19, 20, 21, 22, 23, 24, 25, 26, 27, 28, 29, 30, 31, 32, 33, 34, 35, 36, 37, 38, 39, 40, 41, 42, 43, 44, 45, 46, 47, 48, 49, 50, 51, 52, 53, 54, 55, 56, 57, 58, 59, 60, 61, 62, 63, 64, 65, 66, 67, 68, 69, 70, 71, 72, 73, 74, 75, 76, 77, 78, 79, 80, 81, 82, 83, 84, 85, 86, 87, 88, 89, 90, 91, 92, 93, 94, 95, 96, 97, 98, 99, 100, 101, 102, 103, 104, 105, 106, 107, 108, 109, 110, 111, 112, 113, 114, 115, 116, 117, 118, 119, 120, 121, 122, 123, 124, 125, 126, 127, 128, 129, 130, 131, 132, 133, 134, 135, 136, 137, 138, 139, 140, 141, 142, 143, 144, 145, 146, 147, 148, 149, 150, 151, 152, 153, 154, 155, 156, 157, 158, 159, 160, 161, 162, 163, 164, 165, 166, 167, 168, 169, 170, 171, 172, 173, 174, 175, 176, 177, 178, 179, 180, 181, 182, 183, 184, 185, 186, 187, 188, 189, 190, 191, 192, 193, 194, 195, 196, 197, 198, 199, 200],
      "AcquisitionTime": ["084028.480000", "084030.480000", "084032.480000", "084034.480000", "084036.480000", "084038.480000", "084040.480000", "084042.480000", "084044.480000", "084046.480000", "084048.480000", "084050.480000", "084052.480000", "084054.480000", "084056.480000", "084058.480000", "084100.480000", "084102.480000", "084104.480000", "084106.480000", "084108.480000", "084110.480000", "084112.480000", "084114.480000", "084116.480000", "084118.480000", "084120.480000", "084122.480000", "084124.480000", "084126.480000", "084128.480000", "084130.480000", "084132.480000", "084134.480000", "084136.480000", "084138.480000", "084140.480000", "084142.480000", "084144.480000", "084146.480000", "084148.480000", "084150.480000", "084152.480000", "084154.480000", "084156.480000", "084158.480000", "084200.480000", "084202.480000", "084204.480000", "084206.480000", "084208.480000", "084210.480000", "084212.480000", "084214.480000", "084216.480000", "084218.480000", "084220.480000", "084222.480000", "084224.480000", "084226.480000", "084228.480000", "084230.480000", "084232.480000", "084234.480000", "084236.480000", "084238.480000", "084240.480000", "084242.480000", "084244.480000", "084246.480000", "084248.480000", "084250.480000", "084252.480000", "084254.480000", "084256.480000", "084258.480000", "084300.480000", "084302.480000", "084304.480000", "084306.480000", "084308.480000", "084310.480000", "084312.480000", "084314.480000", "084316.480000", "084318.480000", "084320.480000", "084322.480000", "084324.480000", "084326.480000", "084328.480000", "084330.480000", "084332.480000", "084334.480000", "084336.480000", "084338.480000", "084340.480000", "084342.480000", "084344.480000", "084346.480000", "084348.480000", "084350.480000", "084352.480000", "084354.480000", "084356.480000", "084358.480000", "084400.480000", "084402.480000", "084404.480000", "084406.480000", "084408.480000", "084410.480000", "084412.480000", "084414.480000", "084416.480000", "084418.480000", "084420.480000", "084422.480000", "084424.480000", "084426.480000", "084428.480000", "084430.480000", "084432.480000", "084434.480000", "084436.480000", "084438.480000", "084440.480000", "084442.480000", "084444.480000", "084446.480000", "084448.480000", "084450.480000", "084452.480000", "084454.480000", "084456.480000", "084458.480000", "084500.480000", "084502.480000", "084504.480000", "084506.480000", "084508.480000", "084510.480000", "084512.480000", "084514.480000", "084516.480000", "084518.480000", "084520.480000", "084522.480000", "084524.480000", "084526.480000", "084528.480000", "084530.480000", "084532.480000", "084534.480000", "084536.480000", "084538.480000", "084540.480000", "084542.480000", "084544.480000", "084546.480000", "084548.480000", "084550.480000", "084552.480000", "084554.480000", "084556.480000", "084558.480000", "084600.480000", "084602.480000", "084604.480000", "084606.480000", "084608.480000", "084610.480000", "084612.480000", "084614.480000", "084616.480000", "084618.480000", "084620.480000", "084622.480000", "084624.480000", "084626.480000", "084628.480000", "084630.480000", "084632.480000", "084634.480000", "084636.480000", "084638.480000", "084640.480000", "084642.480000", "084644.480000", "084646.480000", "084648.480000", "084650.480000", "084652.480000", "084654.480000", "084656.480000", "084658.480000", "084700.480000", "084702.480000", "084704.480000", "084706.480000"],
      "ContentTime": ["084122.583000", "084122.586000", "084122.589000", "084122.591000", "084122.594000", "084122.596000", "084122.599000", "084122.601000", "084122.604000", "084122.606000", "084122.609000", "084122.611000", "084122.614000", "084122.616000", "084122.619000", "084122.621000", "084122.624000", "084122.627000", "084122.629000", "084122.631000", "084122.634000", "084122.637000", "084122.639000", "084122.642000", "084122.644000", "084122.647000", "084122.649000", "084202.578000", "084202.580000", "084202.583000", "084202.586000", "084202.588000", "084202.591000", "084202.593000", "084202.596000", "084202.598000", "084202.601000", "084202.603000", "084202.606000", "084202.613000", "084202.615000", "084202.618000", "084202.620000", "084202.623000", "084202.625000", "084202.628000", "084202.630000", "084242.577000", "084242.580000", "084242.583000", "084242.585000", "084242.588000", "084242.590000", "084242.593000", "084242.595000", "084242.598000", "084242.600000", "084242.603000", "084242.605000", "084242.608000", "084242.610000", "084242.613000", "084242.615000", "084242.618000", "084242.620000", "084242.623000", "084242.625000", "084322.577000", "084322.580000", "084322.583000", "084322.585000", "084322.588000", "084322.590000", "084322.593000", "084322.595000", "084322.598000", "084322.600000", "084322.603000", "084322.605000", "084322.608000", "084322.610000", "084322.613000", "084322.615000", "084322.618000", "084322.620000", "084322.623000", "084322.626000", "084342.578000", "084342.580000", "084342.583000", "084342.585000", "084342.588000", "084342.590000", "084342.593000", "084342.595000", "084342.598000", "084342.600000", "084422.578000", "084422.580000", "084422.583000", "084422.585000", "084422.588000", "084422.590000", "084422.593000", "084422.595000", "084422.598000", "084422.600000", "084422.603000", "084422.605000", "084422.608000", "084422.610000", "084422.613000", "084422.615000", "084422.618000", "084422.621000", "084422.623000", "084422.626000", "084502.578000", "084502.580000", "084502.583000", "084502.585000", "084502.588000", "084502.590000", "084502.593000", "084502.595000", "084502.598000", "084502.600000", "084502.603000", "084502.605000", "084502.608000", "084502.610000", "084502.613000", "084502.615000", "084502.618000", "084502.620000", "084502.623000", "084502.625000", "084542.577000", "084542.580000", "084542.583000", "084542.585000", "084542.588000", "084542.590000", "084542.593000", "084542.595000", "084542.598000", "084542.600000", "084542.603000", "084542.605000", "084542.608000", "084542.610000", "084542.613000", "084542.615000", "084542.618000", "084542.621000", "084542.623000", "084542.626000", "084622.578000", "084622.580000", "084622.583000", "084622.585000", "084622.588000", "084622.591000", "084622.593000", "084622.596000", "084622.598000", "084622.601000", "084622.603000", "084622.606000", "084622.608000", "084622.611000", "084622.613000", "084622.616000", "084622.619000", "084622.621000", "084622.624000", "084622.626000", "084702.577000", "084702.580000", "084702.583000", "084702.585000", "084702.588000", "084702.590000", "084702.593000", "084702.595000", "084702.598000", "084702.601000", "084702.603000", "084702.606000", "084702.608000", "084702.611000", "084702.613000", "084702.616000", "084702.618000", "084702.621000", "084702.623000", "084702.626000", "084707.643000", "084707.646000", "084707.649000"],
      "InstanceCreationTime": ["084122.583000", "084122.586000", "084122.589000", "084122.591000", "084122.594000", "084122.596000", "084122.599000", "084122.601000", "084122.604000", "084122.606000", "084122.609000", "084122.611000", "084122.614000", "084122.616000", "084122.619000", "084122.621000", "084122.624000", "084122.627000", "084122.629000", "084122.631000", "084122.634000", "084122.637000", "084122.639000", "084122.642000", "084122.644000", "084122.647000", "084122.649000", "084202.578000", "084202.580000", "084202.583000", "084202.586000", "084202.588000", "084202.591000", "084202.593000", "084202.596000", "084202.598000", "084202.601000", "084202.603000", "084202.606000", "084202.613000", "084202.615000", "084202.618000", "084202.620000", "084202.623000", "084202.625000", "084202.628000", "084202.630000", "084242.577000", "084242.580000", "084242.583000", "084242.585000", "084242.588000", "084242.590000", "084242.593000", "084242.595000", "084242.598000", "084242.600000", "084242.603000", "084242.605000", "084242.608000", "084242.610000", "084242.613000", "084242.615000", "084242.618000", "084242.620000", "084242.623000", "084242.625000", "084322.577000", "084322.580000", "084322.583000", "084322.585000", "084322.588000", "084322.590000", "084322.593000", "084322.595000", "084322.598000", "084322.600000", "084322.603000", "084322.605000", "084322.608000", "084322.610000", "084322.613000", "084322.615000", "084322.618000", "084322.620000", "084322.623000", "084322.626000", "084342.578000", "084342.580000", "084342.583000", "084342.585000", "084342.588000", "084342.590000", "084342.593000", "084342.595000", "084342.598000", "084342.600000", "084422.578000", "084422.580000", "084422.583000", "084422.585000", "084422.588000", "084422.590000", "084422.593000", "084422.595000", "084422.598000", "084422.600000", "084422.603000", "084422.605000", "084422.608000", "084422.610000", "084422.613000", "084422.615000", "084422.618000", "084422.621000", "084422.623000", "084422.626000", "084502.578000", "084502.580000", "084502.583000", "084502.585000", "084502.588000", "084502.590000", "084502.593000", "084502.595000", "084502.598000", "084502.600000", "084502.603000", "084502.605000", "084502.608000", "084502.610000", "084502.613000", "084502.615000", "084502.618000", "084502.620000", "084502.623000", "084502.625000", "084542.577000", "084542.580000", "084542.583000", "084542.585000", "084542.588000", "084542.590000", "084542.593000", "084542.595000", "084542.598000", "084542.600000", "084542.603000", "084542.605000", "084542.608000", "084542.610000", "084542.613000", "084542.615000", "084542.618000", "084542.621000", "084542.623000", "084542.626000", "084622.578000", "084622.580000", "084622.583000", "084622.585000", "084622.588000", "084622.591000", "084622.593000", "084622.596000", "084622.598000", "084622.601000", "084622.603000", "084622.606000", "084622.608000", "084622.611000", "084622.613000", "084622.616000", "084622.619000", "084622.621000", "084622.624000", "084622.626000", "084702.577000", "084702.580000", "084702.583000", "084702.585000", "084702.588000", "084702.590000", "084702.593000", "084702.595000", "084702.598000", "084702.601000", "084702.603000", "084702.606000", "084702.608000", "084702.611000", "084702.613000", "084702.616000", "084702.618000", "084702.621000", "084702.623000", "084702.626000", "084707.643000", "084707.646000", "084707.649000"],
      "InstanceNumber": [1, 2, 3, 4, 5, 6, 7, 8, 9, 10, 11, 12, 13, 14, 15, 16, 17, 18, 19, 20, 21, 22, 23, 24, 25, 26, 27, 28, 29, 30, 31, 32, 33, 34, 35, 36, 37, 38, 39, 40, 41, 42, 43, 44, 45, 46, 47, 48, 49, 50, 51, 52, 53, 54, 55, 56, 57, 58, 59, 60, 61, 62, 63, 64, 65, 66, 67, 68, 69, 70, 71, 72, 73, 74, 75, 76, 77, 78, 79, 80, 81, 82, 83, 84, 85, 86, 87, 88, 89, 90, 91, 92, 93, 94, 95, 96, 97, 98, 99, 100, 101, 102, 103, 104, 105, 106, 107, 108, 109, 110, 111, 112, 113, 114, 115, 116, 117, 118, 119, 120, 121, 122, 123, 124, 125, 126, 127, 128, 129, 130, 131, 132, 133, 134, 135, 136, 137, 138, 139, 140, 141, 142, 143, 144, 145, 146, 147, 148, 149, 150, 151, 152, 153, 154, 155, 156, 157, 158, 159, 160, 161, 162, 163, 164, 165, 166, 167, 168, 169, 170, 171, 172, 173, 174, 175, 176, 177, 178, 179, 180, 181, 182, 183, 184, 185, 186, 187, 188, 189, 190, 191, 192, 193, 194, 195, 196, 197, 198, 199, 200],
      "LargestImagePixelValue": [2129, 2136, 2129, 2141, 2134, 2132, 2136, 2137, 2130, 2135, 2139, 2139, 2139, 2135, 2141, 2132, 2150, 2135, 2139, 2131, 2139, 2130, 2134, 2128, 2133, 2133, 2142, 2129, 2126, 2129, 2135, 2136, 2133, 2132, 2130, 2128, 2122, 2134, 2128, 2133, 2129, 2120, 2127, 2129, 2128, 2128, 2123, 2126, 2127, 2126, 2124, 2122, 2130, 2128, 2128, 2125, 2122, 2125, 2131, 2120, 2128, 2128, 2130, 2131, 2123, 2128, 2125, 2125, 2123, 2127, 2128, 2120, 2127, 2118, 2119, 2128, 2122, 2121, 2127, 2116, 2131, 2124, 2128, 2124, 2133, 2125, 2120, 2125, 2125, 2127, 2128, 2121, 2126, 2124, 2128, 2124, 2131, 2127, 2119, 2119, 2125, 2124, 2121, 2114, 2120, 2118, 2112, 2112, 2122, 2113, 2118, 2111, 2112, 2116, 2116, 2110, 2113, 2110, 2110, 2119, 2112, 2116, 2107, 2108, 2113, 2107, 2111, 2108, 2108, 2101, 2107, 2108, 2108, 2108, 2113, 2110, 2110, 2113, 2109, 2110, 2115, 2113, 2111, 2106, 2109, 2111, 2111, 2113, 2114, 2104, 2106, 2109, 2117, 2114, 2120, 2122, 2116, 2118, 2120, 2114, 2116, 2123, 2119, 2112, 2113, 2114, 2113, 2119, 2118, 2121, 2114, 2117, 2108, 2116, 2115, 2119, 2117, 2108, 2114, 2111, 2107, 2108, 2116, 2116, 2113, 2120, 2113, 2109, 2115, 2114, 2108, 2113, 2119, 2110, 2111, 2115, 2118, 2112, 2120, 2116],
      "WindowCenter": [1019.0, 1020.0, 1019.0, 1019.0, 1019.0, 1019.0, 1019.0, 1019.0, 1019.0, 1019.0, 1019.0, 1019.0, 1019.0, 1020.0, 1019.0, 1019.0, 1019.0, 1019.0, 1019.0, 1019.0, 1019.0, 1020.0, 1019.0, 1020.0, 1019.0, 1019.0, 1019.0, 1019.0, 1019.0, 1019.0, 1019.0, 1019.0, 1019.0, 1020.0, 1019.0, 1019.0, 1019.0, 1019.0, 1019.0, 1020.0, 1019.0, 1019.0, 1019.0, 1019.0, 1019.0, 1019.0, 1019.0, 1019.0, 1019.0, 1019.0, 1019.0, 1019.0, 1018.0, 1019.0, 1019.0, 1018.0, 1018.0, 1018.0, 1018.0, 1018.0, 1018.0, 1018.0, 1019.0, 1018.0, 1018.0, 1018.0, 1018.0, 1018.0, 1018.0, 1018.0, 1018.0, 1018.0, 1018.0, 1018.0, 1018.0, 1018.0, 1018.0, 1018.0, 1018.0, 1018.0, 1018.0, 1018.0, 1018.0, 1018.0, 1018.0, 1018.0, 1018.0, 1018.0, 1018.0, 1018.0, 1018.0, 1018.0, 1018.0, 1018.0, 1019.0, 1018.0, 1018.0, 1018.0, 1018.0, 1018.0, 1018.0, 1018.0, 1019.0, 1019.0, 1018.0, 1018.0, 1018.0, 1018.0, 1018.0, 1018.0, 1018.0, 1018.0, 1018.0, 1018.0, 1018.0, 1018.0, 1019.0, 1018.0, 1018.0, 1019.0, 1018.0, 1018.0, 1018.0, 1018.0, 1018.0, 1018.0, 1018.0, 1019.0, 1018.0, 1018.0, 1018.0, 1019.0, 1018.0, 1018.0, 1018.0, 1018.0, 1017.0, 1018.0, 1018.0, 1018.0, 1018.0, 1018.0, 1018.0, 1018.0, 1018.0, 1017.0, 1018.0, 1017.0, 1018.0, 1018.0, 1018.0, 1017.0, 1017.0, 1017.0, 1017.0, 1018.0, 1017.0, 1017.0, 1017.0, 1017.0, 1017.0, 1018.0, 1017.0, 1017.0, 1017.0, 1018.0, 1017.0, 1017.0, 1017.0, 1017.0, 1017.0, 1017.0, 1017.0, 1017.0, 1017.0, 1017.0, 1018.0, 1017.0, 1017.0, 1017.0, 1017.0, 1017.0, 1017.0, 1017.0, 1017.0, 1017.0, 1017.0, 1017.0, 1017.0, 1017.0, 1017.0, 1017.0, 1017.0, 1017.0, 1017.0, 1017.0, 1017.0, 1017.0, 1017.0, 1017.0],
      "WindowWidth": [2254.0, 2254.0, 2254.0, 2254.0, 2254.0, 2254.0, 2254.0, 2254.0, 2254.0, 2254.0, 2254.0, 2254.0, 2254.0, 2254.0, 2254.0, 2253.0, 2254.0, 2253.0, 2253.0, 2253.0, 2253.0, 2254.0, 2253.0, 2254.0, 2253.0, 2253.0, 2253.0, 2253.0, 2253.0, 2253.0, 2253.0, 2253.0, 2253.0, 2253.0, 2252.0, 2252.0, 2252.0, 2252.0, 2252.0, 2252.0, 2252.0, 2252.0, 2252.0, 2252.0, 2252.0, 2252.0, 2252.0, 2251.0, 2252.0, 2251.0, 2251.0, 2251.0, 2251.0, 2252.0, 2251.0, 2251.0, 2251.0, 2251.0, 2251.0, 2251.0, 2251.0, 2251.0, 2251.0, 2251.0, 2251.0, 2251.0, 2251.0, 2251.0, 2251.0, 2251.0, 2251.0, 2251.0, 2251.0, 2251.0, 2251.0, 2251.0, 2251.0, 2251.0, 2250.0, 2251.0, 2250.0, 2251.0, 2250.0, 2250.0, 2250.0, 2251.0, 2250.0, 2250.0, 2250.0, 2250.0, 2250.0, 2250.0, 2250.0, 2250.0, 2251.0, 2250.0, 2250.0, 2250.0, 2250.0, 2250.0, 2250.0, 2250.0, 2250.0, 2250.0, 2249.0, 2249.0, 2249.0, 2249.0, 2249.0, 2249.0, 2249.0, 2249.0, 2249.0, 2249.0, 2249.0, 2249.0, 2250.0, 2249.0, 2249.0, 2249.0, 2249.0, 2249.0, 2249.0, 2249.0, 2249.0, 2249.0, 2249.0, 2249.0, 2249.0, 2248.0, 2249.0, 2249.0, 2249.0, 2248.0, 2249.0, 2248.0, 2248.0, 2248.0, 2248.0, 2249.0, 2248.0, 2248.0, 2248.0, 2248.0, 2248.0, 2248.0, 2249.0, 2248.0, 2248.0, 2248.0, 2248.0, 2248.0, 2248.0, 2248.0, 2248.0, 2248.0, 2248.0, 2248.0, 2248.0, 2248.0, 2248.0, 2248.0, 2248.0, 2248.0, 2248.0, 2248.0, 2247.0, 2248.0, 2247.0, 2248.0, 2248.0, 2248.0, 2248.0, 2248.0, 2248.0, 2247.0, 2248.0, 2247.0, 2247.0, 2248.0, 2248.0, 2247.0, 2247.0, 2247.0, 2247.0, 2247.0, 2247.0, 2247.0, 2247.0, 2247.0, 2247.0, 2247.0, 2247.0, 2247.0, 2247.0, 2247.0, 2247.0, 2247.0, 2247.0, 2247.0]
    },
    "slices": {}
  }
}