{
  "AcquisitionMatrixPE": 80,
  "AcquisitionNumber": 1,
  "AcquisitionTime": "09:07:32.617500",
  "BandwidthPerPixelPhaseEncode": 48.077,
  "BaseResolution": 80,
  "BodyPartExamined": "BRAIN",
  "CoilCombinationMethod": "Sum of Squares",
  "ConsistencyInfo": "N4_VE11E_LATEST_20181129",
  "ConversionSoftware": "dcm2niix",
  "ConversionSoftwareVersion": "v1.0.20220720",
  "DerivedVendorReportedEchoSpacing": 0.000519999,
  "DeviceSerialNumber": "66112",
  "DwellTime": 2.7e-06,
  "EchoTime": 0.035,
  "EchoTrainLength": 39,
  "EffectiveEchoSpacing": 0.00026,
  "FlipAngle": 90,
  "HeudiconvVersion": "0.13.1",
  "ImageOrientationPatientDICOM": [0.989518, 0.144035, 0.0104018, -0.140301, 0.941802, 0.305492],
  "ImageOrientationText": "Tra>Cor(17.7)>Sag(-2.0)",
  "ImageType": [
    "ORIGINAL",
    "PRIMARY",
    "M",
    "ND",
    "NORM",
    "MOSAIC"
],
  "ImagingFrequency": 123.261,
  "InPlanePhaseEncodingDirectionDICOM": "COL",
  "InstitutionAddress": "Maynard 3,Hanover,NH,US,03755",
  "InstitutionName": "Dartmouth College - PBS",
  "InstitutionalDepartmentName": "Department",
  "MRAcquisitionType": "2D",
  "MagneticFieldStrength": 3,
  "Manufacturer": "Siemens",
  "ManufacturersModelName": "Prisma",
  "MatrixCoilMode": "GRAPPA",
  "Modality": "MR",
  "NonlinearGradientCorrection": false,
  "ParallelReductionFactorInPlane": 2,
  "PartialFourier": 1,
  "PatientPosition": "HFS",
  "PercentPhaseFOV": 100,
  "PercentSampling": 100,
  "PhaseEncodingDirection": "j-",
  "PhaseEncodingSteps": 79,
  "PhaseResolution": 1,
  "PixelBandwidth": 2315,
  "ProcedureStepDescription": "dbic^QA",
  "ProtocolName": "func-bold_task-rest_acq-p2",
  "PulseSequenceDetails": "%SiemensSeq%\\ep2d_bold",
  "ReceiveCoilActiveElements": "HEA;HEP",
  "ReceiveCoilName": "Head_32",
  "ReconMatrixPE": 80,
  "RefLinesPE": 24,
  "RepetitionTime": 2,
  "SAR": 0.0469923,
  "ScanOptions": "FS",
  "ScanningSequence": "EP",
  "SequenceName": "*epfid2d1_80",
  "SequenceVariant": "SK",
  "SeriesDescription": "func-bold_task-rest_acq-p2",
  "SeriesNumber": 5,
  "ShimSetting": [4246, -7738, -7487, -41, -181, -41, 0, 78],
  "SliceThickness": 3.5,
  "SliceTiming": [0.99, 0, 1.055, 0.065, 1.12, 0.1325, 1.1875, 0.1975, 1.2525, 0.2625, 1.32, 0.33, 1.385, 0.395, 1.45, 0.4625, 1.5175, 0.5275, 1.5825, 0.5925, 1.65, 0.66, 1.715, 0.725, 1.78, 0.7925, 1.8475, 0.8575, 1.9125, 0.9225],
  "SoftwareVersions": "syngo MR E11",
  "SpacingBetweenSlices": 3.99,
  "StationName": "AWP66112",
  "TaskName": "rest",
  "TotalReadoutTime": 0.02054,
  "TxRefAmp": 221.215,
  "dcmmeta_affine": [
    [-2.9685537815093994, -0.42090195417404175, -0.13647854328155518, 139.599365234375],
    [-0.4321048855781555, 2.8254048824310303, 1.2119596004486084, -107.36978149414062],
    [0.031205270439386368, -0.9164762496948242, 3.79902982711792, -26.95749282836914],
    [0.0, 0.0, 0.0, 1.0]
],
  "dcmmeta_reorient_transform": [
    [0.0, -1.0, 0.0, 79.0],
    [1.0, 0.0, 0.0, 0.0],
    [0.0, 0.0, 1.0, 0.0],
    [0.0, 0.0, 0.0, 1.0]
],
  "dcmmeta_shape": [80, 80, 30, 200],
  "dcmmeta_slice_dim": 2,
  "dcmmeta_version": 0.6,
  "global": {
    "const": {
      "AccessionNumber": "qa",
      "AcquisitionMatrix": [80, 0, 0, 80],
      "AngioFlag": "N",
      "BitsAllocated": 16,
      "BitsStored": 12,
      "BodyPartExamined": "BRAIN",
      "Columns": 480,
      "EchoNumbers": 1,
      "EchoTime": 35.0,
      "EchoTrainLength": 39,
      "FlipAngle": 90.0,
      "HighBit": 11,
      "ImageOrientationPatient": [0.98951793018946, 0.14403495854439, 0.01040175709617, -0.140300654782, 0.94180163261696, 0.30549208020466],
      "ImagePositionPatient": [-615.87847301474, -767.33915746479, -288.89541756241],
      "ImageType": [
        "ORIGINAL",
        "PRIMARY",
        "M",
        "ND",
        "NORM",
        "MOSAIC"
],
      "ImagedNucleus": "1H",
      "ImagingFrequency": 123.261259,
      "InPlanePhaseEncodingDirection": "COL",
      "MRAcquisitionType": "2D",
      "MagneticFieldStrength": 3.0,
      "Manufacturer": "SIEMENS",
      "ManufacturerModelName": "Prisma",
      "Modality": "MR",
      "NumberOfAverages": 1.0,
      "NumberOfPhaseEncodingSteps": 79,
      "PercentPhaseFieldOfView": 100.0,
      "PercentSampling": 100.0,
      "PerformedProcedureStepStartTime": "084147.868000",
      "PhotometricInterpretation": "MONOCHROME2",
      "PixelBandwidth": 2315.0,
      "PixelRepresentation": 0,
      "PixelSpacing": [3.0, 3.0],
      "ProtocolName": "func-bold_task-rest_acq-p2",
      "RepetitionTime": 2000.0,
      "Rows": 480,
      "SAR": 0.04699228380739,
      "SamplesPerPixel": 1,
      "ScanOptions": "FS",
      "ScanningSequence": "EP",
      "SequenceName": "*epfid2d1_80",
      "SequenceVariant": "SK",
      "SeriesDescription": "func-bold_task-rest_acq-p2",
      "SeriesNumber": 5,
      "SeriesTime": "090817.995000",
      "SliceLocation": -63.055757033598,
      "SliceThickness": 3.5,
      "SmallestImagePixelValue": 0,
      "SoftwareVersions": "syngo MR E11",
      "SpacingBetweenSlices": 3.9899999583488,
      "SpecificCharacterSet": "ISO_IR 100",
      "StudyID": "39",
      "StudyTime": "084147.818000",
      "TransmitCoilName": "Body",
      "VariableFlipAngleFlag": "N",
      "WindowCenterWidthExplanation": "Algo1"
    },
    "slices": {}
  },
  "time": {
    "samples": {
      "AcquisitionNumber": [1, 2, 3, 4, 5, 6, 7, 8, 9, 10, 11, 12, 13, 14, 15, 16, 17, 18, 19, 20, 21, 22, 23, 24, 25, 26, 27, 28, 29, 30, 31, 32, 33, 34, 35, 36, 37, 38, 39, 40, 41, 42, 43, 44, 45, 46, 47, 48, 49, 50, 51, 52, 53, 54, 55, 56, 57, 58, 59, 60, 61, 62, 63, 64, 65, 66, 67, 68, 69, 70, 71, 72, 73, 74, 75, 76, 77, 78, 79, 80, 81, 82, 83, 84, 85, 86, 87, 88, 89, 90, 91, 92, 93, 94, 95, 96, 97, 98, 99, 100, 101, 102, 103, 104, 105, 106, 107, 108, 109, 110, 111, 112, 113, 114, 115, 116, 117, 118, 119, 120, 121, 122, 123, 124, 125, 126, 127, 128, 129, 130, 131, 132, 133, 134, 135, 136, 137, 138, 139, 140, 141, 142, 143, 144, 145, 146, 147, 148, 149, 150, 151, 152, 153, 154, 155, 156, 157, 158, 159, 160, 161, 162, 163, 164, 165, 166, 167, 168, 169, 170, 171, 172, 173, 174, 175, 176, 177, 178, 179, 180, 181, 182, 183, 184, 185, 186, 187, 188, 189, 190, 191, 192, 193, 194, 195, 196, 197, 198, 199, 200],
      "AcquisitionTime": ["090732.617500", "090734.617500", "090736.617500", "090738.617500", "090740.617500", "090742.617500", "090744.617500", "090746.617500", "090748.617500", "090750.617500", "090752.617500", "090754.617500", "090756.617500", "090758.617500", "090800.617500", "090802.617500", "090804.617500", "090806.617500", "090808.617500", "090810.617500", "090812.617500", "090814.617500", "090816.617500", "090818.617500", "090820.617500", "090822.617500", "090824.617500", "090826.617500", "090828.617500", "090830.617500", "090832.617500", "090834.617500", "090836.617500", "090838.617500", "090840.617500", "090842.617500", "090844.617500", "090846.617500", "090848.617500", "090850.617500", "090852.617500", "090854.617500", "090856.617500", "090858.617500", "090900.617500", "090902.617500", "090904.617500", "090906.617500", "090908.617500", "090910.617500", "090912.617500", "090914.617500", "090916.617500", "090918.617500", "090920.617500", "090922.617500", "090924.617500", "090926.617500", "090928.617500", "090930.617500", "090932.617500", "090934.617500", "090936.617500", "090938.617500", "090940.617500", "090942.617500", "090944.617500", "090946.617500", "090948.617500", "090950.617500", "090952.617500", "090954.617500", "090956.617500", "090958.617500", "091000.617500", "091002.617500", "091004.617500", "091006.617500", "091008.617500", "091010.617500", "091012.617500", "091014.617500", "091016.617500", "091018.617500", "091020.617500", "091022.617500", "091024.617500", "091026.617500", "091028.617500", "091030.617500", "091032.617500", "091034.617500", "091036.617500", "091038.617500", "091040.617500", "091042.617500", "091044.617500", "091046.617500", "091048.617500", "091050.617500", "091052.617500", "091054.617500", "091056.617500", "091058.617500", "091100.617500", "091102.617500", "091104.617500", "091106.617500", "091108.617500", "091110.617500", "091112.617500", "091114.617500", "091116.617500", "091118.617500", "091120.617500", "091122.617500", "091124.617500", "091126.617500", "091128.617500", "091130.617500", "091132.617500", "091134.617500", "091136.617500", "091138.617500", "091140.617500", "091142.617500", "091144.617500", "091146.617500", "091148.617500", "091150.617500", "091152.617500", "091154.617500", "091156.617500", "091158.617500", "091200.617500", "091202.617500", "091204.617500", "091206.617500", "091208.617500", "091210.617500", "091212.617500", "091214.617500", "091216.617500", "091218.617500", "091220.617500", "091222.617500", "091224.617500", "091226.617500", "091228.617500", "091230.617500", "091232.617500", "091234.617500", "091236.617500", "091238.617500", "091240.617500", "091242.617500", "091244.617500", "091246.617500", "091248.617500", "091250.617500", "091252.617500", "091254.617500", "091256.617500", "091258.617500", "091300.617500", "091302.617500", "091304.617500", "091306.617500", "091308.617500", "091310.617500", "091312.617500", "091314.617500", "091316.617500", "091318.617500", "091320.617500", "091322.617500", "091324.617500", "091326.617500", "091328.617500", "091330.617500", "091332.617500", "091334.617500", "091336.617500", "091338.617500", "091340.617500", "091342.617500", "091344.617500", "091346.617500", "091348.617500", "091350.617500", "091352.617500", "091354.617500", "091356.617500", "091358.617500", "091400.617500", "091402.617500", "091404.617500", "091406.617500", "091408.617500", "091410.617500"],
      "ContentTime": ["090818.000000", "090818.003000", "090818.005000", "090818.008000", "090818.010000", "090818.012000", "090818.015000", "090818.017000", "090818.019000", "090818.022000", "090818.024000", "090818.026000", "090818.029000", "090818.031000", "090818.033000", "090818.036000", "090818.038000", "090818.040000", "090818.042000", "090818.045000", "090818.047000", "090818.050000", "090857.979000", "090857.982000", "090857.984000", "090857.987000", "090857.989000", "090857.991000", "090857.993000", "090857.996000", "090857.998000", "090858.000000", "090858.003000", "090858.005000", "090858.007000", "090858.009000", "090858.012000", "090858.014000", "090858.016000", "090858.019000", "090858.021000", "090858.023000", "090917.978000", "090917.981000", "090917.983000", "090917.985000", "090917.988000", "090917.990000", "090917.992000", "090917.994000", "090917.997000", "090917.999000", "090957.979000", "090957.981000", "090957.984000", "090957.986000", "090957.988000", "090957.991000", "090957.993000", "090957.995000", "090957.998000", "090958.001000", "090958.003000", "090958.006000", "090958.008000", "090958.010000", "090958.013000", "090958.015000", "090958.017000", "090958.020000", "090958.022000", "090958.024000", "091037.979000", "091037.982000", "091037.984000", "091037.987000", "091037.989000", "091037.991000", "091037.993000", "091037.996000", "091037.998000", "091038.000000", "091038.003000", "091038.005000", "091038.007000", "091038.010000", "091038.012000", "091038.014000", "091038.017000", "091038.019000", "091038.021000", "091038.023000", "091117.979000", "091117.982000", "091117.984000", "091117.986000", "091117.989000", "091117.991000", "091117.993000", "091117.996000", "091117.998000", "091118.001000", "091118.004000", "091118.006000", "091118.008000", "091118.011000", "091118.013000", "091118.015000", "091118.018000", "091118.020000", "091118.022000", "091118.025000", "091157.979000", "091157.982000", "091157.984000", "091157.986000", "091157.989000", "091157.991000", "091157.993000", "091157.996000", "091157.998000", "091158.001000", "091158.004000", "091158.006000", "091158.008000", "091158.010000", "091158.013000", "091158.015000", "091158.017000", "091158.020000", "091158.022000", "091158.024000", "091237.979000", "091237.982000", "091237.984000", "091237.986000", "091237.989000", "091237.991000", "091237.993000", "091237.996000", "091237.998000", "091238.000000", "091238.003000", "091238.005000", "091238.007000", "091238.009000", "091238.012000", "091238.014000", "091238.016000", "091238.019000", "091238.021000", "091238.023000", "091317.979000", "091317.982000", "091317.984000", "091317.986000", "091317.989000", "091317.991000", "091317.993000", "091317.996000", "091317.998000", "091318.001000", "091318.003000", "091318.006000", "091318.008000", "091318.011000", "091318.013000", "091318.015000", "091318.018000", "091318.020000", "091318.022000", "091318.024000", "091357.978000", "091357.981000", "091357.983000", "091357.985000", "091357.988000", "091357.990000", "091357.992000", "091357.995000", "091357.997000", "091358.000000", "091358.003000", "091358.005000", "091358.007000", "091358.010000", "091358.012000", "091358.014000", "091358.017000", "091358.019000", "091358.021000", "091358.024000", "091412.291000", "091412.294000", "091412.297000", "091412.299000", "091412.301000", "091412.304000", "091412.306000", "091412.308000"],
      "InstanceCreationTime": ["090818.000000", "090818.003000", "090818.005000", "090818.008000", "090818.010000", "090818.012000", "090818.015000", "090818.017000", "090818.019000", "090818.022000", "090818.024000", "090818.026000", "090818.029000", "090818.031000", "090818.033000", "090818.036000", "090818.038000", "090818.040000", "090818.042000", "090818.045000", "090818.047000", "090818.050000", "090857.979000", "090857.982000", "090857.984000", "090857.987000", "090857.989000", "090857.991000", "090857.993000", "090857.996000", "090857.998000", "090858.000000", "090858.003000", "090858.005000", "090858.007000", "090858.009000", "090858.012000", "090858.014000", "090858.016000", "090858.019000", "090858.021000", "090858.023000", "090917.978000", "090917.981000", "090917.983000", "090917.985000", "090917.988000", "090917.990000", "090917.992000", "090917.994000", "090917.997000", "090917.999000", "090957.979000", "090957.981000", "090957.984000", "090957.986000", "090957.988000", "090957.991000", "090957.993000", "090957.995000", "090957.998000", "090958.001000", "090958.003000", "090958.006000", "090958.008000", "090958.010000", "090958.013000", "090958.015000", "090958.017000", "090958.020000", "090958.022000", "090958.024000", "091037.979000", "091037.982000", "091037.984000", "091037.987000", "091037.989000", "091037.991000", "091037.993000", "091037.996000", "091037.998000", "091038.000000", "091038.003000", "091038.005000", "091038.007000", "091038.010000", "091038.012000", "091038.014000", "091038.017000", "091038.019000", "091038.021000", "091038.023000", "091117.979000", "091117.982000", "091117.984000", "091117.986000", "091117.989000", "091117.991000", "091117.993000", "091117.996000", "091117.998000", "091118.001000", "091118.004000", "091118.006000", "091118.008000", "091118.011000", "091118.013000", "091118.015000", "091118.018000", "091118.020000", "091118.022000", "091118.025000", "091157.979000", "091157.982000", "091157.984000", "091157.986000", "091157.989000", "091157.991000", "091157.993000", "091157.996000", "091157.998000", "091158.001000", "091158.004000", "091158.006000", "091158.008000", "091158.010000", "091158.013000", "091158.015000", "091158.017000", "091158.020000", "091158.022000", "091158.024000", "091237.979000", "091237.982000", "091237.984000", "091237.986000", "091237.989000", "091237.991000", "091237.993000", "091237.996000", "091237.998000", "091238.000000", "091238.003000", "091238.005000", "091238.007000", "091238.009000", "091238.012000", "091238.014000", "091238.016000", "091238.019000", "091238.021000", "091238.023000", "091317.979000", "091317.982000", "091317.984000", "091317.986000", "091317.989000", "091317.991000", "091317.993000", "091317.996000", "091317.998000", "091318.001000", "091318.003000", "091318.006000", "091318.008000", "091318.011000", "091318.013000", "091318.015000", "091318.018000", "091318.020000", "091318.022000", "091318.024000", "091357.978000", "091357.981000", "091357.983000", "091357.985000", "091357.988000", "091357.990000", "091357.992000", "091357.995000", "091357.997000", "091358.000000", "091358.003000", "091358.005000", "091358.007000", "091358.010000", "091358.012000", "091358.014000", "091358.017000", "091358.019000", "091358.021000", "091358.024000", "091412.291000", "091412.294000", "091412.297000", "091412.299000", "091412.301000", "091412.304000", "091412.306000", "091412.308000"],
      "InstanceNumber": [1, 2, 3, 4, 5, 6, 7, 8, 9, 10, 11, 12, 13, 14, 15, 16, 17, 18, 19, 20, 21, 22, 23, 24, 25, 26, 27, 28, 29, 30, 31, 32, 33, 34, 35, 36, 37, 38, 39, 40, 41, 42, 43, 44, 45, 46, 47, 48, 49, 50, 51, 52, 53, 54, 55, 56, 57, 58, 59, 60, 61, 62, 63, 64, 65, 66, 67, 68, 69, 70, 71, 72, 73, 74, 75, 76, 77, 78, 79, 80, 81, 82, 83, 84, 85, 86, 87, 88, 89, 90, 91, 92, 93, 94, 95, 96, 97, 98, 99, 100, 101, 102, 103, 104, 105, 106, 107, 108, 109, 110, 111, 112, 113, 114, 115, 116, 117, 118, 119, 120, 121, 122, 123, 124, 125, 126, 127, 128, 129, 130, 131, 132, 133, 134, 135, 136, 137, 138, 139, 140, 141, 142, 143, 144, 145, 146, 147, 148, 149, 150, 151, 152, 153, 154, 155, 156, 157, 158, 159, 160, 161, 162, 163, 164, 165, 166, 167, 168, 169, 170, 171, 172, 173, 174, 175, 176, 177, 178, 179, 180, 181, 182, 183, 184, 185, 186, 187, 188, 189, 190, 191, 192, 193, 194, 195, 196, 197, 198, 199, 200],
      "LargestImagePixelValue": [2235, 2227, 2222, 2239, 2237, 2234, 2234, 2234, 2234, 2243, 2226, 2233, 2222, 2234, 2224, 2235, 2222, 2228, 2232, 2227, 2237, 2235, 2228, 2222, 2228, 2230, 2235, 2234, 2226, 2235, 2223, 2226, 2228, 2225, 2234, 2227, 2222, 2230, 2228, 2222, 2233, 2231, 2222, 2232, 2230, 2217, 2228, 2227, 2236, 2226, 2229, 2229, 2226, 2232, 2225, 2233, 2229, 2225, 2226, 2231, 2221, 2225, 2228, 2228, 2221, 2213, 2226, 2225, 2219, 2224, 2227, 2219, 2222, 2231, 2220, 2219, 2219, 2225, 2214, 2231, 2222, 2217, 2218, 2225, 2224, 2226, 2220, 2225, 2233, 2225, 2223, 2230, 2230, 2232, 2227, 2217, 2227, 2219, 2233, 2221, 2214, 2223, 2222, 2227, 2227, 2227, 2216, 2231, 2216, 2220, 2224, 2223, 2233, 2223, 2226, 2224, 2230, 2229, 2224, 2219, 2224, 2213, 2218, 2218, 2222, 2220, 2222, 2215, 2223, 2214, 2221, 2225, 2225, 2222, 2216, 2227, 2222, 2228, 2225, 2225, 2228, 2226, 2226, 2219, 2232, 2222, 2226, 2216, 2221, 2231, 2220, 2230, 2219, 2223, 2210, 2221, 2219, 2210, 2226, 2224, 2219, 2223, 2227, 2212, 2212, 2220, 2218, 2218, 2219, 2223, 2224, 2235, 2226, 2227, 2222, 2228, 2225, 2225, 2219, 2224, 2227, 2217, 2218, 2225, 2226, 2222, 2227, 2223, 2228, 2223, 2226, 2213, 2219, 2217, 2214, 2221, 2215, 2227, 2220, 2217],
      "WindowCenter": [1025.0, 1024.0, 1024.0, 1024.0, 1024.0, 1024.0, 1024.0, 1024.0, 1024.0, 1024.0, 1024.0, 1024.0, 1024.0, 1024.0, 1025.0, 1024.0, 1024.0, 1024.0, 1024.0, 1024.0, 1024.0, 1024.0, 1024.0, 1024.0, 1024.0, 1024.0, 1024.0, 1024.0, 1024.0, 1025.0, 1024.0, 1024.0, 1024.0, 1024.0, 1024.0, 1024.0, 1024.0, 1024.0, 1024.0, 1024.0, 1024.0, 1024.0, 1024.0, 1024.0, 1024.0, 1024.0, 1024.0, 1024.0, 1024.0, 1024.0, 1024.0, 1024.0, 1024.0, 1024.0, 1024.0, 1024.0, 1024.0, 1024.0, 1024.0, 1024.0, 1024.0, 1024.0, 1024.0, 1024.0, 1024.0, 1024.0, 1024.0, 1024.0, 1024.0, 1024.0, 1024.0, 1024.0, 1024.0, 1024.0, 1024.0, 1024.0, 1024.0, 1024.0, 1024.0, 1024.0, 1024.0, 1024.0, 1024.0, 1024.0, 1024.0, 1024.0, 1024.0, 1024.0, 1024.0, 1024.0, 1024.0, 1024.0, 1024.0, 1024.0, 1024.0, 1024.0, 1024.0, 1023.0, 1024.0, 1024.0, 1024.0, 1024.0, 1024.0, 1024.0, 1024.0, 1024.0, 1024.0, 1024.0, 1024.0, 1023.0, 1024.0, 1023.0, 1023.0, 1023.0, 1024.0, 1023.0, 1024.0, 1024.0, 1023.0, 1023.0, 1023.0, 1023.0, 1023.0, 1023.0, 1023.0, 1023.0, 1023.0, 1023.0, 1024.0, 1023.0, 1023.0, 1023.0, 1023.0, 1023.0, 1023.0, 1024.0, 1023.0, 1023.0, 1023.0, 1023.0, 1023.0, 1023.0, 1023.0, 1023.0, 1023.0, 1023.0, 1023.0, 1023.0, 1023.0, 1023.0, 1023.0, 1023.0, 1023.0, 1023.0, 1023.0, 1023.0, 1023.0, 1023.0, 1023.0, 1023.0, 1023.0, 1023.0, 1023.0, 1023.0, 1023.0, 1023.0, 1023.0, 1023.0, 1024.0, 1023.0, 1023.0, 1023.0, 1023.0, 1023.0, 1023.0, 1023.0, 1023.0, 1023.0, 1023.0, 1023.0, 1023.0, 1024.0, 1023.0, 1023.0, 1023.0, 1023.0, 1023.0, 1023.0, 1023.0, 1023.0, 1023.0, 1023.0, 1023.0, 1023.0, 1023.0, 1023.0, 1023.0, 1023.0, 1023.0, 1023.0],
      "WindowWidth": [2286.0, 2285.0, 2285.0, 2285.0, 2285.0, 2285.0, 2285.0, 2285.0, 2285.0, 2285.0, 2285.0, 2285.0, 2285.0, 2285.0, 2286.0, 2285.0, 2285.0, 2285.0, 2285.0, 2285.0, 2285.0, 2285.0, 2285.0, 2285.0, 2285.0, 2284.0, 2285.0, 2284.0, 2284.0, 2286.0, 2284.0, 2284.0, 2284.0, 2284.0, 2284.0, 2284.0, 2284.0, 2284.0, 2284.0, 2284.0, 2284.0, 2284.0, 2284.0, 2284.0, 2284.0, 2284.0, 2284.0, 2284.0, 2284.0, 2284.0, 2284.0, 2284.0, 2284.0, 2284.0, 2284.0, 2284.0, 2284.0, 2284.0, 2284.0, 2284.0, 2284.0, 2284.0, 2284.0, 2284.0, 2284.0, 2284.0, 2283.0, 2284.0, 2283.0, 2284.0, 2284.0, 2283.0, 2283.0, 2283.0, 2283.0, 2283.0, 2283.0, 2283.0, 2283.0, 2283.0, 2283.0, 2283.0, 2283.0, 2284.0, 2283.0, 2283.0, 2283.0, 2283.0, 2283.0, 2283.0, 2283.0, 2283.0, 2283.0, 2284.0, 2283.0, 2283.0, 2283.0, 2283.0, 2283.0, 2283.0, 2283.0, 2283.0, 2283.0, 2283.0, 2283.0, 2283.0, 2283.0, 2284.0, 2283.0, 2283.0, 2283.0, 2283.0, 2283.0, 2283.0, 2283.0, 2283.0, 2283.0, 2283.0, 2283.0, 2283.0, 2283.0, 2283.0, 2283.0, 2283.0, 2283.0, 2282.0, 2283.0, 2283.0, 2283.0, 2283.0, 2283.0, 2283.0, 2282.0, 2282.0, 2282.0, 2282.0, 2282.0, 2283.0, 2283.0, 2282.0, 2283.0, 2283.0, 2282.0, 2282.0, 2283.0, 2282.0, 2282.0, 2282.0, 2282.0, 2283.0, 2282.0, 2283.0, 2282.0, 2282.0, 2282.0, 2282.0, 2282.0, 2282.0, 2283.0, 2282.0, 2283.0, 2283.0, 2282.0, 2282.0, 2282.0, 2282.0, 2282.0, 2282.0, 2283.0, 2282.0, 2282.0, 2282.0, 2282.0, 2282.0, 2282.0, 2282.0, 2282.0, 2282.0, 2282.0, 2282.0, 2282.0, 2283.0, 2282.0, 2282.0, 2282.0, 2282.0, 2282.0, 2282.0, 2282.0, 2282.0, 2282.0, 2282.0, 2282.0, 2282.0, 2282.0, 2282.0, 2281.0, 2282.0, 2282.0, 2282.0]
    },
    "slices": {}
  }
}