{
  "AcquisitionMatrixPE": 80,
  "AcquisitionNumber": 1,
  "AcquisitionTime": "09:28:3.447500",
  "BandwidthPerPixelPhaseEncode": 25,
  "BaseResolution": 80,
  "BodyPartExamined": "BRAIN",
  "CoilCombinationMethod": "Sum of Squares",
  "ConsistencyInfo": "N4_VE11E_LATEST_20181129",
  "ConversionSoftware": "dcm2niix",
  "ConversionSoftwareVersion": "v1.0.20220720",
  "DerivedVendorReportedEchoSpacing": 0.0005,
  "DeviceSerialNumber": "66112",
  "DwellTime": 2.7e-06,
  "EchoTime": 0.03,
  "EchoTrainLength": 80,
  "EffectiveEchoSpacing": 0.0005,
  "FlipAngle": 10,
  "HeudiconvVersion": "0.13.1",
  "ImageOrientationPatientDICOM": [0.989518, 0.144035, 0.0104018, -0.140301, 0.941802, 0.305492],
  "ImageOrientationText": "Tra>Cor(17.7)>Sag(-2.0)",
  "ImageType": [
    "ORIGINAL",
    "PRIMARY",
    "M",
    "ND",
    "NORM",
    "MOSAIC"
],
  "ImagingFrequency": 123.261,
  "InPlanePhaseEncodingDirectionDICOM": "COL",
  "InstitutionAddress": "Maynard 3,Hanover,NH,US,03755",
  "InstitutionName": "Dartmouth College - PBS",
  "InstitutionalDepartmentName": "Department",
  "MRAcquisitionType": "2D",
  "MagneticFieldStrength": 3,
  "Manufacturer": "Siemens",
  "ManufacturersModelName": "Prisma",
  "MatrixCoilMode": "SENSE",
  "Modality": "MR",
  "NonlinearGradientCorrection": false,
  "PartialFourier": 1,
  "PatientPosition": "HFS",
  "PercentPhaseFOV": 100,
  "PercentSampling": 100,
  "PhaseEncodingDirection": "j-",
  "PhaseEncodingSteps": 80,
  "PhaseResolution": 1,
  "PixelBandwidth": 2315,
  "ProcedureStepDescription": "dbic^QA",
  "ProtocolName": "func-bold_fa-10",
  "PulseSequenceDetails": "%SiemensSeq%\\ep2d_bold",
  "ReceiveCoilActiveElements": "HEA;HEP",
  "ReceiveCoilName": "Head_32",
  "ReconMatrixPE": 80,
  "RepetitionTime": 2,
  "SAR": 0.00990614,
  "ScanOptions": "FS",
  "ScanningSequence": "EP",
  "SequenceName": "*epfid2d1_80",
  "SequenceVariant": "SK",
  "SeriesDescription": "func-bold_fa-10",
  "SeriesNumber": 8,
  "ShimSetting": [4246, -7738, -7487, -41, -181, -40, 0, 78],
  "SliceThickness": 3.5,
  "SliceTiming": [0.99, 0, 1.055, 0.065, 1.1225, 0.1325, 1.1875, 0.1975, 1.255, 0.265, 1.32, 0.33, 1.385, 0.395, 1.4525, 0.4625, 1.5175, 0.5275, 1.585, 0.595, 1.65, 0.66, 1.715, 0.725, 1.7825, 0.7925, 1.8475, 0.8575, 1.915, 0.925],
  "SoftwareVersions": "syngo MR E11",
  "SpacingBetweenSlices": 3.99,
  "StationName": "AWP66112",
  "TotalReadoutTime": 0.0395,
  "TxRefAmp": 221.215,
  "dcmmeta_affine": [
    [-2.9685537815093994, -0.42090195417404175, -0.13647854328155518, 139.64537048339844],
    [-0.4321048855781555, 2.8254048824310303, 1.2119596004486084, -107.58383178710938],
    [0.031205270439386368, -0.9164762496948242, 3.79902982711792, -25.54236602783203],
    [0.0, 0.0, 0.0, 1.0]
],
  "dcmmeta_reorient_transform": [
    [0.0, -1.0, 0.0, 79.0],
    [1.0, 0.0, 0.0, 0.0],
    [0.0, 0.0, 1.0, 0.0],
    [0.0, 0.0, 0.0, 1.0]
],
  "dcmmeta_shape": [80, 80, 30, 200],
  "dcmmeta_slice_dim": 2,
  "dcmmeta_version": 0.6,
  "global": {
    "const": {
      "AccessionNumber": "qa",
      "AcquisitionMatrix": [80, 0, 0, 80],
      "AngioFlag": "N",
      "BitsAllocated": 16,
      "BitsStored": 12,
      "BodyPartExamined": "BRAIN",
      "Columns": 480,
      "EchoNumbers": 1,
      "EchoTime": 30.0,
      "EchoTrainLength": 80,
      "FlipAngle": 10.0,
      "HighBit": 11,
      "ImageOrientationPatient": [0.98951793018946, 0.14403495854439, 0.01040175709617, -0.140300654782, 0.94180163261696, 0.30549208020466],
      "ImagePositionPatient": [-615.92447349539, -767.12510621814, -287.48029076187],
      "ImageType": [
        "ORIGINAL",
        "PRIMARY",
        "M",
        "ND",
        "NORM",
        "MOSAIC"
],
      "ImagedNucleus": "1H",
      "ImagingFrequency": 123.261254,
      "InPlanePhaseEncodingDirection": "COL",
      "MRAcquisitionType": "2D",
      "MagneticFieldStrength": 3.0,
      "Manufacturer": "SIEMENS",
      "ManufacturerModelName": "Prisma",
      "Modality": "MR",
      "NumberOfAverages": 1.0,
      "NumberOfPhaseEncodingSteps": 80,
      "PercentPhaseFieldOfView": 100.0,
      "PercentSampling": 100.0,
      "PerformedProcedureStepStartTime": "084147.868000",
      "PhotometricInterpretation": "MONOCHROME2",
      "PixelBandwidth": 2315.0,
      "PixelRepresentation": 0,
      "PixelSpacing": [3.0, 3.0],
      "ProtocolName": "func-bold_fa-10",
      "RepetitionTime": 2000.0,
      "Rows": 480,
      "SAR": 0.00990613952313,
      "SamplesPerPixel": 1,
      "ScanOptions": "FS",
      "ScanningSequence": "EP",
      "SequenceName": "*epfid2d1_80",
      "SequenceVariant": "SK",
      "SeriesDescription": "func-bold_fa-10",
      "SeriesNumber": 8,
      "SeriesTime": "092857.980000",
      "SliceLocation": -61.774952675274,
      "SliceThickness": 3.5,
      "SmallestImagePixelValue": 0,
      "SoftwareVersions": "syngo MR E11",
      "SpacingBetweenSlices": 3.9899999682674,
      "SpecificCharacterSet": "ISO_IR 100",
      "StudyID": "39",
      "StudyTime": "084147.818000",
      "TransmitCoilName": "Body",
      "VariableFlipAngleFlag": "N",
      "WindowCenterWidthExplanation": "Algo1"
    },
    "slices": {}
  },
  "time": {
    "samples": {
      "AcquisitionNumber": [1, 2, 3, 4, 5, 6, 7, 8, 9, 10, 11, 12, 13, 14, 15, 16, 17, 18, 19, 20, 21, 22, 23, 24, 25, 26, 27, 28, 29, 30, 31, 32, 33, 34, 35, 36, 37, 38, 39, 40, 41, 42, 43, 44, 45, 46, 47, 48, 49, 50, 51, 52, 53, 54, 55, 56, 57, 58, 59, 60, 61, 62, 63, 64, 65, 66, 67, 68, 69, 70, 71, 72, 73, 74, 75, 76, 77, 78, 79, 80, 81, 82, 83, 84, 85, 86, 87, 88, 89, 90, 91, 92, 93, 94, 95, 96, 97, 98, 99, 100, 101, 102, 103, 104, 105, 106, 107, 108, 109, 110, 111, 112, 113, 114, 115, 116, 117, 118, 119, 120, 121, 122, 123, 124, 125, 126, 127, 128, 129, 130, 131, 132, 133, 134, 135, 136, 137, 138, 139, 140, 141, 142, 143, 144, 145, 146, 147, 148, 149, 150, 151, 152, 153, 154, 155, 156, 157, 158, 159, 160, 161, 162, 163, 164, 165, 166, 167, 168, 169, 170, 171, 172, 173, 174, 175, 176, 177, 178, 179, 180, 181, 182, 183, 184, 185, 186, 187, 188, 189, 190, 191, 192, 193, 194, 195, 196, 197, 198, 199, 200],
      "AcquisitionTime": ["092803.447500", "092805.447500", "092807.447500", "092809.447500", "092811.447500", "092813.447500", "092815.447500", "092817.447500", "092819.447500", "092821.447500", "092823.447500", "092825.447500", "092827.447500", "092829.447500", "092831.447500", "092833.447500", "092835.447500", "092837.447500", "092839.447500", "092841.447500", "092843.447500", "092845.447500", "092847.447500", "092849.447500", "092851.447500", "092853.447500", "092855.447500", "092857.447500", "092859.447500", "092901.447500", "092903.447500", "092905.447500", "092907.447500", "092909.447500", "092911.447500", "092913.447500", "092915.447500", "092917.447500", "092919.447500", "092921.447500", "092923.447500", "092925.447500", "092927.447500", "092929.447500", "092931.447500", "092933.447500", "092935.447500", "092937.447500", "092939.447500", "092941.447500", "092943.447500", "092945.447500", "092947.447500", "092949.447500", "092951.447500", "092953.447500", "092955.447500", "092957.447500", "092959.447500", "093001.447500", "093003.447500", "093005.447500", "093007.447500", "093009.447500", "093011.447500", "093013.447500", "093015.447500", "093017.447500", "093019.447500", "093021.447500", "093023.447500", "093025.447500", "093027.447500", "093029.447500", "093031.447500", "093033.447500", "093035.447500", "093037.447500", "093039.447500", "093041.447500", "093043.447500", "093045.447500", "093047.447500", "093049.447500", "093051.447500", "093053.447500", "093055.447500", "093057.447500", "093059.447500", "093101.447500", "093103.447500", "093105.447500", "093107.447500", "093109.447500", "093111.447500", "093113.447500", "093115.447500", "093117.447500", "093119.447500", "093121.447500", "093123.447500", "093125.447500", "093127.447500", "093129.447500", "093131.447500", "093133.447500", "093135.447500", "093137.447500", "093139.447500", "093141.447500", "093143.447500", "093145.447500", "093147.447500", "093149.447500", "093151.447500", "093153.447500", "093155.447500", "093157.447500", "093159.447500", "093201.447500", "093203.447500", "093205.447500", "093207.447500", "093209.447500", "093211.447500", "093213.447500", "093215.447500", "093217.447500", "093219.447500", "093221.447500", "093223.447500", "093225.447500", "093227.447500", "093229.447500", "093231.447500", "093233.447500", "093235.447500", "093237.447500", "093239.447500", "093241.447500", "093243.447500", "093245.447500", "093247.447500", "093249.447500", "093251.447500", "093253.447500", "093255.447500", "093257.447500", "093259.447500", "093301.447500", "093303.447500", "093305.447500", "093307.447500", "093309.447500", "093311.447500", "093313.447500", "093315.447500", "093317.447500", "093319.447500", "093321.447500", "093323.447500", "093325.447500", "093327.447500", "093329.447500", "093331.447500", "093333.447500", "093335.447500", "093337.447500", "093339.447500", "093341.447500", "093343.447500", "093345.447500", "093347.447500", "093349.447500", "093351.447500", "093353.447500", "093355.447500", "093357.447500", "093359.447500", "093401.447500", "093403.447500", "093405.447500", "093407.447500", "093409.447500", "093411.447500", "093413.447500", "093415.447500", "093417.447500", "093419.447500", "093421.447500", "093423.447500", "093425.447500", "093427.447500", "093429.447500", "093431.447500", "093433.447500", "093435.447500", "093437.447500", "093439.447500", "093441.447500"],
      "ContentTime": ["092857.984000", "092857.987000", "092857.989000", "092857.991000", "092857.993000", "092857.996000", "092857.998000", "092858.001000", "092858.003000", "092858.006000", "092858.008000", "092858.010000", "092858.012000", "092858.015000", "092858.017000", "092858.019000", "092858.021000", "092858.024000", "092858.026000", "092858.028000", "092858.030000", "092858.033000", "092858.035000", "092858.037000", "092858.040000", "092858.051000", "092858.053000", "092937.979000", "092937.982000", "092937.984000", "092937.986000", "092937.989000", "092937.991000", "092937.993000", "092937.995000", "092937.998000", "092938.001000", "092938.003000", "092938.006000", "092938.008000", "092938.010000", "092938.012000", "092938.015000", "092938.017000", "092938.036000", "092938.038000", "092938.040000", "093017.979000", "093017.982000", "093017.984000", "093017.986000", "093017.988000", "093017.991000", "093017.993000", "093017.995000", "093017.997000", "093018.000000", "093018.002000", "093018.004000", "093018.007000", "093018.009000", "093018.011000", "093018.014000", "093018.016000", "093018.018000", "093018.020000", "093018.023000", "093057.979000", "093057.981000", "093057.984000", "093057.986000", "093057.988000", "093057.991000", "093057.993000", "093057.995000", "093057.997000", "093058.001000", "093058.003000", "093058.005000", "093058.007000", "093058.010000", "093058.012000", "093058.014000", "093058.017000", "093058.019000", "093058.021000", "093058.023000", "093137.979000", "093137.982000", "093137.984000", "093137.986000", "093137.988000", "093137.991000", "093137.993000", "093137.995000", "093137.998000", "093138.001000", "093138.003000", "093138.005000", "093138.008000", "093138.010000", "093138.012000", "093138.014000", "093138.017000", "093138.019000", "093138.021000", "093138.024000", "093217.979000", "093217.982000", "093217.984000", "093217.986000", "093217.989000", "093217.991000", "093217.993000", "093217.996000", "093217.998000", "093218.000000", "093218.002000", "093218.005000", "093218.007000", "093218.009000", "093218.011000", "093218.014000", "093218.016000", "093218.018000", "093218.021000", "093218.023000", "093257.979000", "093257.982000", "093257.984000", "093257.986000", "093257.989000", "093257.991000", "093257.993000", "093257.995000", "093257.998000", "093258.001000", "093258.003000", "093258.006000", "093258.008000", "093258.010000", "093258.012000", "093258.015000", "093258.017000", "093258.019000", "093258.021000", "093258.024000", "093337.979000", "093337.982000", "093337.984000", "093337.986000", "093337.989000", "093337.991000", "093337.993000", "093337.995000", "093337.998000", "093338.001000", "093338.003000", "093338.006000", "093338.008000", "093338.010000", "093338.012000", "093338.015000", "093338.017000", "093338.019000", "093338.021000", "093338.024000", "093417.979000", "093417.982000", "093417.984000", "093417.986000", "093417.989000", "093417.991000", "093417.993000", "093417.995000", "093417.998000", "093418.001000", "093418.003000", "093418.006000", "093418.008000", "093418.010000", "093418.013000", "093418.015000", "093418.017000", "093418.019000", "093418.022000", "093418.024000", "093442.714000", "093442.717000", "093442.719000", "093442.721000", "093442.724000", "093442.726000", "093442.728000", "093442.731000", "093442.733000", "093442.735000", "093442.738000", "093442.740000", "093442.743000"],
      "InstanceCreationTime": ["092857.984000", "092857.987000", "092857.989000", "092857.991000", "092857.993000", "092857.996000", "092857.998000", "092858.001000", "092858.003000", "092858.006000", "092858.008000", "092858.010000", "092858.012000", "092858.015000", "092858.017000", "092858.019000", "092858.021000", "092858.024000", "092858.026000", "092858.028000", "092858.030000", "092858.033000", "092858.035000", "092858.037000", "092858.040000", "092858.051000", "092858.053000", "092937.979000", "092937.982000", "092937.984000", "092937.986000", "092937.989000", "092937.991000", "092937.993000", "092937.995000", "092937.998000", "092938.001000", "092938.003000", "092938.006000", "092938.008000", "092938.010000", "092938.012000", "092938.015000", "092938.017000", "092938.036000", "092938.038000", "092938.040000", "093017.979000", "093017.982000", "093017.984000", "093017.986000", "093017.988000", "093017.991000", "093017.993000", "093017.995000", "093017.997000", "093018.000000", "093018.002000", "093018.004000", "093018.007000", "093018.009000", "093018.011000", "093018.014000", "093018.016000", "093018.018000", "093018.020000", "093018.023000", "093057.979000", "093057.981000", "093057.984000", "093057.986000", "093057.988000", "093057.991000", "093057.993000", "093057.995000", "093057.997000", "093058.001000", "093058.003000", "093058.005000", "093058.007000", "093058.010000", "093058.012000", "093058.014000", "093058.017000", "093058.019000", "093058.021000", "093058.023000", "093137.979000", "093137.982000", "093137.984000", "093137.986000", "093137.988000", "093137.991000", "093137.993000", "093137.995000", "093137.998000", "093138.001000", "093138.003000", "093138.005000", "093138.008000", "093138.010000", "093138.012000", "093138.014000", "093138.017000", "093138.019000", "093138.021000", "093138.024000", "093217.979000", "093217.982000", "093217.984000", "093217.986000", "093217.989000", "093217.991000", "093217.993000", "093217.996000", "093217.998000", "093218.000000", "093218.002000", "093218.005000", "093218.007000", "093218.009000", "093218.011000", "093218.014000", "093218.016000", "093218.018000", "093218.021000", "093218.023000", "093257.979000", "093257.982000", "093257.984000", "093257.986000", "093257.989000", "093257.991000", "093257.993000", "093257.995000", "093257.998000", "093258.001000", "093258.003000", "093258.006000", "093258.008000", "093258.010000", "093258.012000", "093258.015000", "093258.017000", "093258.019000", "093258.021000", "093258.024000", "093337.979000", "093337.982000", "093337.984000", "093337.986000", "093337.989000", "093337.991000", "093337.993000", "093337.995000", "093337.998000", "093338.001000", "093338.003000", "093338.006000", "093338.008000", "093338.010000", "093338.012000", "093338.015000", "093338.017000", "093338.019000", "093338.021000", "093338.024000", "093417.979000", "093417.982000", "093417.984000", "093417.986000", "093417.989000", "093417.991000", "093417.993000", "093417.995000", "093417.998000", "093418.001000", "093418.003000", "093418.006000", "093418.008000", "093418.010000", "093418.013000", "093418.015000", "093418.017000", "093418.019000", "093418.022000", "093418.024000", "093442.714000", "093442.717000", "093442.719000", "093442.721000", "093442.724000", "093442.726000", "093442.728000", "093442.731000", "093442.733000", "093442.735000", "093442.738000", "093442.740000", "093442.743000"],
      "InstanceNumber": [1, 2, 3, 4, 5, 6, 7, 8, 9, 10, 11, 12, 13, 14, 15, 16, 17, 18, 19, 20, 21, 22, 23, 24, 25, 26, 27, 28, 29, 30, 31, 32, 33, 34, 35, 36, 37, 38, 39, 40, 41, 42, 43, 44, 45, 46, 47, 48, 49, 50, 51, 52, 53, 54, 55, 56, 57, 58, 59, 60, 61, 62, 63, 64, 65, 66, 67, 68, 69, 70, 71, 72, 73, 74, 75, 76, 77, 78, 79, 80, 81, 82, 83, 84, 85, 86, 87, 88, 89, 90, 91, 92, 93, 94, 95, 96, 97, 98, 99, 100, 101, 102, 103, 104, 105, 106, 107, 108, 109, 110, 111, 112, 113, 114, 115, 116, 117, 118, 119, 120, 121, 122, 123, 124, 125, 126, 127, 128, 129, 130, 131, 132, 133, 134, 135, 136, 137, 138, 139, 140, 141, 142, 143, 144, 145, 146, 147, 148, 149, 150, 151, 152, 153, 154, 155, 156, 157, 158, 159, 160, 161, 162, 163, 164, 165, 166, 167, 168, 169, 170, 171, 172, 173, 174, 175, 176, 177, 178, 179, 180, 181, 182, 183, 184, 185, 186, 187, 188, 189, 190, 191, 192, 193, 194, 195, 196, 197, 198, 199, 200],
      "LargestImagePixelValue": [372, 371, 371, 371, 372, 371, 371, 372, 373, 372, 372, 371, 371, 372, 371, 372, 371, 371, 373, 371, 371, 371, 371, 372, 374, 372, 370, 371, 371, 372, 371, 370, 372, 373, 372, 372, 369, 371, 372, 371, 369, 370, 371, 372, 372, 371, 370, 373, 370, 371, 371, 372, 370, 371, 371, 369, 369, 374, 372, 370, 370, 371, 372, 371, 371, 370, 370, 372, 373, 370, 369, 372, 372, 371, 371, 371, 372, 372, 371, 371, 370, 372, 371, 372, 371, 371, 370, 372, 370, 371, 370, 370, 371, 371, 371, 369, 371, 372, 370, 369, 371, 371, 371, 370, 371, 370, 371, 369, 370, 371, 371, 372, 371, 369, 370, 371, 370, 371, 370, 369, 371, 373, 371, 369, 369, 370, 371, 370, 369, 370, 369, 372, 371, 370, 370, 371, 370, 371, 370, 371, 371, 370, 370, 369, 372, 373, 371, 369, 369, 372, 372, 372, 371, 370, 370, 371, 371, 371, 370, 370, 371, 372, 370, 370, 371, 372, 370, 370, 369, 372, 372, 371, 370, 370, 370, 371, 370, 369, 371, 370, 371, 371, 370, 370, 370, 372, 372, 369, 370, 372, 371, 370, 370, 371, 371, 372, 370, 369, 370, 371],
      "WindowCenter": [297.0, 297.0, 297.0, 297.0, 297.0, 297.0, 297.0, 297.0, 297.0, 297.0, 297.0, 297.0, 297.0, 297.0, 297.0, 297.0, 297.0, 297.0, 297.0, 297.0, 297.0, 297.0, 297.0, 297.0, 297.0, 297.0, 297.0, 297.0, 297.0, 297.0, 297.0, 297.0, 297.0, 297.0, 297.0, 297.0, 296.0, 297.0, 297.0, 297.0, 296.0, 297.0, 297.0, 297.0, 297.0, 297.0, 297.0, 297.0, 297.0, 297.0, 297.0, 297.0, 297.0, 297.0, 297.0, 296.0, 296.0, 297.0, 297.0, 297.0, 297.0, 297.0, 297.0, 297.0, 297.0, 297.0, 297.0, 297.0, 297.0, 297.0, 296.0, 297.0, 297.0, 297.0, 297.0, 297.0, 297.0, 297.0, 297.0, 297.0, 297.0, 297.0, 297.0, 297.0, 297.0, 297.0, 297.0, 297.0, 297.0, 297.0, 297.0, 297.0, 297.0, 297.0, 297.0, 296.0, 297.0, 297.0, 297.0, 296.0, 297.0, 297.0, 297.0, 297.0, 297.0, 297.0, 297.0, 296.0, 297.0, 297.0, 297.0, 297.0, 297.0, 296.0, 297.0, 297.0, 297.0, 297.0, 297.0, 296.0, 297.0, 297.0, 297.0, 296.0, 296.0, 296.0, 297.0, 296.0, 296.0, 297.0, 295.0, 296.0, 297.0, 297.0, 297.0, 297.0, 297.0, 297.0, 297.0, 297.0, 297.0, 297.0, 297.0, 296.0, 297.0, 297.0, 297.0, 296.0, 296.0, 297.0, 296.0, 296.0, 296.0, 297.0, 296.0, 297.0, 297.0, 297.0, 297.0, 297.0, 296.0, 297.0, 297.0, 297.0, 297.0, 296.0, 297.0, 297.0, 296.0, 296.0, 297.0, 296.0, 297.0, 297.0, 296.0, 297.0, 296.0, 296.0, 297.0, 297.0, 296.0, 297.0, 297.0, 296.0, 296.0, 297.0, 296.0, 295.0, 297.0, 296.0, 296.0, 297.0, 296.0, 296.0, 296.0, 296.0, 297.0, 295.0, 296.0, 296.0],
      "WindowWidth": [645.0, 645.0, 645.0, 645.0, 645.0, 645.0, 645.0, 645.0, 645.0, 645.0, 645.0, 645.0, 645.0, 645.0, 645.0, 645.0, 645.0, 645.0, 645.0, 645.0, 645.0, 645.0, 645.0, 645.0, 645.0, 645.0, 645.0, 645.0, 645.0, 645.0, 645.0, 645.0, 645.0, 645.0, 645.0, 645.0, 644.0, 645.0, 645.0, 644.0, 644.0, 645.0, 645.0, 644.0, 645.0, 645.0, 645.0, 645.0, 645.0, 645.0, 645.0, 644.0, 645.0, 644.0, 645.0, 644.0, 644.0, 645.0, 644.0, 645.0, 645.0, 645.0, 644.0, 645.0, 645.0, 645.0, 645.0, 645.0, 645.0, 645.0, 644.0, 644.0, 644.0, 644.0, 644.0, 645.0, 645.0, 644.0, 644.0, 645.0, 644.0, 644.0, 644.0, 645.0, 644.0, 645.0, 645.0, 645.0, 645.0, 645.0, 644.0, 644.0, 644.0, 644.0, 645.0, 644.0, 644.0, 644.0, 645.0, 643.0, 644.0, 644.0, 644.0, 644.0, 645.0, 644.0, 644.0, 644.0, 644.0, 644.0, 644.0, 644.0, 644.0, 644.0, 644.0, 645.0, 644.0, 644.0, 644.0, 643.0, 644.0, 644.0, 644.0, 644.0, 644.0, 643.0, 644.0, 643.0, 643.0, 644.0, 642.0, 644.0, 644.0, 644.0, 644.0, 644.0, 644.0, 644.0, 644.0, 644.0, 644.0, 644.0, 644.0, 643.0, 644.0, 644.0, 644.0, 643.0, 643.0, 644.0, 643.0, 644.0, 643.0, 644.0, 644.0, 644.0, 644.0, 645.0, 644.0, 644.0, 643.0, 644.0, 644.0, 644.0, 644.0, 643.0, 644.0, 644.0, 643.0, 643.0, 644.0, 643.0, 644.0, 644.0, 643.0, 644.0, 643.0, 643.0, 644.0, 644.0, 643.0, 644.0, 644.0, 643.0, 643.0, 644.0, 643.0, 642.0, 644.0, 643.0, 643.0, 644.0, 643.0, 643.0, 643.0, 643.0, 644.0, 642.0, 643.0, 643.0]
    },
    "slices": {}
  }
}