{
  "AcquisitionMatrixPE": 80,
  "AcquisitionNumber": 1,
  "AcquisitionTime": "09:14:27.082500",
  "BandwidthPerPixelPhaseEncode": 46.296,
  "BaseResolution": 80,
  "BodyPartExamined": "BRAIN",
  "CoilCombinationMethod": "Sum of Squares",
  "ConsistencyInfo": "N4_VE11E_LATEST_20181129",
  "ConversionSoftware": "dcm2niix",
  "ConversionSoftwareVersion": "v1.0.20220720",
  "DerivedVendorReportedEchoSpacing": 0.000540003,
  "DeviceSerialNumber": "66112",
  "DwellTime": 2.7e-06,
  "EchoTime": 0.035,
  "EchoTrainLength": 39,
  "EffectiveEchoSpacing": 0.000270002,
  "FlipAngle": 90,
  "HeudiconvVersion": "0.13.1",
  "ImageOrientationPatientDICOM": [0.989518, 0.144035, 0.0104018, -0.140301, 0.941802, 0.305492],
  "ImageOrientationText": "Tra>Cor(17.7)>Sag(-2.0)",
  "ImageType": [
    "ORIGINAL",
    "PRIMARY",
    "M",
    "ND",
    "NORM",
    "MOSAIC"
],
  "ImagingFrequency": 123.261,
  "InPlanePhaseEncodingDirectionDICOM": "COL",
  "InstitutionAddress": "Maynard 3,Hanover,NH,US,03755",
  "InstitutionName": "Dartmouth College - PBS",
  "InstitutionalDepartmentName": "Department",
  "MRAcquisitionType": "2D",
  "MagneticFieldStrength": 3,
  "Manufacturer": "Siemens",
  "ManufacturersModelName": "Prisma",
  "Modality": "MR",
  "MultibandAccelerationFactor": 4,
  "NonlinearGradientCorrection": false,
  "ParallelReductionFactorInPlane": 2,
  "PartialFourier": 1,
  "PatientPosition": "HFS",
  "PercentPhaseFOV": 100,
  "PercentSampling": 100,
  "PhaseEncodingDirection": "j-",
  "PhaseEncodingSteps": 79,
  "PhaseResolution": 1,
  "PixelBandwidth": 2315,
  "ProcedureStepDescription": "dbic^QA",
  "ProtocolName": "func-bold_task-rest_acq-p2-s4-3.5mm",
  "PulseSequenceDetails": "%SiemensSeq%\\ep2d_bold",
  "ReceiveCoilActiveElements": "HEA;HEP",
  "ReceiveCoilName": "Head_32",
  "ReconMatrixPE": 80,
  "RefLinesPE": 24,
  "RepetitionTime": 2,
  "SAR": 0.0176716,
  "ScanOptions": "FS",
  "ScanningSequence": "EP",
  "SequenceName": "*epfid2d1_80",
  "SequenceVariant": "SK",
  "SeriesDescription": "func-bold_task-rest_acq-p2-s4-3.5mm",
  "SeriesNumber": 6,
  "ShimSetting": [4246, -7739, -7487, -39, -180, -41, -1, 78],
  "SliceThickness": 3.5,
  "SliceTiming": [1.485, 0, 0.99, 0.2475, 1.2375, 0.7425, 1.7325, 0.495, 1.485, 0, 0.99, 0.2475, 1.2375, 0.7425, 1.7325, 0.495, 1.485, 0, 0.99, 0.2475, 1.2375, 0.7425, 1.7325, 0.495, 1.485, 0, 0.99, 0.2475, 1.2375, 0.7425, 1.7325, 0.495],
  "SoftwareVersions": "syngo MR E11",
  "SpacingBetweenSlices": 3.99,
  "StationName": "AWP66112",
  "TaskName": "rest",
  "TotalReadoutTime": 0.0213301,
  "TxRefAmp": 221.215,
  "dcmmeta_affine": [
    [-2.9685537815093994, -0.42090195417404175, -0.13647854328155518, 139.73583984375],
    [-0.4321048855781555, 2.8254048824310303, 1.2119596004486084, -108.58174133300781],
    [0.031205270439386368, -0.9164762496948242, 3.79902982711792, -30.75652313232422],
    [0.0, 0.0, 0.0, 1.0]
],
  "dcmmeta_reorient_transform": [
    [0.0, -1.0, 0.0, 79.0],
    [1.0, 0.0, 0.0, 0.0],
    [0.0, 0.0, 1.0, 0.0],
    [0.0, 0.0, 0.0, 1.0]
],
  "dcmmeta_shape": [80, 80, 32, 200],
  "dcmmeta_slice_dim": 2,
  "dcmmeta_version": 0.6,
  "global": {
    "const": {
      "AccessionNumber": "qa",
      "AcquisitionMatrix": [80, 0, 0, 80],
      "AngioFlag": "N",
      "BitsAllocated": 16,
      "BitsStored": 12,
      "BodyPartExamined": "BRAIN",
      "Columns": 480,
      "EchoNumbers": 1,
      "EchoTime": 35.0,
      "EchoTrainLength": 39,
      "FlipAngle": 90.0,
      "HighBit": 11,
      "ImageOrientationPatient": [0.98951793018946, 0.14403495854439, 0.01040175709617, -0.140300654782, 0.94180163261696, 0.30549208020466],
      "ImagePositionPatient": [-616.01495143881, -766.12719857959, -292.69444786636],
      "ImageType": [
        "ORIGINAL",
        "PRIMARY",
        "M",
        "ND",
        "NORM",
        "MOSAIC"
],
      "ImagedNucleus": "1H",
      "ImagingFrequency": 123.261253,
      "InPlanePhaseEncodingDirection": "COL",
      "MRAcquisitionType": "2D",
      "MagneticFieldStrength": 3.0,
      "Manufacturer": "SIEMENS",
      "ManufacturerModelName": "Prisma",
      "Modality": "MR",
      "NumberOfAverages": 1.0,
      "NumberOfPhaseEncodingSteps": 79,
      "PercentPhaseFieldOfView": 100.0,
      "PercentSampling": 100.0,
      "PerformedProcedureStepStartTime": "084147.868000",
      "PhotometricInterpretation": "MONOCHROME2",
      "PixelBandwidth": 2315.0,
      "PixelRepresentation": 0,
      "PixelSpacing": [3.0, 3.0],
      "ProtocolName": "func-bold_task-rest_acq-p2-s4-3.5mm",
      "RepetitionTime": 2000.0,
      "Rows": 480,
      "SAR": 0.01767160544965,
      "SamplesPerPixel": 1,
      "ScanOptions": "FS",
      "ScanningSequence": "EP",
      "SequenceName": "*epfid2d1_80",
      "SequenceVariant": "SK",
      "SeriesDescription": "func-bold_task-rest_acq-p2-s4-3.5mm",
      "SeriesNumber": 6,
      "SeriesTime": "091517.819000",
      "SliceLocation": -67.045757277959,
      "SliceThickness": 3.5,
      "SmallestImagePixelValue": 0,
      "SoftwareVersions": "syngo MR E11",
      "SpacingBetweenSlices": 3.9899999863101,
      "SpecificCharacterSet": "ISO_IR 100",
      "StudyID": "39",
      "StudyTime": "084147.818000",
      "TransmitCoilName": "Body",
      "VariableFlipAngleFlag": "N",
      "WindowCenterWidthExplanation": "Algo1"
    },
    "slices": {}
  },
  "time": {
    "samples": {
      "AcquisitionNumber": [1, 2, 3, 4, 5, 6, 7, 8, 9, 10, 11, 12, 13, 14, 15, 16, 17, 18, 19, 20, 21, 22, 23, 24, 25, 26, 27, 28, 29, 30, 31, 32, 33, 34, 35, 36, 37, 38, 39, 40, 41, 42, 43, 44, 45, 46, 47, 48, 49, 50, 51, 52, 53, 54, 55, 56, 57, 58, 59, 60, 61, 62, 63, 64, 65, 66, 67, 68, 69, 70, 71, 72, 73, 74, 75, 76, 77, 78, 79, 80, 81, 82, 83, 84, 85, 86, 87, 88, 89, 90, 91, 92, 93, 94, 95, 96, 97, 98, 99, 100, 101, 102, 103, 104, 105, 106, 107, 108, 109, 110, 111, 112, 113, 114, 115, 116, 117, 118, 119, 120, 121, 122, 123, 124, 125, 126, 127, 128, 129, 130, 131, 132, 133, 134, 135, 136, 137, 138, 139, 140, 141, 142, 143, 144, 145, 146, 147, 148, 149, 150, 151, 152, 153, 154, 155, 156, 157, 158, 159, 160, 161, 162, 163, 164, 165, 166, 167, 168, 169, 170, 171, 172, 173, 174, 175, 176, 177, 178, 179, 180, 181, 182, 183, 184, 185, 186, 187, 188, 189, 190, 191, 192, 193, 194, 195, 196, 197, 198, 199, 200],
      "AcquisitionTime": ["091427.082500", "091429.082500", "091431.082500", "091433.082500", "091435.082500", "091437.082500", "091439.082500", "091441.082500", "091443.082500", "091445.082500", "091447.082500", "091449.082500", "091451.082500", "091453.082500", "091455.082500", "091457.082500", "091459.082500", "091501.082500", "091503.082500", "091505.082500", "091507.082500", "091509.082500", "091511.082500", "091513.082500", "091515.082500", "091517.082500", "091519.082500", "091521.082500", "091523.082500", "091525.082500", "091527.082500", "091529.082500", "091531.082500", "091533.082500", "091535.082500", "091537.082500", "091539.082500", "091541.082500", "091543.082500", "091545.082500", "091547.082500", "091549.082500", "091551.082500", "091553.082500", "091555.082500", "091557.082500", "091559.082500", "091601.082500", "091603.082500", "091605.082500", "091607.082500", "091609.082500", "091611.082500", "091613.082500", "091615.082500", "091617.082500", "091619.082500", "091621.082500", "091623.082500", "091625.082500", "091627.082500", "091629.082500", "091631.082500", "091633.082500", "091635.082500", "091637.082500", "091639.082500", "091641.082500", "091643.082500", "091645.082500", "091647.082500", "091649.082500", "091651.082500", "091653.082500", "091655.082500", "091657.082500", "091659.082500", "091701.082500", "091703.082500", "091705.082500", "091707.082500", "091709.082500", "091711.082500", "091713.082500", "091715.082500", "091717.082500", "091719.082500", "091721.082500", "091723.082500", "091725.082500", "091727.082500", "091729.082500", "091731.082500", "091733.082500", "091735.082500", "091737.082500", "091739.082500", "091741.082500", "091743.082500", "091745.082500", "091747.082500", "091749.082500", "091751.082500", "091753.082500", "091755.082500", "091757.082500", "091759.082500", "091801.082500", "091803.082500", "091805.082500", "091807.082500", "091809.082500", "091811.082500", "091813.082500", "091815.082500", "091817.082500", "091819.082500", "091821.082500", "091823.082500", "091825.082500", "091827.082500", "091829.082500", "091831.082500", "091833.082500", "091835.082500", "091837.082500", "091839.082500", "091841.082500", "091843.082500", "091845.082500", "091847.082500", "091849.082500", "091851.082500", "091853.082500", "091855.082500", "091857.082500", "091859.082500", "091901.082500", "091903.082500", "091905.082500", "091907.082500", "091909.082500", "091911.082500", "091913.082500", "091915.082500", "091917.082500", "091919.082500", "091921.082500", "091923.082500", "091925.082500", "091927.082500", "091929.082500", "091931.082500", "091933.082500", "091935.082500", "091937.082500", "091939.082500", "091941.082500", "091943.082500", "091945.082500", "091947.082500", "091949.082500", "091951.082500", "091953.082500", "091955.082500", "091957.082500", "091959.082500", "092001.082500", "092003.082500", "092005.082500", "092007.082500", "092009.082500", "092011.082500", "092013.082500", "092015.082500", "092017.082500", "092019.082500", "092021.082500", "092023.082500", "092025.082500", "092027.082500", "092029.082500", "092031.082500", "092033.082500", "092035.082500", "092037.082500", "092039.082500", "092041.082500", "092043.082500", "092045.082500", "092047.082500", "092049.082500", "092051.082500", "092053.082500", "092055.082500", "092057.082500", "092059.082500", "092101.082500", "092103.082500", "092105.082500"],
      "ContentTime": ["091517.822000", "091517.825000", "091517.828000", "091517.830000", "091517.838000", "091517.840000", "091517.842000", "091517.845000", "091517.847000", "091517.849000", "091517.852000", "091517.854000", "091517.856000", "091517.858000", "091517.861000", "091517.863000", "091517.865000", "091517.868000", "091517.870000", "091517.872000", "091517.874000", "091517.877000", "091517.879000", "091517.882000", "091517.884000", "091557.807000", "091557.810000", "091557.812000", "091557.815000", "091557.817000", "091557.819000", "091557.822000", "091557.824000", "091557.826000", "091557.829000", "091557.831000", "091557.833000", "091557.836000", "091557.838000", "091557.840000", "091557.843000", "091557.845000", "091557.847000", "091557.850000", "091557.852000", "091637.807000", "091637.810000", "091637.812000", "091637.815000", "091637.817000", "091637.819000", "091637.822000", "091637.824000", "091637.826000", "091637.829000", "091637.831000", "091637.833000", "091637.835000", "091637.838000", "091637.840000", "091637.842000", "091637.845000", "091637.847000", "091637.849000", "091637.852000", "091717.807000", "091717.810000", "091717.812000", "091717.814000", "091717.817000", "091717.819000", "091717.821000", "091717.824000", "091717.826000", "091717.828000", "091717.831000", "091717.833000", "091717.835000", "091717.838000", "091717.840000", "091717.842000", "091717.845000", "091717.847000", "091717.849000", "091717.851000", "091757.807000", "091757.810000", "091757.812000", "091757.814000", "091757.817000", "091757.819000", "091757.821000", "091757.824000", "091757.826000", "091757.828000", "091757.830000", "091757.833000", "091757.835000", "091757.837000", "091757.840000", "091757.842000", "091757.844000", "091757.847000", "091757.849000", "091757.851000", "091837.806000", "091837.809000", "091837.811000", "091837.813000", "091837.816000", "091837.818000", "091837.820000", "091837.823000", "091837.825000", "091837.828000", "091837.830000", "091837.832000", "091837.835000", "091837.837000", "091837.839000", "091837.841000", "091837.844000", "091837.846000", "091837.849000", "091837.851000", "091857.808000", "091857.810000", "091857.813000", "091857.815000", "091857.817000", "091857.820000", "091857.822000", "091857.824000", "091857.827000", "091857.829000", "091937.807000", "091937.810000", "091937.812000", "091937.814000", "091937.817000", "091937.819000", "091937.821000", "091937.824000", "091937.826000", "091937.828000", "091937.831000", "091937.833000", "091937.835000", "091937.838000", "091937.840000", "091937.842000", "091937.845000", "091937.847000", "091937.849000", "091937.851000", "092017.807000", "092017.810000", "092017.812000", "092017.815000", "092017.817000", "092017.819000", "092017.822000", "092017.824000", "092017.826000", "092017.829000", "092017.831000", "092017.833000", "092017.835000", "092017.838000", "092017.840000", "092017.843000", "092017.845000", "092017.847000", "092017.850000", "092017.852000", "092057.806000", "092057.809000", "092057.811000", "092057.813000", "092057.816000", "092057.818000", "092057.821000", "092057.823000", "092057.825000", "092057.827000", "092057.830000", "092057.832000", "092057.834000", "092057.837000", "092057.839000", "092057.841000", "092057.844000", "092057.846000", "092057.848000", "092057.851000", "092106.212000", "092106.215000", "092106.217000", "092106.220000", "092106.222000"],
      "InstanceCreationTime": ["091517.822000", "091517.825000", "091517.828000", "091517.830000", "091517.838000", "091517.840000", "091517.842000", "091517.845000", "091517.847000", "091517.849000", "091517.852000", "091517.854000", "091517.856000", "091517.858000", "091517.861000", "091517.863000", "091517.865000", "091517.868000", "091517.870000", "091517.872000", "091517.874000", "091517.877000", "091517.879000", "091517.882000", "091517.884000", "091557.807000", "091557.810000", "091557.812000", "091557.815000", "091557.817000", "091557.819000", "091557.822000", "091557.824000", "091557.826000", "091557.829000", "091557.831000", "091557.833000", "091557.836000", "091557.838000", "091557.840000", "091557.843000", "091557.845000", "091557.847000", "091557.850000", "091557.852000", "091637.807000", "091637.810000", "091637.812000", "091637.815000", "091637.817000", "091637.819000", "091637.822000", "091637.824000", "091637.826000", "091637.829000", "091637.831000", "091637.833000", "091637.835000", "091637.838000", "091637.840000", "091637.842000", "091637.845000", "091637.847000", "091637.849000", "091637.852000", "091717.807000", "091717.810000", "091717.812000", "091717.814000", "091717.817000", "091717.819000", "091717.821000", "091717.824000", "091717.826000", "091717.828000", "091717.831000", "091717.833000", "091717.835000", "091717.838000", "091717.840000", "091717.842000", "091717.845000", "091717.847000", "091717.849000", "091717.851000", "091757.807000", "091757.810000", "091757.812000", "091757.814000", "091757.817000", "091757.819000", "091757.821000", "091757.824000", "091757.826000", "091757.828000", "091757.830000", "091757.833000", "091757.835000", "091757.837000", "091757.840000", "091757.842000", "091757.844000", "091757.847000", "091757.849000", "091757.851000", "091837.806000", "091837.809000", "091837.811000", "091837.813000", "091837.816000", "091837.818000", "091837.820000", "091837.823000", "091837.825000", "091837.828000", "091837.830000", "091837.832000", "091837.835000", "091837.837000", "091837.839000", "091837.841000", "091837.844000", "091837.846000", "091837.849000", "091837.851000", "091857.808000", "091857.810000", "091857.813000", "091857.815000", "091857.817000", "091857.820000", "091857.822000", "091857.824000", "091857.827000", "091857.829000", "091937.807000", "091937.810000", "091937.812000", "091937.814000", "091937.817000", "091937.819000", "091937.821000", "091937.824000", "091937.826000", "091937.828000", "091937.831000", "091937.833000", "091937.835000", "091937.838000", "091937.840000", "091937.842000", "091937.845000", "091937.847000", "091937.849000", "091937.851000", "092017.807000", "092017.810000", "092017.812000", "092017.815000", "092017.817000", "092017.819000", "092017.822000", "092017.824000", "092017.826000", "092017.829000", "092017.831000", "092017.833000", "092017.835000", "092017.838000", "092017.840000", "092017.843000", "092017.845000", "092017.847000", "092017.850000", "092017.852000", "092057.806000", "092057.809000", "092057.811000", "092057.813000", "092057.816000", "092057.818000", "092057.821000", "092057.823000", "092057.825000", "092057.827000", "092057.830000", "092057.832000", "092057.834000", "092057.837000", "092057.839000", "092057.841000", "092057.844000", "092057.846000", "092057.848000", "092057.851000", "092106.212000", "092106.215000", "092106.217000", "092106.220000", "092106.222000"],
      "InstanceNumber": [1, 2, 3, 4, 5, 6, 7, 8, 9, 10, 11, 12, 13, 14, 15, 16, 17, 18, 19, 20, 21, 22, 23, 24, 25, 26, 27, 28, 29, 30, 31, 32, 33, 34, 35, 36, 37, 38, 39, 40, 41, 42, 43, 44, 45, 46, 47, 48, 49, 50, 51, 52, 53, 54, 55, 56, 57, 58, 59, 60, 61, 62, 63, 64, 65, 66, 67, 68, 69, 70, 71, 72, 73, 74, 75, 76, 77, 78, 79, 80, 81, 82, 83, 84, 85, 86, 87, 88, 89, 90, 91, 92, 93, 94, 95, 96, 97, 98, 99, 100, 101, 102, 103, 104, 105, 106, 107, 108, 109, 110, 111, 112, 113, 114, 115, 116, 117, 118, 119, 120, 121, 122, 123, 124, 125, 126, 127, 128, 129, 130, 131, 132, 133, 134, 135, 136, 137, 138, 139, 140, 141, 142, 143, 144, 145, 146, 147, 148, 149, 150, 151, 152, 153, 154, 155, 156, 157, 158, 159, 160, 161, 162, 163, 164, 165, 166, 167, 168, 169, 170, 171, 172, 173, 174, 175, 176, 177, 178, 179, 180, 181, 182, 183, 184, 185, 186, 187, 188, 189, 190, 191, 192, 193, 194, 195, 196, 197, 198, 199, 200],
      "LargestImagePixelValue": [2255, 2262, 2259, 2261, 2257, 2262, 2259, 2259, 2257, 2257, 2258, 2261, 2259, 2258, 2256, 2254, 2258, 2256, 2259, 2257, 2257, 2258, 2256, 2257, 2257, 2253, 2263, 2256, 2256, 2258, 2255, 2253, 2260, 2260, 2258, 2256, 2257, 2257, 2254, 2257, 2255, 2261, 2254, 2261, 2258, 2258, 2255, 2262, 2258, 2258, 2252, 2253, 2256, 2256, 2261, 2256, 2263, 2257, 2252, 2257, 2261, 2254, 2255, 2253, 2258, 2257, 2257, 2260, 2261, 2259, 2256, 2257, 2256, 2257, 2258, 2255, 2261, 2262, 2252, 2255, 2254, 2260, 2254, 2259, 2254, 2253, 2256, 2253, 2252, 2257, 2258, 2254, 2256, 2257, 2255, 2254, 2258, 2258, 2253, 2255, 2253, 2255, 2255, 2255, 2257, 2258, 2257, 2253, 2259, 2254, 2258, 2258, 2255, 2261, 2256, 2252, 2254, 2255, 2255, 2261, 2256, 2260, 2256, 2255, 2251, 2257, 2255, 2256, 2254, 2257, 2252, 2259, 2259, 2258, 2258, 2259, 2253, 2252, 2255, 2255, 2257, 2254, 2254, 2258, 2253, 2252, 2255, 2253, 2258, 2251, 2255, 2250, 2251, 2253, 2257, 2254, 2256, 2256, 2254, 2252, 2253, 2258, 2257, 2254, 2252, 2259, 2257, 2257, 2257, 2256, 2251, 2255, 2254, 2256, 2257, 2253, 2255, 2253, 2253, 2257, 2253, 2254, 2257, 2258, 2256, 2251, 2257, 2255, 2257, 2252, 2254, 2256, 2255, 2253, 2255, 2256, 2255, 2253, 2257, 2254],
      "WindowCenter": [960.0, 958.0, 960.0, 959.0, 958.0, 959.0, 960.0, 960.0, 959.0, 960.0, 960.0, 959.0, 959.0, 959.0, 959.0, 960.0, 959.0, 961.0, 960.0, 959.0, 960.0, 959.0, 961.0, 960.0, 960.0, 960.0, 960.0, 960.0, 959.0, 959.0, 960.0, 960.0, 959.0, 960.0, 959.0, 961.0, 959.0, 959.0, 960.0, 959.0, 961.0, 959.0, 960.0, 960.0, 959.0, 960.0, 960.0, 959.0, 959.0, 960.0, 961.0, 959.0, 959.0, 958.0, 960.0, 959.0, 959.0, 959.0, 959.0, 960.0, 960.0, 960.0, 960.0, 960.0, 959.0, 960.0, 960.0, 960.0, 959.0, 960.0, 959.0, 960.0, 960.0, 959.0, 959.0, 961.0, 960.0, 959.0, 959.0, 959.0, 960.0, 960.0, 960.0, 960.0, 959.0, 960.0, 959.0, 960.0, 959.0, 959.0, 958.0, 960.0, 959.0, 960.0, 959.0, 959.0, 958.0, 958.0, 959.0, 958.0, 959.0, 960.0, 959.0, 959.0, 960.0, 959.0, 959.0, 959.0, 959.0, 960.0, 960.0, 961.0, 958.0, 959.0, 959.0, 960.0, 959.0, 959.0, 959.0, 959.0, 959.0, 960.0, 959.0, 960.0, 960.0, 958.0, 959.0, 960.0, 961.0, 959.0, 960.0, 961.0, 958.0, 960.0, 959.0, 960.0, 959.0, 960.0, 961.0, 960.0, 958.0, 959.0, 959.0, 959.0, 960.0, 959.0, 959.0, 959.0, 959.0, 961.0, 960.0, 959.0, 960.0, 959.0, 960.0, 959.0, 958.0, 960.0, 960.0, 959.0, 958.0, 960.0, 959.0, 960.0, 960.0, 960.0, 959.0, 959.0, 960.0, 959.0, 960.0, 959.0, 959.0, 959.0, 959.0, 959.0, 959.0, 959.0, 960.0, 960.0, 959.0, 960.0, 958.0, 960.0, 960.0, 959.0, 961.0, 959.0, 959.0, 959.0, 958.0, 960.0, 960.0, 959.0, 960.0, 961.0, 959.0, 960.0, 960.0, 959.0],
      "WindowWidth": [2258.0, 2257.0, 2259.0, 2257.0, 2257.0, 2257.0, 2258.0, 2258.0, 2258.0, 2258.0, 2258.0, 2257.0, 2258.0, 2257.0, 2257.0, 2259.0, 2258.0, 2259.0, 2258.0, 2258.0, 2258.0, 2257.0, 2259.0, 2258.0, 2259.0, 2259.0, 2259.0, 2259.0, 2257.0, 2258.0, 2258.0, 2259.0, 2258.0, 2259.0, 2258.0, 2259.0, 2258.0, 2257.0, 2259.0, 2258.0, 2260.0, 2257.0, 2258.0, 2259.0, 2258.0, 2258.0, 2259.0, 2257.0, 2257.0, 2258.0, 2259.0, 2258.0, 2258.0, 2257.0, 2258.0, 2257.0, 2258.0, 2257.0, 2258.0, 2259.0, 2258.0, 2258.0, 2258.0, 2259.0, 2258.0, 2258.0, 2259.0, 2258.0, 2257.0, 2259.0, 2258.0, 2259.0, 2259.0, 2257.0, 2257.0, 2259.0, 2259.0, 2257.0, 2258.0, 2257.0, 2259.0, 2258.0, 2259.0, 2259.0, 2258.0, 2258.0, 2258.0, 2258.0, 2258.0, 2258.0, 2256.0, 2259.0, 2258.0, 2259.0, 2258.0, 2257.0, 2256.0, 2256.0, 2257.0, 2257.0, 2258.0, 2259.0, 2258.0, 2258.0, 2258.0, 2257.0, 2257.0, 2258.0, 2257.0, 2259.0, 2258.0, 2259.0, 2257.0, 2258.0, 2258.0, 2258.0, 2258.0, 2258.0, 2258.0, 2257.0, 2258.0, 2258.0, 2257.0, 2258.0, 2259.0, 2257.0, 2258.0, 2259.0, 2260.0, 2258.0, 2258.0, 2260.0, 2257.0, 2258.0, 2258.0, 2259.0, 2257.0, 2259.0, 2260.0, 2259.0, 2256.0, 2258.0, 2257.0, 2258.0, 2258.0, 2257.0, 2258.0, 2258.0, 2258.0, 2260.0, 2258.0, 2258.0, 2258.0, 2257.0, 2259.0, 2258.0, 2257.0, 2258.0, 2259.0, 2257.0, 2257.0, 2258.0, 2257.0, 2258.0, 2259.0, 2258.0, 2257.0, 2257.0, 2259.0, 2257.0, 2258.0, 2258.0, 2258.0, 2258.0, 2257.0, 2258.0, 2257.0, 2257.0, 2258.0, 2259.0, 2258.0, 2258.0, 2257.0, 2259.0, 2258.0, 2257.0, 2259.0, 2257.0, 2257.0, 2257.0, 2257.0, 2258.0, 2258.0, 2257.0, 2258.0, 2260.0, 2257.0, 2258.0, 2259.0, 2257.0]
    },
    "slices": {}
  }
}