{
  "AcquisitionMatrixPE": 80,
  "AcquisitionNumber": 1,
  "AcquisitionTime": "10:09:41.460000",
  "BandwidthPerPixelPhaseEncode": 25,
  "BaseResolution": 80,
  "BodyPartExamined": "BRAIN",
  "CoilCombinationMethod": "Sum of Squares",
  "ConsistencyInfo": "N4_VE11E_LATEST_20181129",
  "ConversionSoftware": "dcm2niix",
  "ConversionSoftwareVersion": "v1.0.20220720",
  "DerivedVendorReportedEchoSpacing": 0.0005,
  "DeviceSerialNumber": "66112",
  "DwellTime": 2.7e-06,
  "EchoTime": 0.03,
  "EchoTrainLength": 80,
  "EffectiveEchoSpacing": 0.0005,
  "FlipAngle": 10,
  "HeudiconvVersion": "0.13.1",
  "ImageOrientationPatientDICOM": [0.990732, -0.135824, 0.00134752, 0.129025, 0.944148, 0.30321],
  "ImageOrientationText": "Tra>Cor(17.5)>Sag(2.4)",
  "ImageType": [
    "ORIGINAL",
    "PRIMARY",
    "M",
    "ND",
    "NORM",
    "MOSAIC"
],
  "ImagingFrequency": 123.259,
  "InPlanePhaseEncodingDirectionDICOM": "COL",
  "InstitutionAddress": "Maynard 3,Hanover,NH,US,03755",
  "InstitutionName": "Dartmouth College - PBS",
  "InstitutionalDepartmentName": "Department",
  "MRAcquisitionType": "2D",
  "MagneticFieldStrength": 3,
  "Manufacturer": "Siemens",
  "ManufacturersModelName": "Prisma",
  "MatrixCoilMode": "SENSE",
  "Modality": "MR",
  "NonlinearGradientCorrection": false,
  "PartialFourier": 1,
  "PatientPosition": "HFS",
  "PercentPhaseFOV": 100,
  "PercentSampling": 100,
  "PhaseEncodingDirection": "j-",
  "PhaseEncodingSteps": 80,
  "PhaseResolution": 1,
  "PixelBandwidth": 2315,
  "ProcedureStepDescription": "dbic^QA",
  "ProtocolName": "func-bold_fa-10",
  "PulseSequenceDetails": "%SiemensSeq%\\ep2d_bold",
  "ReceiveCoilActiveElements": "HEA;HEP",
  "ReceiveCoilName": "Head_32",
  "ReconMatrixPE": 80,
  "RepetitionTime": 2,
  "SAR": 0.0100777,
  "ScanOptions": "FS",
  "ScanningSequence": "EP",
  "SequenceName": "*epfid2d1_80",
  "SequenceVariant": "SK",
  "SeriesDescription": "func-bold_fa-10",
  "SeriesNumber": 10,
  "ShimSetting": [4219, -7741, -7507, -21, -157, -29, 30, 63],
  "SliceThickness": 3.5,
  "SliceTiming": [0.99, 0, 1.0575, 0.0675, 1.1225, 0.1325, 1.19, 0.2, 1.255, 0.265, 1.32, 0.33, 1.3875, 0.3975, 1.4525, 0.4625, 1.5175, 0.53, 1.585, 0.595, 1.65, 0.66, 1.7175, 0.7275, 1.7825, 0.7925, 1.8475, 0.86, 1.915, 0.925],
  "SoftwareVersions": "syngo MR E11",
  "SpacingBetweenSlices": 3.99,
  "StationName": "AWP66112",
  "TotalReadoutTime": 0.0395,
  "TxRefAmp": 228.345,
  "dcmmeta_affine": [
    [-2.972196102142334, 0.3870760202407837, 0.16939720511436462, 100.93196105957031],
    [0.40747228264808655, 2.8324453830718994, 1.1979002952575684, -140.5538787841797],
    [0.004042571410536766, -0.9096289277076721, 3.8021626472473145, -19.273162841796875],
    [0.0, 0.0, 0.0, 1.0]
],
  "dcmmeta_reorient_transform": [
    [0.0, -1.0, 0.0, 79.0],
    [1.0, 0.0, 0.0, 0.0],
    [0.0, 0.0, 1.0, 0.0],
    [0.0, 0.0, 0.0, 1.0]
],
  "dcmmeta_shape": [80, 80, 30, 200],
  "dcmmeta_slice_dim": 2,
  "dcmmeta_version": 0.6,
  "global": {
    "const": {
      "AccessionNumber": "qa",
      "AcquisitionMatrix": [80, 0, 0, 80],
      "AngioFlag": "N",
      "BitsAllocated": 16,
      "BitsStored": 12,
      "BodyPartExamined": "BRAIN",
      "Columns": 480,
      "EchoNumbers": 1,
      "EchoTime": 30.0,
      "EchoTrainLength": 80,
      "FlipAngle": 10.0,
      "HighBit": 11,
      "ImageOrientationPatient": [0.99073205190207, -0.1358240976904, 0.00134752384233, 0.12902533525064, 0.94414849451677, 0.30320963567337],
      "ImagePositionPatient": [-803.3654015861, -568.20395294488, -273.86814139305],
      "ImageType": [
        "ORIGINAL",
        "PRIMARY",
        "M",
        "ND",
        "NORM",
        "MOSAIC"
],
      "ImagedNucleus": "1H",
      "ImagingFrequency": 123.259277,
      "InPlanePhaseEncodingDirection": "COL",
      "MRAcquisitionType": "2D",
      "MagneticFieldStrength": 3.0,
      "Manufacturer": "SIEMENS",
      "ManufacturerModelName": "Prisma",
      "Modality": "MR",
      "NumberOfAverages": 1.0,
      "NumberOfPhaseEncodingSteps": 80,
      "PercentPhaseFieldOfView": 100.0,
      "PercentSampling": 100.0,
      "PerformedProcedureStepStartTime": "094047.275000",
      "PhotometricInterpretation": "MONOCHROME2",
      "PixelBandwidth": 2315.0,
      "PixelRepresentation": 0,
      "PixelSpacing": [3.0, 3.0],
      "ProtocolName": "func-bold_fa-10",
      "RepetitionTime": 2000.0,
      "Rows": 480,
      "SAR": 0.010077687538,
      "SamplesPerPixel": 1,
      "ScanOptions": "FS",
      "ScanningSequence": "EP",
      "SequenceName": "*epfid2d1_80",
      "SequenceVariant": "SK",
      "SeriesDescription": "func-bold_fa-10",
      "SeriesNumber": 10,
      "SeriesTime": "101037.483000",
      "SliceLocation": -56.278605234571,
      "SliceThickness": 3.5,
      "SmallestImagePixelValue": 0,
      "SoftwareVersions": "syngo MR E11",
      "SpacingBetweenSlices": 3.9900000826559,
      "SpecificCharacterSet": "ISO_IR 100",
      "StudyID": "12",
      "StudyTime": "094047.227000",
      "TransmitCoilName": "Body",
      "VariableFlipAngleFlag": "N",
      "WindowCenterWidthExplanation": "Algo1"
    },
    "slices": {}
  },
  "time": {
    "samples": {
      "AcquisitionNumber": [1, 2, 3, 4, 5, 6, 7, 8, 9, 10, 11, 12, 13, 14, 15, 16, 17, 18, 19, 20, 21, 22, 23, 24, 25, 26, 27, 28, 29, 30, 31, 32, 33, 34, 35, 36, 37, 38, 39, 40, 41, 42, 43, 44, 45, 46, 47, 48, 49, 50, 51, 52, 53, 54, 55, 56, 57, 58, 59, 60, 61, 62, 63, 64, 65, 66, 67, 68, 69, 70, 71, 72, 73, 74, 75, 76, 77, 78, 79, 80, 81, 82, 83, 84, 85, 86, 87, 88, 89, 90, 91, 92, 93, 94, 95, 96, 97, 98, 99, 100, 101, 102, 103, 104, 105, 106, 107, 108, 109, 110, 111, 112, 113, 114, 115, 116, 117, 118, 119, 120, 121, 122, 123, 124, 125, 126, 127, 128, 129, 130, 131, 132, 133, 134, 135, 136, 137, 138, 139, 140, 141, 142, 143, 144, 145, 146, 147, 148, 149, 150, 151, 152, 153, 154, 155, 156, 157, 158, 159, 160, 161, 162, 163, 164, 165, 166, 167, 168, 169, 170, 171, 172, 173, 174, 175, 176, 177, 178, 179, 180, 181, 182, 183, 184, 185, 186, 187, 188, 189, 190, 191, 192, 193, 194, 195, 196, 197, 198, 199, 200],
      "AcquisitionTime": ["100941.460000", "100943.460000", "100945.460000", "100947.460000", "100949.460000", "100951.460000", "100953.460000", "100955.460000", "100957.460000", "100959.460000", "101001.460000", "101003.460000", "101005.460000", "101007.460000", "101009.460000", "101011.460000", "101013.460000", "101015.460000", "101017.460000", "101019.460000", "101021.460000", "101023.460000", "101025.460000", "101027.460000", "101029.460000", "101031.460000", "101033.460000", "101035.460000", "101037.460000", "101039.460000", "101041.460000", "101043.460000", "101045.460000", "101047.460000", "101049.460000", "101051.460000", "101053.460000", "101055.460000", "101057.460000", "101059.460000", "101101.460000", "101103.460000", "101105.460000", "101107.460000", "101109.460000", "101111.460000", "101113.460000", "101115.460000", "101117.460000", "101119.460000", "101121.460000", "101123.460000", "101125.460000", "101127.460000", "101129.460000", "101131.460000", "101133.460000", "101135.460000", "101137.460000", "101139.460000", "101141.460000", "101143.460000", "101145.460000", "101147.460000", "101149.460000", "101151.460000", "101153.460000", "101155.460000", "101157.460000", "101159.460000", "101201.460000", "101203.460000", "101205.460000", "101207.460000", "101209.460000", "101211.460000", "101213.460000", "101215.460000", "101217.460000", "101219.460000", "101221.460000", "101223.460000", "101225.460000", "101227.460000", "101229.460000", "101231.460000", "101233.460000", "101235.460000", "101237.460000", "101239.460000", "101241.460000", "101243.460000", "101245.460000", "101247.460000", "101249.460000", "101251.460000", "101253.460000", "101255.460000", "101257.460000", "101259.460000", "101301.460000", "101303.460000", "101305.460000", "101307.460000", "101309.460000", "101311.460000", "101313.460000", "101315.460000", "101317.460000", "101319.460000", "101321.460000", "101323.460000", "101325.460000", "101327.460000", "101329.460000", "101331.460000", "101333.460000", "101335.460000", "101337.460000", "101339.460000", "101341.460000", "101343.460000", "101345.460000", "101347.460000", "101349.460000", "101351.460000", "101353.460000", "101355.460000", "101357.460000", "101359.460000", "101401.460000", "101403.460000", "101405.460000", "101407.460000", "101409.460000", "101411.460000", "101413.460000", "101415.460000", "101417.460000", "101419.460000", "101421.460000", "101423.460000", "101425.460000", "101427.460000", "101429.460000", "101431.460000", "101433.460000", "101435.460000", "101437.460000", "101439.460000", "101441.460000", "101443.460000", "101445.460000", "101447.460000", "101449.460000", "101451.460000", "101453.460000", "101455.460000", "101457.460000", "101459.460000", "101501.460000", "101503.460000", "101505.460000", "101507.460000", "101509.460000", "101511.460000", "101513.460000", "101515.460000", "101517.460000", "101519.460000", "101521.460000", "101523.460000", "101525.460000", "101527.460000", "101529.460000", "101531.460000", "101533.460000", "101535.460000", "101537.460000", "101539.460000", "101541.460000", "101543.460000", "101545.460000", "101547.460000", "101549.460000", "101551.460000", "101553.460000", "101555.460000", "101557.460000", "101559.460000", "101601.460000", "101603.460000", "101605.460000", "101607.460000", "101609.460000", "101611.460000", "101613.460000", "101615.460000", "101617.460000", "101619.460000"],
      "ContentTime": ["101037.486000", "101037.489000", "101037.491000", "101037.494000", "101037.496000", "101037.498000", "101037.501000", "101037.503000", "101037.505000", "101037.507000", "101037.510000", "101037.512000", "101037.514000", "101037.517000", "101037.519000", "101037.521000", "101037.523000", "101037.526000", "101037.528000", "101037.530000", "101037.533000", "101037.535000", "101037.537000", "101037.540000", "101037.542000", "101037.544000", "101037.547000", "101037.554000", "101117.482000", "101117.485000", "101117.487000", "101117.489000", "101117.492000", "101117.494000", "101117.496000", "101117.498000", "101117.501000", "101117.503000", "101117.505000", "101117.508000", "101117.510000", "101117.512000", "101117.515000", "101117.517000", "101117.519000", "101117.521000", "101117.524000", "101117.526000", "101157.481000", "101157.484000", "101157.486000", "101157.489000", "101157.491000", "101157.493000", "101157.496000", "101157.498000", "101157.500000", "101157.502000", "101157.505000", "101157.507000", "101157.509000", "101157.511000", "101157.514000", "101157.516000", "101157.518000", "101157.521000", "101157.523000", "101157.525000", "101237.481000", "101237.484000", "101237.486000", "101237.489000", "101237.491000", "101237.493000", "101237.496000", "101237.498000", "101237.500000", "101237.502000", "101237.505000", "101237.507000", "101237.509000", "101237.512000", "101237.514000", "101237.516000", "101237.518000", "101237.521000", "101237.523000", "101237.526000", "101317.481000", "101317.501000", "101317.504000", "101317.506000", "101317.508000", "101317.510000", "101317.513000", "101317.515000", "101317.517000", "101317.520000", "101317.522000", "101317.524000", "101317.526000", "101317.529000", "101317.531000", "101317.533000", "101317.535000", "101317.538000", "101317.540000", "101317.542000", "101357.482000", "101357.485000", "101357.488000", "101357.490000", "101357.493000", "101357.495000", "101357.497000", "101357.500000", "101357.502000", "101357.504000", "101357.507000", "101357.509000", "101357.511000", "101357.514000", "101357.516000", "101357.518000", "101357.521000", "101357.523000", "101357.526000", "101357.528000", "101417.481000", "101417.484000", "101417.486000", "101417.489000", "101417.491000", "101417.493000", "101417.496000", "101417.498000", "101417.500000", "101417.503000", "101457.481000", "101457.484000", "101457.486000", "101457.489000", "101457.491000", "101457.493000", "101457.495000", "101457.498000", "101457.500000", "101457.502000", "101457.505000", "101457.507000", "101457.509000", "101457.512000", "101457.514000", "101457.516000", "101457.518000", "101457.521000", "101457.523000", "101457.525000", "101537.481000", "101537.484000", "101537.486000", "101537.488000", "101537.490000", "101537.493000", "101537.495000", "101537.497000", "101537.500000", "101537.502000", "101537.504000", "101537.507000", "101537.509000", "101537.511000", "101537.513000", "101537.516000", "101537.518000", "101537.520000", "101537.523000", "101537.525000", "101617.482000", "101617.485000", "101617.487000", "101617.490000", "101617.492000", "101617.494000", "101617.496000", "101617.499000", "101617.501000", "101617.503000", "101617.506000", "101617.508000", "101617.510000", "101617.513000", "101617.515000", "101617.517000", "101617.520000", "101617.522000", "101617.524000", "101617.527000", "101621.255000", "101621.258000"],
      "InstanceCreationTime": ["101037.486000", "101037.489000", "101037.491000", "101037.494000", "101037.496000", "101037.498000", "101037.501000", "101037.503000", "101037.505000", "101037.507000", "101037.510000", "101037.512000", "101037.514000", "101037.517000", "101037.519000", "101037.521000", "101037.523000", "101037.526000", "101037.528000", "101037.530000", "101037.533000", "101037.535000", "101037.537000", "101037.540000", "101037.542000", "101037.544000", "101037.547000", "101037.554000", "101117.482000", "101117.485000", "101117.487000", "101117.489000", "101117.492000", "101117.494000", "101117.496000", "101117.498000", "101117.501000", "101117.503000", "101117.505000", "101117.508000", "101117.510000", "101117.512000", "101117.515000", "101117.517000", "101117.519000", "101117.521000", "101117.524000", "101117.526000", "101157.481000", "101157.484000", "101157.486000", "101157.489000", "101157.491000", "101157.493000", "101157.496000", "101157.498000", "101157.500000", "101157.502000", "101157.505000", "101157.507000", "101157.509000", "101157.511000", "101157.514000", "101157.516000", "101157.518000", "101157.521000", "101157.523000", "101157.525000", "101237.481000", "101237.484000", "101237.486000", "101237.489000", "101237.491000", "101237.493000", "101237.496000", "101237.498000", "101237.500000", "101237.502000", "101237.505000", "101237.507000", "101237.509000", "101237.512000", "101237.514000", "101237.516000", "101237.518000", "101237.521000", "101237.523000", "101237.526000", "101317.481000", "101317.501000", "101317.504000", "101317.506000", "101317.508000", "101317.510000", "101317.513000", "101317.515000", "101317.517000", "101317.520000", "101317.522000", "101317.524000", "101317.526000", "101317.529000", "101317.531000", "101317.533000", "101317.535000", "101317.538000", "101317.540000", "101317.542000", "101357.482000", "101357.485000", "101357.488000", "101357.490000", "101357.493000", "101357.495000", "101357.497000", "101357.500000", "101357.502000", "101357.504000", "101357.507000", "101357.509000", "101357.511000", "101357.514000", "101357.516000", "101357.518000", "101357.521000", "101357.523000", "101357.526000", "101357.528000", "101417.481000", "101417.484000", "101417.486000", "101417.489000", "101417.491000", "101417.493000", "101417.496000", "101417.498000", "101417.500000", "101417.503000", "101457.481000", "101457.484000", "101457.486000", "101457.489000", "101457.491000", "101457.493000", "101457.495000", "101457.498000", "101457.500000", "101457.502000", "101457.505000", "101457.507000", "101457.509000", "101457.512000", "101457.514000", "101457.516000", "101457.518000", "101457.521000", "101457.523000", "101457.525000", "101537.481000", "101537.484000", "101537.486000", "101537.488000", "101537.490000", "101537.493000", "101537.495000", "101537.497000", "101537.500000", "101537.502000", "101537.504000", "101537.507000", "101537.509000", "101537.511000", "101537.513000", "101537.516000", "101537.518000", "101537.520000", "101537.523000", "101537.525000", "101617.482000", "101617.485000", "101617.487000", "101617.490000", "101617.492000", "101617.494000", "101617.496000", "101617.499000", "101617.501000", "101617.503000", "101617.506000", "101617.508000", "101617.510000", "101617.513000", "101617.515000", "101617.517000", "101617.520000", "101617.522000", "101617.524000", "101617.527000", "101621.255000", "101621.258000"],
      "InstanceNumber": [1, 2, 3, 4, 5, 6, 7, 8, 9, 10, 11, 12, 13, 14, 15, 16, 17, 18, 19, 20, 21, 22, 23, 24, 25, 26, 27, 28, 29, 30, 31, 32, 33, 34, 35, 36, 37, 38, 39, 40, 41, 42, 43, 44, 45, 46, 47, 48, 49, 50, 51, 52, 53, 54, 55, 56, 57, 58, 59, 60, 61, 62, 63, 64, 65, 66, 67, 68, 69, 70, 71, 72, 73, 74, 75, 76, 77, 78, 79, 80, 81, 82, 83, 84, 85, 86, 87, 88, 89, 90, 91, 92, 93, 94, 95, 96, 97, 98, 99, 100, 101, 102, 103, 104, 105, 106, 107, 108, 109, 110, 111, 112, 113, 114, 115, 116, 117, 118, 119, 120, 121, 122, 123, 124, 125, 126, 127, 128, 129, 130, 131, 132, 133, 134, 135, 136, 137, 138, 139, 140, 141, 142, 143, 144, 145, 146, 147, 148, 149, 150, 151, 152, 153, 154, 155, 156, 157, 158, 159, 160, 161, 162, 163, 164, 165, 166, 167, 168, 169, 170, 171, 172, 173, 174, 175, 176, 177, 178, 179, 180, 181, 182, 183, 184, 185, 186, 187, 188, 189, 190, 191, 192, 193, 194, 195, 196, 197, 198, 199, 200],
      "LargestImagePixelValue": [382, 386, 384, 383, 383, 383, 383, 385, 385, 386, 383, 381, 383, 383, 383, 383, 382, 382, 383, 382, 383, 383, 383, 383, 384, 382, 384, 382, 383, 385, 384, 384, 382, 384, 382, 383, 384, 382, 381, 383, 383, 382, 381, 381, 382, 385, 383, 384, 382, 382, 383, 384, 383, 383, 384, 384, 380, 381, 382, 380, 382, 383, 383, 384, 384, 383, 380, 383, 381, 382, 381, 383, 383, 383, 383, 383, 382, 382, 383, 384, 383, 382, 381, 382, 381, 384, 383, 383, 382, 383, 388, 381, 382, 383, 382, 383, 385, 383, 382, 384, 384, 383, 382, 382, 383, 383, 382, 383, 380, 381, 382, 381, 381, 385, 381, 380, 380, 381, 382, 383, 381, 383, 381, 385, 382, 381, 382, 383, 382, 382, 382, 385, 380, 381, 382, 380, 381, 380, 382, 383, 381, 382, 379, 380, 380, 381, 381, 381, 385, 383, 382, 380, 381, 384, 381, 381, 381, 381, 383, 383, 382, 383, 384, 383, 384, 382, 385, 382, 382, 382, 383, 383, 382, 382, 384, 384, 385, 383, 383, 383, 382, 382, 382, 382, 384, 383, 383, 381, 383, 382, 383, 381, 382, 381, 383, 383, 382, 382, 381, 380],
      "WindowCenter": [310.0, 310.0, 310.0, 310.0, 310.0, 310.0, 310.0, 311.0, 311.0, 310.0, 310.0, 310.0, 310.0, 310.0, 311.0, 310.0, 310.0, 310.0, 311.0, 310.0, 310.0, 310.0, 310.0, 311.0, 311.0, 310.0, 310.0, 310.0, 310.0, 310.0, 310.0, 311.0, 310.0, 310.0, 310.0, 310.0, 310.0, 310.0, 310.0, 310.0, 310.0, 310.0, 310.0, 310.0, 310.0, 310.0, 310.0, 310.0, 310.0, 311.0, 310.0, 310.0, 310.0, 310.0, 309.0, 310.0, 310.0, 310.0, 310.0, 310.0, 309.0, 310.0, 310.0, 310.0, 310.0, 310.0, 310.0, 310.0, 310.0, 310.0, 310.0, 310.0, 310.0, 310.0, 310.0, 310.0, 309.0, 310.0, 310.0, 310.0, 310.0, 310.0, 310.0, 309.0, 310.0, 310.0, 310.0, 309.0, 310.0, 310.0, 310.0, 310.0, 310.0, 310.0, 310.0, 310.0, 310.0, 309.0, 310.0, 310.0, 310.0, 310.0, 310.0, 310.0, 310.0, 310.0, 309.0, 310.0, 310.0, 310.0, 309.0, 310.0, 310.0, 310.0, 310.0, 310.0, 310.0, 310.0, 310.0, 310.0, 310.0, 310.0, 310.0, 310.0, 310.0, 310.0, 310.0, 310.0, 310.0, 310.0, 310.0, 310.0, 310.0, 310.0, 310.0, 310.0, 310.0, 310.0, 310.0, 310.0, 310.0, 309.0, 310.0, 310.0, 310.0, 310.0, 309.0, 309.0, 310.0, 310.0, 310.0, 310.0, 310.0, 310.0, 310.0, 309.0, 310.0, 309.0, 310.0, 309.0, 309.0, 309.0, 310.0, 310.0, 309.0, 310.0, 310.0, 309.0, 310.0, 310.0, 310.0, 310.0, 310.0, 309.0, 310.0, 309.0, 309.0, 310.0, 309.0, 310.0, 309.0, 310.0, 310.0, 310.0, 310.0, 310.0, 310.0, 310.0, 309.0, 310.0, 310.0, 310.0, 310.0, 309.0, 309.0, 310.0, 309.0, 310.0, 310.0, 310.0],
      "WindowWidth": [670.0, 669.0, 669.0, 669.0, 669.0, 670.0, 669.0, 670.0, 670.0, 670.0, 669.0, 669.0, 669.0, 669.0, 670.0, 670.0, 670.0, 669.0, 670.0, 669.0, 669.0, 670.0, 670.0, 670.0, 670.0, 670.0, 669.0, 669.0, 669.0, 669.0, 670.0, 670.0, 669.0, 670.0, 669.0, 669.0, 669.0, 669.0, 669.0, 669.0, 669.0, 669.0, 669.0, 669.0, 669.0, 669.0, 669.0, 669.0, 669.0, 670.0, 669.0, 669.0, 669.0, 669.0, 668.0, 669.0, 669.0, 669.0, 669.0, 669.0, 668.0, 669.0, 669.0, 669.0, 669.0, 669.0, 670.0, 669.0, 669.0, 669.0, 669.0, 669.0, 669.0, 669.0, 669.0, 669.0, 668.0, 669.0, 669.0, 669.0, 669.0, 669.0, 669.0, 668.0, 669.0, 669.0, 669.0, 668.0, 669.0, 669.0, 669.0, 670.0, 669.0, 669.0, 669.0, 669.0, 669.0, 668.0, 669.0, 669.0, 669.0, 669.0, 669.0, 668.0, 669.0, 668.0, 668.0, 669.0, 669.0, 669.0, 668.0, 668.0, 669.0, 669.0, 669.0, 669.0, 669.0, 669.0, 668.0, 669.0, 668.0, 669.0, 668.0, 669.0, 669.0, 668.0, 669.0, 669.0, 668.0, 668.0, 669.0, 669.0, 669.0, 668.0, 669.0, 669.0, 669.0, 669.0, 669.0, 668.0, 668.0, 668.0, 669.0, 669.0, 668.0, 668.0, 668.0, 668.0, 668.0, 668.0, 669.0, 668.0, 668.0, 668.0, 668.0, 668.0, 669.0, 668.0, 668.0, 668.0, 668.0, 668.0, 668.0, 668.0, 668.0, 669.0, 668.0, 668.0, 668.0, 669.0, 668.0, 668.0, 668.0, 668.0, 669.0, 668.0, 668.0, 668.0, 668.0, 668.0, 668.0, 668.0, 668.0, 668.0, 668.0, 669.0, 668.0, 668.0, 668.0, 669.0, 668.0, 669.0, 668.0, 668.0, 668.0, 668.0, 668.0, 668.0, 668.0, 668.0]
    },
    "slices": {}
  }
}