{
  "AcquisitionMatrixPE": 80,
  "AcquisitionNumber": 1,
  "AcquisitionTime": "10:02:55.482500",
  "BandwidthPerPixelPhaseEncode": 25,
  "BaseResolution": 80,
  "BodyPartExamined": "BRAIN",
  "CoilCombinationMethod": "Sum of Squares",
  "ConsistencyInfo": "N4_VE11E_LATEST_20181129",
  "ConversionSoftware": "dcm2niix",
  "ConversionSoftwareVersion": "v1.0.20220720",
  "DerivedVendorReportedEchoSpacing": 0.0005,
  "DeviceSerialNumber": "66112",
  "DwellTime": 2.7e-06,
  "EchoTime": 0.03,
  "EchoTrainLength": 80,
  "EffectiveEchoSpacing": 0.0005,
  "FlipAngle": 77,
  "HeudiconvVersion": "0.13.1",
  "ImageOrientationPatientDICOM": [0.990732, -0.135824, 0.00134752, 0.129025, 0.944148, 0.30321],
  "ImageOrientationText": "Tra>Cor(17.5)>Sag(2.4)",
  "ImageType": [
    "ORIGINAL",
    "PRIMARY",
    "M",
    "ND",
    "NORM",
    "MOSAIC"
],
  "ImagingFrequency": 123.259,
  "InPlanePhaseEncodingDirectionDICOM": "COL",
  "InstitutionAddress": "Maynard 3,Hanover,NH,US,03755",
  "InstitutionName": "Dartmouth College - PBS",
  "InstitutionalDepartmentName": "Department",
  "MRAcquisitionType": "2D",
  "MagneticFieldStrength": 3,
  "Manufacturer": "Siemens",
  "ManufacturersModelName": "Prisma",
  "MatrixCoilMode": "SENSE",
  "Modality": "MR",
  "NonlinearGradientCorrection": false,
  "PartialFourier": 1,
  "PatientPosition": "HFS",
  "PercentPhaseFOV": 100,
  "PercentSampling": 100,
  "PhaseEncodingDirection": "j-",
  "PhaseEncodingSteps": 80,
  "PhaseResolution": 1,
  "PixelBandwidth": 2315,
  "ProcedureStepDescription": "dbic^QA",
  "ProtocolName": "func-bold_fa-77",
  "PulseSequenceDetails": "%SiemensSeq%\\ep2d_bold",
  "ReceiveCoilActiveElements": "HEA;HEP",
  "ReceiveCoilName": "Head_32",
  "ReconMatrixPE": 80,
  "RepetitionTime": 2,
  "SAR": 0.0375684,
  "ScanOptions": "FS",
  "ScanningSequence": "EP",
  "SequenceName": "*epfid2d1_80",
  "SequenceVariant": "SK",
  "SeriesDescription": "func-bold_fa-77",
  "SeriesNumber": 8,
  "ShimSetting": [4219, -7741, -7507, -21, -157, -29, 30, 63],
  "SliceThickness": 3.5,
  "SliceTiming": [0.99, 0, 1.0575, 0.0675, 1.1225, 0.1325, 1.1875, 0.1975, 1.255, 0.265, 1.32, 0.33, 1.3875, 0.3975, 1.4525, 0.4625, 1.5175, 0.5275, 1.585, 0.595, 1.65, 0.66, 1.7175, 0.7275, 1.7825, 0.7925, 1.8475, 0.8575, 1.915, 0.925],
  "SoftwareVersions": "syngo MR E11",
  "SpacingBetweenSlices": 3.99,
  "StationName": "AWP66112",
  "TotalReadoutTime": 0.0395,
  "TxRefAmp": 228.345,
  "dcmmeta_affine": [
    [-2.972196102142334, 0.3870760202407837, 0.16939720511436462, 100.93196105957031],
    [0.40747228264808655, 2.8324453830718994, 1.1979002952575684, -140.5538787841797],
    [0.004042571410536766, -0.9096289277076721, 3.8021626472473145, -19.273162841796875],
    [0.0, 0.0, 0.0, 1.0]
],
  "dcmmeta_reorient_transform": [
    [0.0, -1.0, 0.0, 79.0],
    [1.0, 0.0, 0.0, 0.0],
    [0.0, 0.0, 1.0, 0.0],
    [0.0, 0.0, 0.0, 1.0]
],
  "dcmmeta_shape": [80, 80, 30, 200],
  "dcmmeta_slice_dim": 2,
  "dcmmeta_version": 0.6,
  "global": {
    "const": {
      "AccessionNumber": "qa",
      "AcquisitionMatrix": [80, 0, 0, 80],
      "AngioFlag": "N",
      "BitsAllocated": 16,
      "BitsStored": 12,
      "BodyPartExamined": "BRAIN",
      "Columns": 480,
      "EchoNumbers": 1,
      "EchoTime": 30.0,
      "EchoTrainLength": 80,
      "FlipAngle": 77.0,
      "HighBit": 11,
      "ImageOrientationPatient": [0.99073205190207, -0.1358240976904, 0.00134752384233, 0.12902533525064, 0.94414849451677, 0.30320963567337],
      "ImagePositionPatient": [-803.3654015861, -568.20395294488, -273.86814139305],
      "ImageType": [
        "ORIGINAL",
        "PRIMARY",
        "M",
        "ND",
        "NORM",
        "MOSAIC"
],
      "ImagedNucleus": "1H",
      "ImagingFrequency": 123.259273,
      "InPlanePhaseEncodingDirection": "COL",
      "MRAcquisitionType": "2D",
      "MagneticFieldStrength": 3.0,
      "Manufacturer": "SIEMENS",
      "ManufacturerModelName": "Prisma",
      "Modality": "MR",
      "NumberOfAverages": 1.0,
      "NumberOfPhaseEncodingSteps": 80,
      "PercentPhaseFieldOfView": 100.0,
      "PercentSampling": 100.0,
      "PerformedProcedureStepStartTime": "094047.275000",
      "PhotometricInterpretation": "MONOCHROME2",
      "PixelBandwidth": 2315.0,
      "PixelRepresentation": 0,
      "PixelSpacing": [3.0, 3.0],
      "ProtocolName": "func-bold_fa-77",
      "RepetitionTime": 2000.0,
      "Rows": 480,
      "SAR": 0.03756839038969,
      "SamplesPerPixel": 1,
      "ScanOptions": "FS",
      "ScanningSequence": "EP",
      "SequenceName": "*epfid2d1_80",
      "SequenceVariant": "SK",
      "SeriesDescription": "func-bold_fa-77",
      "SeriesNumber": 8,
      "SeriesTime": "100337.398000",
      "SliceLocation": -56.278605234571,
      "SliceThickness": 3.5,
      "SmallestImagePixelValue": 0,
      "SoftwareVersions": "syngo MR E11",
      "SpacingBetweenSlices": 3.9900000826559,
      "SpecificCharacterSet": "ISO_IR 100",
      "StudyID": "12",
      "StudyTime": "094047.227000",
      "TransmitCoilName": "Body",
      "VariableFlipAngleFlag": "N",
      "WindowCenterWidthExplanation": "Algo1"
    },
    "slices": {}
  },
  "time": {
    "samples": {
      "AcquisitionNumber": [1, 2, 3, 4, 5, 6, 7, 8, 9, 10, 11, 12, 13, 14, 15, 16, 17, 18, 19, 20, 21, 22, 23, 24, 25, 26, 27, 28, 29, 30, 31, 32, 33, 34, 35, 36, 37, 38, 39, 40, 41, 42, 43, 44, 45, 46, 47, 48, 49, 50, 51, 52, 53, 54, 55, 56, 57, 58, 59, 60, 61, 62, 63, 64, 65, 66, 67, 68, 69, 70, 71, 72, 73, 74, 75, 76, 77, 78, 79, 80, 81, 82, 83, 84, 85, 86, 87, 88, 89, 90, 91, 92, 93, 94, 95, 96, 97, 98, 99, 100, 101, 102, 103, 104, 105, 106, 107, 108, 109, 110, 111, 112, 113, 114, 115, 116, 117, 118, 119, 120, 121, 122, 123, 124, 125, 126, 127, 128, 129, 130, 131, 132, 133, 134, 135, 136, 137, 138, 139, 140, 141, 142, 143, 144, 145, 146, 147, 148, 149, 150, 151, 152, 153, 154, 155, 156, 157, 158, 159, 160, 161, 162, 163, 164, 165, 166, 167, 168, 169, 170, 171, 172, 173, 174, 175, 176, 177, 178, 179, 180, 181, 182, 183, 184, 185, 186, 187, 188, 189, 190, 191, 192, 193, 194, 195, 196, 197, 198, 199, 200],
      "AcquisitionTime": ["100255.482500", "100257.482500", "100259.482500", "100301.482500", "100303.482500", "100305.482500", "100307.482500", "100309.482500", "100311.482500", "100313.482500", "100315.482500", "100317.482500", "100319.482500", "100321.482500", "100323.482500", "100325.482500", "100327.482500", "100329.482500", "100331.482500", "100333.482500", "100335.482500", "100337.482500", "100339.482500", "100341.482500", "100343.482500", "100345.482500", "100347.482500", "100349.482500", "100351.482500", "100353.482500", "100355.482500", "100357.482500", "100359.482500", "100401.482500", "100403.482500", "100405.482500", "100407.482500", "100409.482500", "100411.482500", "100413.482500", "100415.482500", "100417.482500", "100419.482500", "100421.482500", "100423.482500", "100425.482500", "100427.482500", "100429.482500", "100431.482500", "100433.482500", "100435.482500", "100437.482500", "100439.482500", "100441.482500", "100443.482500", "100445.482500", "100447.482500", "100449.482500", "100451.482500", "100453.482500", "100455.482500", "100457.482500", "100459.482500", "100501.482500", "100503.482500", "100505.482500", "100507.482500", "100509.482500", "100511.482500", "100513.482500", "100515.482500", "100517.482500", "100519.482500", "100521.482500", "100523.482500", "100525.482500", "100527.482500", "100529.482500", "100531.482500", "100533.482500", "100535.482500", "100537.482500", "100539.482500", "100541.482500", "100543.482500", "100545.482500", "100547.482500", "100549.482500", "100551.482500", "100553.482500", "100555.482500", "100557.482500", "100559.482500", "100601.482500", "100603.482500", "100605.482500", "100607.482500", "100609.482500", "100611.482500", "100613.482500", "100615.482500", "100617.482500", "100619.482500", "100621.482500", "100623.482500", "100625.482500", "100627.482500", "100629.482500", "100631.482500", "100633.482500", "100635.482500", "100637.482500", "100639.482500", "100641.482500", "100643.482500", "100645.482500", "100647.482500", "100649.482500", "100651.482500", "100653.482500", "100655.482500", "100657.482500", "100659.482500", "100701.482500", "100703.482500", "100705.482500", "100707.482500", "100709.482500", "100711.482500", "100713.482500", "100715.482500", "100717.482500", "100719.482500", "100721.482500", "100723.482500", "100725.482500", "100727.482500", "100729.482500", "100731.482500", "100733.482500", "100735.482500", "100737.482500", "100739.482500", "100741.482500", "100743.482500", "100745.482500", "100747.482500", "100749.482500", "100751.482500", "100753.482500", "100755.482500", "100757.482500", "100759.482500", "100801.482500", "100803.482500", "100805.482500", "100807.482500", "100809.482500", "100811.482500", "100813.482500", "100815.482500", "100817.482500", "100819.482500", "100821.482500", "100823.482500", "100825.482500", "100827.482500", "100829.482500", "100831.482500", "100833.482500", "100835.482500", "100837.482500", "100839.482500", "100841.482500", "100843.482500", "100845.482500", "100847.482500", "100849.482500", "100851.482500", "100853.482500", "100855.482500", "100857.482500", "100859.482500", "100901.482500", "100903.482500", "100905.482500", "100907.482500", "100909.482500", "100911.482500", "100913.482500", "100915.482500", "100917.482500", "100919.482500", "100921.482500", "100923.482500", "100925.482500", "100927.482500", "100929.482500", "100931.482500", "100933.482500"],
      "ContentTime": ["100337.401000", "100337.404000", "100337.406000", "100337.409000", "100337.411000", "100337.413000", "100337.415000", "100337.418000", "100337.420000", "100337.422000", "100337.425000", "100337.427000", "100337.429000", "100337.431000", "100337.434000", "100337.436000", "100337.438000", "100337.441000", "100337.443000", "100337.445000", "100337.448000", "100417.397000", "100417.407000", "100417.410000", "100417.412000", "100417.414000", "100417.417000", "100417.419000", "100417.421000", "100417.424000", "100417.426000", "100417.428000", "100417.431000", "100417.433000", "100417.435000", "100417.437000", "100417.440000", "100417.442000", "100417.444000", "100417.447000", "100417.449000", "100457.396000", "100457.399000", "100457.410000", "100457.412000", "100457.415000", "100457.417000", "100457.426000", "100457.429000", "100457.431000", "100457.434000", "100457.436000", "100457.438000", "100457.441000", "100457.443000", "100457.445000", "100457.447000", "100457.450000", "100457.452000", "100457.454000", "100457.456000", "100537.396000", "100537.399000", "100537.401000", "100537.404000", "100537.406000", "100537.408000", "100537.411000", "100537.413000", "100537.415000", "100537.417000", "100537.420000", "100537.422000", "100537.424000", "100537.427000", "100537.429000", "100537.431000", "100537.433000", "100537.436000", "100537.438000", "100537.441000", "100617.396000", "100617.399000", "100617.401000", "100617.403000", "100617.406000", "100617.408000", "100617.410000", "100617.413000", "100617.415000", "100617.417000", "100617.419000", "100617.422000", "100617.424000", "100617.426000", "100617.429000", "100617.431000", "100617.433000", "100617.436000", "100617.438000", "100617.440000", "100657.397000", "100657.400000", "100657.402000", "100657.404000", "100657.406000", "100657.409000", "100657.411000", "100657.413000", "100657.416000", "100657.418000", "100657.420000", "100657.423000", "100657.425000", "100657.427000", "100657.430000", "100657.432000", "100657.434000", "100657.437000", "100657.439000", "100657.441000", "100737.396000", "100737.399000", "100737.401000", "100737.403000", "100737.406000", "100737.408000", "100737.410000", "100737.412000", "100737.415000", "100737.417000", "100737.419000", "100737.422000", "100737.424000", "100737.426000", "100737.429000", "100737.431000", "100737.433000", "100737.435000", "100737.438000", "100737.440000", "100817.396000", "100817.399000", "100817.401000", "100817.403000", "100817.406000", "100817.408000", "100817.410000", "100817.413000", "100817.415000", "100817.417000", "100817.419000", "100817.422000", "100817.424000", "100817.426000", "100817.429000", "100817.431000", "100817.433000", "100817.436000", "100817.438000", "100817.440000", "100857.397000", "100857.400000", "100857.402000", "100857.404000", "100857.407000", "100857.409000", "100857.411000", "100857.414000", "100857.416000", "100857.418000", "100857.421000", "100857.423000", "100857.425000", "100857.427000", "100857.430000", "100857.432000", "100857.434000", "100857.437000", "100857.439000", "100857.441000", "100934.862000", "100934.865000", "100934.867000", "100934.869000", "100934.872000", "100934.874000", "100934.876000", "100934.879000", "100934.881000", "100934.883000", "100934.886000", "100934.888000", "100934.890000", "100934.894000", "100934.897000", "100934.900000", "100934.903000", "100934.906000", "100934.910000"],
      "InstanceCreationTime": ["100337.401000", "100337.404000", "100337.406000", "100337.409000", "100337.411000", "100337.413000", "100337.415000", "100337.418000", "100337.420000", "100337.422000", "100337.425000", "100337.427000", "100337.429000", "100337.431000", "100337.434000", "100337.436000", "100337.438000", "100337.441000", "100337.443000", "100337.445000", "100337.448000", "100417.397000", "100417.407000", "100417.410000", "100417.412000", "100417.414000", "100417.417000", "100417.419000", "100417.421000", "100417.424000", "100417.426000", "100417.428000", "100417.431000", "100417.433000", "100417.435000", "100417.437000", "100417.440000", "100417.442000", "100417.444000", "100417.447000", "100417.449000", "100457.396000", "100457.399000", "100457.410000", "100457.412000", "100457.415000", "100457.417000", "100457.426000", "100457.429000", "100457.431000", "100457.434000", "100457.436000", "100457.438000", "100457.441000", "100457.443000", "100457.445000", "100457.447000", "100457.450000", "100457.452000", "100457.454000", "100457.456000", "100537.396000", "100537.399000", "100537.401000", "100537.404000", "100537.406000", "100537.408000", "100537.411000", "100537.413000", "100537.415000", "100537.417000", "100537.420000", "100537.422000", "100537.424000", "100537.427000", "100537.429000", "100537.431000", "100537.433000", "100537.436000", "100537.438000", "100537.441000", "100617.396000", "100617.399000", "100617.401000", "100617.403000", "100617.406000", "100617.408000", "100617.410000", "100617.413000", "100617.415000", "100617.417000", "100617.419000", "100617.422000", "100617.424000", "100617.426000", "100617.429000", "100617.431000", "100617.433000", "100617.436000", "100617.438000", "100617.440000", "100657.397000", "100657.400000", "100657.402000", "100657.404000", "100657.406000", "100657.409000", "100657.411000", "100657.413000", "100657.416000", "100657.418000", "100657.420000", "100657.423000", "100657.425000", "100657.427000", "100657.430000", "100657.432000", "100657.434000", "100657.437000", "100657.439000", "100657.441000", "100737.396000", "100737.399000", "100737.401000", "100737.403000", "100737.406000", "100737.408000", "100737.410000", "100737.412000", "100737.415000", "100737.417000", "100737.419000", "100737.422000", "100737.424000", "100737.426000", "100737.429000", "100737.431000", "100737.433000", "100737.435000", "100737.438000", "100737.440000", "100817.396000", "100817.399000", "100817.401000", "100817.403000", "100817.406000", "100817.408000", "100817.410000", "100817.413000", "100817.415000", "100817.417000", "100817.419000", "100817.422000", "100817.424000", "100817.426000", "100817.429000", "100817.431000", "100817.433000", "100817.436000", "100817.438000", "100817.440000", "100857.397000", "100857.400000", "100857.402000", "100857.404000", "100857.407000", "100857.409000", "100857.411000", "100857.414000", "100857.416000", "100857.418000", "100857.421000", "100857.423000", "100857.425000", "100857.427000", "100857.430000", "100857.432000", "100857.434000", "100857.437000", "100857.439000", "100857.441000", "100934.862000", "100934.865000", "100934.867000", "100934.869000", "100934.872000", "100934.874000", "100934.876000", "100934.879000", "100934.881000", "100934.883000", "100934.886000", "100934.888000", "100934.890000", "100934.894000", "100934.897000", "100934.900000", "100934.903000", "100934.906000", "100934.910000"],
      "InstanceNumber": [1, 2, 3, 4, 5, 6, 7, 8, 9, 10, 11, 12, 13, 14, 15, 16, 17, 18, 19, 20, 21, 22, 23, 24, 25, 26, 27, 28, 29, 30, 31, 32, 33, 34, 35, 36, 37, 38, 39, 40, 41, 42, 43, 44, 45, 46, 47, 48, 49, 50, 51, 52, 53, 54, 55, 56, 57, 58, 59, 60, 61, 62, 63, 64, 65, 66, 67, 68, 69, 70, 71, 72, 73, 74, 75, 76, 77, 78, 79, 80, 81, 82, 83, 84, 85, 86, 87, 88, 89, 90, 91, 92, 93, 94, 95, 96, 97, 98, 99, 100, 101, 102, 103, 104, 105, 106, 107, 108, 109, 110, 111, 112, 113, 114, 115, 116, 117, 118, 119, 120, 121, 122, 123, 124, 125, 126, 127, 128, 129, 130, 131, 132, 133, 134, 135, 136, 137, 138, 139, 140, 141, 142, 143, 144, 145, 146, 147, 148, 149, 150, 151, 152, 153, 154, 155, 156, 157, 158, 159, 160, 161, 162, 163, 164, 165, 166, 167, 168, 169, 170, 171, 172, 173, 174, 175, 176, 177, 178, 179, 180, 181, 182, 183, 184, 185, 186, 187, 188, 189, 190, 191, 192, 193, 194, 195, 196, 197, 198, 199, 200],
      "LargestImagePixelValue": [2217, 2217, 2220, 2225, 2223, 2217, 2215, 2217, 2221, 2224, 2221, 2220, 2226, 2233, 2232, 2228, 2228, 2226, 2221, 2215, 2215, 2211, 2213, 2218, 2222, 2224, 2219, 2218, 2217, 2222, 2213, 2215, 2215, 2217, 2215, 2219, 2218, 2213, 2210, 2210, 2214, 2214, 2217, 2219, 2219, 2219, 2225, 2222, 2218, 2217, 2211, 2220, 2228, 2226, 2226, 2224, 2225, 2220, 2215, 2221, 2217, 2213, 2218, 2218, 2222, 2226, 2224, 2217, 2214, 2213, 2220, 2219, 2219, 2217, 2216, 2213, 2215, 2219, 2226, 2227, 2226, 2218, 2218, 2221, 2225, 2220, 2219, 2218, 2220, 2219, 2221, 2223, 2225, 2227, 2224, 2217, 2211, 2212, 2215, 2226, 2223, 2220, 2224, 2222, 2222, 2224, 2225, 2224, 2227, 2225, 2216, 2211, 2217, 2221, 2227, 2227, 2219, 2222, 2228, 2228, 2226, 2226, 2222, 2223, 2224, 2226, 2222, 2227, 2231, 2226, 2218, 2217, 2227, 2228, 2227, 2222, 2225, 2233, 2233, 2220, 2222, 2226, 2226, 2224, 2222, 2221, 2231, 2228, 2228, 2223, 2228, 2229, 2222, 2221, 2224, 2223, 2225, 2230, 2223, 2221, 2227, 2227, 2226, 2225, 2224, 2223, 2225, 2226, 2227, 2221, 2213, 2211, 2218, 2226, 2231, 2231, 2225, 2225, 2232, 2230, 2231, 2232, 2232, 2231, 2226, 2221, 2222, 2221, 2223, 2221, 2220, 2229, 2231, 2227, 2225, 2224, 2221, 2225, 2226, 2223],
      "WindowCenter": [1038.0, 1037.0, 1038.0, 1039.0, 1038.0, 1039.0, 1038.0, 1038.0, 1038.0, 1038.0, 1038.0, 1037.0, 1037.0, 1039.0, 1038.0, 1038.0, 1038.0, 1038.0, 1037.0, 1038.0, 1038.0, 1037.0, 1038.0, 1037.0, 1037.0, 1038.0, 1038.0, 1038.0, 1038.0, 1038.0, 1038.0, 1038.0, 1038.0, 1037.0, 1038.0, 1038.0, 1037.0, 1038.0, 1038.0, 1038.0, 1038.0, 1037.0, 1038.0, 1038.0, 1038.0, 1037.0, 1037.0, 1038.0, 1037.0, 1037.0, 1038.0, 1038.0, 1038.0, 1037.0, 1037.0, 1038.0, 1037.0, 1039.0, 1037.0, 1037.0, 1037.0, 1038.0, 1038.0, 1037.0, 1038.0, 1037.0, 1037.0, 1037.0, 1037.0, 1038.0, 1038.0, 1037.0, 1037.0, 1038.0, 1037.0, 1038.0, 1038.0, 1038.0, 1037.0, 1037.0, 1038.0, 1038.0, 1037.0, 1038.0, 1038.0, 1037.0, 1038.0, 1038.0, 1038.0, 1038.0, 1038.0, 1038.0, 1038.0, 1038.0, 1038.0, 1037.0, 1038.0, 1038.0, 1037.0, 1038.0, 1038.0, 1037.0, 1037.0, 1038.0, 1037.0, 1038.0, 1037.0, 1037.0, 1038.0, 1038.0, 1038.0, 1038.0, 1037.0, 1039.0, 1038.0, 1038.0, 1038.0, 1037.0, 1037.0, 1038.0, 1037.0, 1038.0, 1037.0, 1038.0, 1037.0, 1036.0, 1036.0, 1037.0, 1036.0, 1038.0, 1037.0, 1037.0, 1036.0, 1037.0, 1037.0, 1038.0, 1038.0, 1036.0, 1036.0, 1036.0, 1037.0, 1037.0, 1037.0, 1036.0, 1037.0, 1037.0, 1036.0, 1037.0, 1036.0, 1037.0, 1037.0, 1038.0, 1037.0, 1037.0, 1036.0, 1037.0, 1037.0, 1037.0, 1037.0, 1036.0, 1037.0, 1036.0, 1036.0, 1037.0, 1036.0, 1036.0, 1038.0, 1037.0, 1036.0, 1038.0, 1036.0, 1037.0, 1036.0, 1037.0, 1036.0, 1036.0, 1036.0, 1036.0, 1036.0, 1037.0, 1036.0, 1037.0, 1036.0, 1036.0, 1037.0, 1036.0, 1037.0, 1037.0, 1036.0, 1036.0, 1037.0, 1036.0, 1036.0, 1036.0, 1036.0, 1036.0, 1036.0, 1036.0, 1037.0, 1036.0],
      "WindowWidth": [2336.0, 2335.0, 2336.0, 2337.0, 2336.0, 2337.0, 2337.0, 2337.0, 2337.0, 2337.0, 2337.0, 2336.0, 2335.0, 2337.0, 2337.0, 2337.0, 2337.0, 2337.0, 2335.0, 2336.0, 2337.0, 2335.0, 2337.0, 2335.0, 2335.0, 2337.0, 2337.0, 2336.0, 2336.0, 2336.0, 2336.0, 2337.0, 2336.0, 2335.0, 2336.0, 2337.0, 2336.0, 2336.0, 2336.0, 2336.0, 2336.0, 2335.0, 2337.0, 2336.0, 2336.0, 2335.0, 2335.0, 2336.0, 2335.0, 2335.0, 2336.0, 2336.0, 2336.0, 2335.0, 2335.0, 2336.0, 2336.0, 2337.0, 2336.0, 2335.0, 2335.0, 2336.0, 2336.0, 2335.0, 2336.0, 2335.0, 2335.0, 2335.0, 2335.0, 2336.0, 2336.0, 2335.0, 2335.0, 2336.0, 2335.0, 2336.0, 2336.0, 2336.0, 2335.0, 2335.0, 2336.0, 2335.0, 2335.0, 2336.0, 2336.0, 2335.0, 2336.0, 2336.0, 2335.0, 2335.0, 2335.0, 2336.0, 2336.0, 2336.0, 2336.0, 2335.0, 2335.0, 2335.0, 2335.0, 2335.0, 2335.0, 2334.0, 2335.0, 2335.0, 2334.0, 2335.0, 2335.0, 2335.0, 2335.0, 2336.0, 2335.0, 2335.0, 2335.0, 2336.0, 2335.0, 2335.0, 2335.0, 2335.0, 2335.0, 2335.0, 2335.0, 2335.0, 2335.0, 2335.0, 2335.0, 2334.0, 2334.0, 2335.0, 2334.0, 2335.0, 2335.0, 2335.0, 2334.0, 2335.0, 2335.0, 2336.0, 2335.0, 2334.0, 2334.0, 2334.0, 2335.0, 2335.0, 2334.0, 2334.0, 2335.0, 2334.0, 2334.0, 2334.0, 2334.0, 2335.0, 2335.0, 2335.0, 2335.0, 2335.0, 2334.0, 2335.0, 2335.0, 2335.0, 2335.0, 2334.0, 2334.0, 2334.0, 2334.0, 2334.0, 2334.0, 2334.0, 2335.0, 2334.0, 2334.0, 2335.0, 2334.0, 2334.0, 2333.0, 2334.0, 2334.0, 2334.0, 2334.0, 2333.0, 2333.0, 2334.0, 2333.0, 2334.0, 2333.0, 2334.0, 2334.0, 2333.0, 2334.0, 2334.0, 2333.0, 2333.0, 2334.0, 2334.0, 2333.0, 2333.0, 2333.0, 2333.0, 2333.0, 2333.0, 2334.0, 2333.0]
    },
    "slices": {}
  }
}