{
  "AcquisitionMatrixPE": 80,
  "AcquisitionNumber": 1,
  "AcquisitionTime": "09:56:6.092500",
  "BandwidthPerPixelPhaseEncode": 46.296,
  "BaseResolution": 80,
  "BodyPartExamined": "BRAIN",
  "CoilCombinationMethod": "Sum of Squares",
  "ConsistencyInfo": "N4_VE11E_LATEST_20181129",
  "ConversionSoftware": "dcm2niix",
  "ConversionSoftwareVersion": "v1.0.20220720",
  "DerivedVendorReportedEchoSpacing": 0.000540003,
  "DeviceSerialNumber": "66112",
  "DwellTime": 2.7e-06,
  "EchoTime": 0.035,
  "EchoTrainLength": 39,
  "EffectiveEchoSpacing": 0.000270002,
  "FlipAngle": 90,
  "HeudiconvVersion": "0.13.1",
  "ImageOrientationPatientDICOM": [0.990732, -0.135824, 0.00134752, 0.129025, 0.944148, 0.30321],
  "ImageOrientationText": "Tra>Cor(17.5)>Sag(2.4)",
  "ImageType": [
    "ORIGINAL",
    "PRIMARY",
    "M",
    "ND",
    "NORM",
    "MOSAIC"
],
  "ImagingFrequency": 123.259,
  "InPlanePhaseEncodingDirectionDICOM": "COL",
  "InstitutionAddress": "Maynard 3,Hanover,NH,US,03755",
  "InstitutionName": "Dartmouth College - PBS",
  "InstitutionalDepartmentName": "Department",
  "MRAcquisitionType": "2D",
  "MagneticFieldStrength": 3,
  "Manufacturer": "Siemens",
  "ManufacturersModelName": "Prisma",
  "Modality": "MR",
  "MultibandAccelerationFactor": 4,
  "NonlinearGradientCorrection": false,
  "ParallelReductionFactorInPlane": 2,
  "PartialFourier": 1,
  "PatientPosition": "HFS",
  "PercentPhaseFOV": 100,
  "PercentSampling": 100,
  "PhaseEncodingDirection": "j-",
  "PhaseEncodingSteps": 79,
  "PhaseResolution": 1,
  "PixelBandwidth": 2315,
  "ProcedureStepDescription": "dbic^QA",
  "ProtocolName": "func-bold_task-rest_acq-p2-s4-3.5mm",
  "PulseSequenceDetails": "%SiemensSeq%\\ep2d_bold",
  "ReceiveCoilActiveElements": "HEA;HEP",
  "ReceiveCoilName": "Head_32",
  "ReconMatrixPE": 80,
  "RefLinesPE": 24,
  "RepetitionTime": 2,
  "SAR": 0.0179776,
  "ScanOptions": "FS",
  "ScanningSequence": "EP",
  "SequenceName": "*epfid2d1_80",
  "SequenceVariant": "SK",
  "SeriesDescription": "func-bold_task-rest_acq-p2-s4-3.5mm",
  "SeriesNumber": 7,
  "ShimSetting": [4220, -7742, -7506, -19, -159, -26, 29, 64],
  "SliceThickness": 3.5,
  "SliceTiming": [1.485, 0, 0.99, 0.2475, 1.2375, 0.7425, 1.7325, 0.495, 1.485, 0, 0.99, 0.2475, 1.2375, 0.7425, 1.7325, 0.495, 1.485, 0, 0.99, 0.2475, 1.2375, 0.7425, 1.7325, 0.495, 1.485, 0, 0.99, 0.2475, 1.2375, 0.7425, 1.7325, 0.495],
  "SoftwareVersions": "syngo MR E11",
  "SpacingBetweenSlices": 3.99,
  "StationName": "AWP66112",
  "TaskName": "rest",
  "TotalReadoutTime": 0.0213301,
  "TxRefAmp": 228.345,
  "dcmmeta_affine": [
    [-2.972196102142334, 0.3870760202407837, 0.16939719021320343, 100.51376342773438],
    [0.40747228264808655, 2.8324453830718994, 1.1979002952575684, -143.59161376953125],
    [0.004042571410536766, -0.9096289277076721, 3.8021624088287354, -20.476207733154297],
    [0.0, 0.0, 0.0, 1.0]
],
  "dcmmeta_reorient_transform": [
    [0.0, -1.0, 0.0, 79.0],
    [1.0, 0.0, 0.0, 0.0],
    [0.0, 0.0, 1.0, 0.0],
    [0.0, 0.0, 0.0, 1.0]
],
  "dcmmeta_shape": [80, 80, 32, 200],
  "dcmmeta_slice_dim": 2,
  "dcmmeta_version": 0.6,
  "global": {
    "const": {
      "AccessionNumber": "qa",
      "AcquisitionMatrix": [80, 0, 0, 80],
      "AngioFlag": "N",
      "BitsAllocated": 16,
      "BitsStored": 12,
      "BodyPartExamined": "BRAIN",
      "Columns": 480,
      "EchoNumbers": 1,
      "EchoTime": 35.0,
      "EchoTrainLength": 39,
      "FlipAngle": 90.0,
      "HighBit": 11,
      "ImageOrientationPatient": [0.99073205190207, -0.1358240976904, 0.00134752384233, 0.12902533525064, 0.94414849451677, 0.30320963567337],
      "ImagePositionPatient": [-802.94719727855, -565.16621700586, -275.07118628441],
      "ImageType": [
        "ORIGINAL",
        "PRIMARY",
        "M",
        "ND",
        "NORM",
        "MOSAIC"
],
      "ImagedNucleus": "1H",
      "ImagingFrequency": 123.259273,
      "InPlanePhaseEncodingDirection": "COL",
      "MRAcquisitionType": "2D",
      "MagneticFieldStrength": 3.0,
      "Manufacturer": "SIEMENS",
      "ManufacturerModelName": "Prisma",
      "Modality": "MR",
      "NumberOfAverages": 1.0,
      "NumberOfPhaseEncodingSteps": 79,
      "PercentPhaseFieldOfView": 100.0,
      "PercentSampling": 100.0,
      "PerformedProcedureStepStartTime": "094047.275000",
      "PhotometricInterpretation": "MONOCHROME2",
      "PixelBandwidth": 2315.0,
      "PixelRepresentation": 0,
      "PixelSpacing": [3.0, 3.0],
      "ProtocolName": "func-bold_task-rest_acq-p2-s4-3.5mm",
      "RepetitionTime": 2000.0,
      "Rows": 480,
      "SAR": 0.01797763095806,
      "SamplesPerPixel": 1,
      "ScanOptions": "FS",
      "ScanningSequence": "EP",
      "SequenceName": "*epfid2d1_80",
      "SequenceVariant": "SK",
      "SeriesDescription": "func-bold_task-rest_acq-p2-s4-3.5mm",
      "SeriesNumber": 7,
      "SeriesTime": "095657.312000",
      "SliceLocation": -58.354775554137,
      "SliceThickness": 3.5,
      "SmallestImagePixelValue": 0,
      "SoftwareVersions": "syngo MR E11",
      "SpacingBetweenSlices": 3.9899999598618,
      "SpecificCharacterSet": "ISO_IR 100",
      "StudyID": "12",
      "StudyTime": "094047.227000",
      "TransmitCoilName": "Body",
      "VariableFlipAngleFlag": "N",
      "WindowCenterWidthExplanation": "Algo1"
    },
    "slices": {}
  },
  "time": {
    "samples": {
      "AcquisitionNumber": [1, 2, 3, 4, 5, 6, 7, 8, 9, 10, 11, 12, 13, 14, 15, 16, 17, 18, 19, 20, 21, 22, 23, 24, 25, 26, 27, 28, 29, 30, 31, 32, 33, 34, 35, 36, 37, 38, 39, 40, 41, 42, 43, 44, 45, 46, 47, 48, 49, 50, 51, 52, 53, 54, 55, 56, 57, 58, 59, 60, 61, 62, 63, 64, 65, 66, 67, 68, 69, 70, 71, 72, 73, 74, 75, 76, 77, 78, 79, 80, 81, 82, 83, 84, 85, 86, 87, 88, 89, 90, 91, 92, 93, 94, 95, 96, 97, 98, 99, 100, 101, 102, 103, 104, 105, 106, 107, 108, 109, 110, 111, 112, 113, 114, 115, 116, 117, 118, 119, 120, 121, 122, 123, 124, 125, 126, 127, 128, 129, 130, 131, 132, 133, 134, 135, 136, 137, 138, 139, 140, 141, 142, 143, 144, 145, 146, 147, 148, 149, 150, 151, 152, 153, 154, 155, 156, 157, 158, 159, 160, 161, 162, 163, 164, 165, 166, 167, 168, 169, 170, 171, 172, 173, 174, 175, 176, 177, 178, 179, 180, 181, 182, 183, 184, 185, 186, 187, 188, 189, 190, 191, 192, 193, 194, 195, 196, 197, 198, 199, 200],
      "AcquisitionTime": ["095606.092500", "095608.092500", "095610.092500", "095612.092500", "095614.092500", "095616.092500", "095618.092500", "095620.092500", "095622.092500", "095624.092500", "095626.092500", "095628.092500", "095630.092500", "095632.092500", "095634.092500", "095636.092500", "095638.092500", "095640.092500", "095642.092500", "095644.092500", "095646.092500", "095648.092500", "095650.092500", "095652.092500", "095654.092500", "095656.092500", "095658.092500", "095700.092500", "095702.092500", "095704.092500", "095706.092500", "095708.092500", "095710.092500", "095712.092500", "095714.092500", "095716.092500", "095718.092500", "095720.092500", "095722.092500", "095724.092500", "095726.092500", "095728.092500", "095730.092500", "095732.092500", "095734.092500", "095736.092500", "095738.092500", "095740.092500", "095742.092500", "095744.092500", "095746.092500", "095748.092500", "095750.092500", "095752.092500", "095754.092500", "095756.092500", "095758.092500", "095800.092500", "095802.092500", "095804.092500", "095806.092500", "095808.092500", "095810.092500", "095812.092500", "095814.092500", "095816.092500", "095818.092500", "095820.092500", "095822.092500", "095824.092500", "095826.092500", "095828.092500", "095830.092500", "095832.092500", "095834.092500", "095836.092500", "095838.092500", "095840.092500", "095842.092500", "095844.092500", "095846.092500", "095848.092500", "095850.092500", "095852.092500", "095854.092500", "095856.092500", "095858.092500", "095900.092500", "095902.092500", "095904.092500", "095906.092500", "095908.092500", "095910.092500", "095912.092500", "095914.092500", "095916.092500", "095918.092500", "095920.092500", "095922.092500", "095924.092500", "095926.092500", "095928.092500", "095930.092500", "095932.092500", "095934.092500", "095936.092500", "095938.092500", "095940.092500", "095942.092500", "095944.092500", "095946.092500", "095948.092500", "095950.092500", "095952.092500", "095954.092500", "095956.092500", "095958.092500", "100000.092500", "100002.092500", "100004.092500", "100006.092500", "100008.092500", "100010.092500", "100012.092500", "100014.092500", "100016.092500", "100018.092500", "100020.092500", "100022.092500", "100024.092500", "100026.092500", "100028.092500", "100030.092500", "100032.092500", "100034.092500", "100036.092500", "100038.092500", "100040.092500", "100042.092500", "100044.092500", "100046.092500", "100048.092500", "100050.092500", "100052.092500", "100054.092500", "100056.092500", "100058.092500", "100100.092500", "100102.092500", "100104.092500", "100106.092500", "100108.092500", "100110.092500", "100112.092500", "100114.092500", "100116.092500", "100118.092500", "100120.092500", "100122.092500", "100124.092500", "100126.092500", "100128.092500", "100130.092500", "100132.092500", "100134.092500", "100136.092500", "100138.092500", "100140.092500", "100142.092500", "100144.092500", "100146.092500", "100148.092500", "100150.092500", "100152.092500", "100154.092500", "100156.092500", "100158.092500", "100200.092500", "100202.092500", "100204.092500", "100206.092500", "100208.092500", "100210.092500", "100212.092500", "100214.092500", "100216.092500", "100218.092500", "100220.092500", "100222.092500", "100224.092500", "100226.092500", "100228.092500", "100230.092500", "100232.092500", "100234.092500", "100236.092500", "100238.092500", "100240.092500", "100242.092500", "100244.092500"],
      "ContentTime": ["095657.315000", "095657.318000", "095657.320000", "095657.323000", "095657.332000", "095657.335000", "095657.337000", "095657.339000", "095657.342000", "095657.346000", "095657.348000", "095657.351000", "095657.358000", "095657.360000", "095657.363000", "095657.365000", "095657.368000", "095657.370000", "095657.372000", "095657.374000", "095657.377000", "095657.379000", "095657.381000", "095657.384000", "095657.386000", "095657.388000", "095737.311000", "095737.314000", "095737.316000", "095737.318000", "095737.321000", "095737.323000", "095737.325000", "095737.328000", "095737.330000", "095737.332000", "095737.335000", "095737.337000", "095737.342000", "095737.344000", "095737.347000", "095737.349000", "095737.351000", "095737.354000", "095737.356000", "095737.358000", "095817.310000", "095817.313000", "095817.315000", "095817.317000", "095817.320000", "095817.322000", "095817.325000", "095817.327000", "095817.329000", "095817.332000", "095817.334000", "095817.336000", "095817.339000", "095817.341000", "095817.344000", "095817.346000", "095817.349000", "095817.376000", "095817.379000", "095817.381000", "095857.310000", "095857.313000", "095857.315000", "095857.318000", "095857.320000", "095857.322000", "095857.325000", "095857.327000", "095857.329000", "095857.332000", "095857.334000", "095857.336000", "095857.339000", "095857.341000", "095857.343000", "095857.346000", "095857.348000", "095857.350000", "095857.353000", "095857.355000", "095937.311000", "095937.314000", "095937.316000", "095937.318000", "095937.321000", "095937.323000", "095937.325000", "095937.328000", "095937.330000", "095937.332000", "095937.335000", "095937.337000", "095937.339000", "095937.341000", "095937.344000", "095937.346000", "095937.348000", "095937.351000", "095937.353000", "095937.355000", "100017.311000", "100017.314000", "100017.316000", "100017.318000", "100017.321000", "100017.323000", "100017.325000", "100017.328000", "100017.330000", "100017.332000", "100017.335000", "100017.337000", "100017.339000", "100017.341000", "100017.344000", "100017.346000", "100017.348000", "100017.351000", "100017.353000", "100017.355000", "100057.310000", "100057.313000", "100057.315000", "100057.317000", "100057.320000", "100057.322000", "100057.324000", "100057.327000", "100057.329000", "100057.331000", "100057.333000", "100057.336000", "100057.338000", "100057.340000", "100057.343000", "100057.345000", "100057.347000", "100057.350000", "100057.352000", "100057.354000", "100137.310000", "100137.313000", "100137.315000", "100137.317000", "100137.320000", "100137.322000", "100137.324000", "100137.327000", "100137.329000", "100137.331000", "100137.334000", "100137.336000", "100137.338000", "100137.340000", "100137.343000", "100137.345000", "100137.347000", "100137.350000", "100137.352000", "100137.354000", "100217.311000", "100217.314000", "100217.316000", "100217.318000", "100217.321000", "100217.323000", "100217.325000", "100217.328000", "100217.330000", "100217.337000", "100217.339000", "100217.341000", "100217.344000", "100217.346000", "100217.348000", "100217.351000", "100217.353000", "100217.355000", "100217.358000", "100217.360000", "100245.246000", "100245.249000", "100245.251000", "100245.254000", "100245.256000", "100245.258000", "100245.261000", "100245.263000", "100245.266000", "100245.268000", "100245.270000", "100245.273000", "100245.275000", "100245.277000"],
      "InstanceCreationTime": ["095657.315000", "095657.318000", "095657.320000", "095657.323000", "095657.332000", "095657.335000", "095657.337000", "095657.339000", "095657.342000", "095657.346000", "095657.348000", "095657.351000", "095657.358000", "095657.360000", "095657.363000", "095657.365000", "095657.368000", "095657.370000", "095657.372000", "095657.374000", "095657.377000", "095657.379000", "095657.381000", "095657.384000", "095657.386000", "095657.388000", "095737.311000", "095737.314000", "095737.316000", "095737.318000", "095737.321000", "095737.323000", "095737.325000", "095737.328000", "095737.330000", "095737.332000", "095737.335000", "095737.337000", "095737.342000", "095737.344000", "095737.347000", "095737.349000", "095737.351000", "095737.354000", "095737.356000", "095737.358000", "095817.310000", "095817.313000", "095817.315000", "095817.317000", "095817.320000", "095817.322000", "095817.325000", "095817.327000", "095817.329000", "095817.332000", "095817.334000", "095817.336000", "095817.339000", "095817.341000", "095817.344000", "095817.346000", "095817.349000", "095817.376000", "095817.379000", "095817.381000", "095857.310000", "095857.313000", "095857.315000", "095857.318000", "095857.320000", "095857.322000", "095857.325000", "095857.327000", "095857.329000", "095857.332000", "095857.334000", "095857.336000", "095857.339000", "095857.341000", "095857.343000", "095857.346000", "095857.348000", "095857.350000", "095857.353000", "095857.355000", "095937.311000", "095937.314000", "095937.316000", "095937.318000", "095937.321000", "095937.323000", "095937.325000", "095937.328000", "095937.330000", "095937.332000", "095937.335000", "095937.337000", "095937.339000", "095937.341000", "095937.344000", "095937.346000", "095937.348000", "095937.351000", "095937.353000", "095937.355000", "100017.311000", "100017.314000", "100017.316000", "100017.318000", "100017.321000", "100017.323000", "100017.325000", "100017.328000", "100017.330000", "100017.332000", "100017.335000", "100017.337000", "100017.339000", "100017.341000", "100017.344000", "100017.346000", "100017.348000", "100017.351000", "100017.353000", "100017.355000", "100057.310000", "100057.313000", "100057.315000", "100057.317000", "100057.320000", "100057.322000", "100057.324000", "100057.327000", "100057.329000", "100057.331000", "100057.333000", "100057.336000", "100057.338000", "100057.340000", "100057.343000", "100057.345000", "100057.347000", "100057.350000", "100057.352000", "100057.354000", "100137.310000", "100137.313000", "100137.315000", "100137.317000", "100137.320000", "100137.322000", "100137.324000", "100137.327000", "100137.329000", "100137.331000", "100137.334000", "100137.336000", "100137.338000", "100137.340000", "100137.343000", "100137.345000", "100137.347000", "100137.350000", "100137.352000", "100137.354000", "100217.311000", "100217.314000", "100217.316000", "100217.318000", "100217.321000", "100217.323000", "100217.325000", "100217.328000", "100217.330000", "100217.337000", "100217.339000", "100217.341000", "100217.344000", "100217.346000", "100217.348000", "100217.351000", "100217.353000", "100217.355000", "100217.358000", "100217.360000", "100245.246000", "100245.249000", "100245.251000", "100245.254000", "100245.256000", "100245.258000", "100245.261000", "100245.263000", "100245.266000", "100245.268000", "100245.270000", "100245.273000", "100245.275000", "100245.277000"],
      "InstanceNumber": [1, 2, 3, 4, 5, 6, 7, 8, 9, 10, 11, 12, 13, 14, 15, 16, 17, 18, 19, 20, 21, 22, 23, 24, 25, 26, 27, 28, 29, 30, 31, 32, 33, 34, 35, 36, 37, 38, 39, 40, 41, 42, 43, 44, 45, 46, 47, 48, 49, 50, 51, 52, 53, 54, 55, 56, 57, 58, 59, 60, 61, 62, 63, 64, 65, 66, 67, 68, 69, 70, 71, 72, 73, 74, 75, 76, 77, 78, 79, 80, 81, 82, 83, 84, 85, 86, 87, 88, 89, 90, 91, 92, 93, 94, 95, 96, 97, 98, 99, 100, 101, 102, 103, 104, 105, 106, 107, 108, 109, 110, 111, 112, 113, 114, 115, 116, 117, 118, 119, 120, 121, 122, 123, 124, 125, 126, 127, 128, 129, 130, 131, 132, 133, 134, 135, 136, 137, 138, 139, 140, 141, 142, 143, 144, 145, 146, 147, 148, 149, 150, 151, 152, 153, 154, 155, 156, 157, 158, 159, 160, 161, 162, 163, 164, 165, 166, 167, 168, 169, 170, 171, 172, 173, 174, 175, 176, 177, 178, 179, 180, 181, 182, 183, 184, 185, 186, 187, 188, 189, 190, 191, 192, 193, 194, 195, 196, 197, 198, 199, 200],
      "LargestImagePixelValue": [2298, 2301, 2303, 2304, 2307, 2307, 2304, 2299, 2292, 2300, 2299, 2298, 2305, 2309, 2303, 2299, 2299, 2297, 2298, 2301, 2303, 2301, 2302, 2307, 2300, 2298, 2293, 2300, 2298, 2295, 2290, 2285, 2285, 2292, 2293, 2298, 2292, 2296, 2295, 2297, 2295, 2294, 2290, 2291, 2293, 2295, 2288, 2291, 2294, 2291, 2297, 2297, 2291, 2288, 2296, 2292, 2294, 2296, 2290, 2284, 2287, 2295, 2293, 2295, 2292, 2292, 2291, 2294, 2293, 2290, 2286, 2288, 2283, 2283, 2283, 2284, 2288, 2288, 2291, 2288, 2290, 2292, 2286, 2285, 2287, 2288, 2290, 2288, 2290, 2292, 2294, 2300, 2292, 2295, 2297, 2301, 2296, 2299, 2297, 2298, 2295, 2289, 2292, 2293, 2290, 2293, 2294, 2294, 2300, 2301, 2293, 2291, 2295, 2288, 2285, 2285, 2294, 2287, 2296, 2300, 2296, 2298, 2296, 2301, 2304, 2295, 2295, 2296, 2309, 2296, 2296, 2298, 2291, 2295, 2303, 2293, 2294, 2291, 2293, 2293, 2293, 2288, 2296, 2301, 2288, 2286, 2295, 2290, 2295, 2285, 2287, 2290, 2298, 2298, 2287, 2289, 2289, 2303, 2302, 2298, 2292, 2298, 2299, 2308, 2303, 2297, 2300, 2300, 2300, 2301, 2299, 2299, 2293, 2294, 2288, 2297, 2294, 2290, 2288, 2298, 2298, 2294, 2288, 2295, 2301, 2300, 2306, 2302, 2298, 2289, 2297, 2295, 2292, 2298, 2295, 2290, 2288, 2290, 2292, 2293],
      "WindowCenter": [986.0, 985.0, 986.0, 985.0, 985.0, 984.0, 985.0, 985.0, 985.0, 985.0, 986.0, 986.0, 985.0, 985.0, 985.0, 985.0, 985.0, 984.0, 985.0, 984.0, 985.0, 986.0, 984.0, 985.0, 984.0, 984.0, 985.0, 986.0, 984.0, 985.0, 985.0, 985.0, 984.0, 985.0, 985.0, 985.0, 985.0, 985.0, 985.0, 986.0, 985.0, 986.0, 986.0, 985.0, 985.0, 985.0, 985.0, 985.0, 985.0, 984.0, 985.0, 985.0, 985.0, 985.0, 985.0, 985.0, 985.0, 986.0, 985.0, 985.0, 986.0, 985.0, 985.0, 986.0, 985.0, 985.0, 985.0, 985.0, 986.0, 986.0, 985.0, 985.0, 985.0, 984.0, 984.0, 985.0, 985.0, 985.0, 985.0, 985.0, 984.0, 983.0, 985.0, 984.0, 984.0, 984.0, 984.0, 984.0, 984.0, 983.0, 984.0, 985.0, 985.0, 984.0, 985.0, 985.0, 984.0, 983.0, 984.0, 984.0, 985.0, 983.0, 985.0, 984.0, 985.0, 983.0, 985.0, 985.0, 984.0, 984.0, 985.0, 985.0, 984.0, 985.0, 985.0, 985.0, 983.0, 984.0, 985.0, 983.0, 983.0, 984.0, 985.0, 985.0, 984.0, 985.0, 985.0, 985.0, 985.0, 985.0, 985.0, 984.0, 985.0, 985.0, 985.0, 984.0, 984.0, 985.0, 985.0, 984.0, 984.0, 985.0, 984.0, 985.0, 983.0, 984.0, 984.0, 983.0, 985.0, 985.0, 984.0, 983.0, 985.0, 984.0, 985.0, 984.0, 985.0, 985.0, 984.0, 984.0, 983.0, 985.0, 984.0, 984.0, 984.0, 984.0, 984.0, 984.0, 984.0, 985.0, 985.0, 984.0, 984.0, 983.0, 985.0, 984.0, 984.0, 985.0, 984.0, 984.0, 984.0, 984.0, 984.0, 984.0, 984.0, 984.0, 983.0, 984.0, 985.0, 983.0, 985.0, 984.0, 984.0, 984.0, 984.0, 984.0, 985.0, 985.0, 984.0, 984.0],
      "WindowWidth": [2354.0, 2353.0, 2354.0, 2353.0, 2353.0, 2353.0, 2353.0, 2353.0, 2354.0, 2353.0, 2354.0, 2354.0, 2353.0, 2353.0, 2353.0, 2353.0, 2353.0, 2353.0, 2353.0, 2353.0, 2353.0, 2354.0, 2352.0, 2353.0, 2353.0, 2352.0, 2353.0, 2354.0, 2352.0, 2353.0, 2354.0, 2353.0, 2353.0, 2354.0, 2353.0, 2353.0, 2354.0, 2354.0, 2353.0, 2354.0, 2353.0, 2354.0, 2354.0, 2354.0, 2354.0, 2353.0, 2353.0, 2354.0, 2353.0, 2352.0, 2354.0, 2353.0, 2354.0, 2354.0, 2353.0, 2353.0, 2353.0, 2354.0, 2354.0, 2354.0, 2354.0, 2353.0, 2353.0, 2354.0, 2353.0, 2353.0, 2353.0, 2353.0, 2354.0, 2354.0, 2353.0, 2353.0, 2353.0, 2354.0, 2354.0, 2355.0, 2355.0, 2353.0, 2355.0, 2355.0, 2352.0, 2352.0, 2354.0, 2353.0, 2354.0, 2353.0, 2354.0, 2354.0, 2352.0, 2353.0, 2353.0, 2355.0, 2355.0, 2354.0, 2355.0, 2355.0, 2354.0, 2353.0, 2354.0, 2352.0, 2353.0, 2352.0, 2355.0, 2354.0, 2355.0, 2351.0, 2353.0, 2354.0, 2352.0, 2353.0, 2353.0, 2353.0, 2354.0, 2354.0, 2353.0, 2353.0, 2353.0, 2352.0, 2353.0, 2352.0, 2353.0, 2354.0, 2354.0, 2353.0, 2354.0, 2355.0, 2355.0, 2355.0, 2355.0, 2355.0, 2355.0, 2354.0, 2354.0, 2353.0, 2355.0, 2353.0, 2353.0, 2355.0, 2353.0, 2352.0, 2352.0, 2355.0, 2353.0, 2355.0, 2353.0, 2353.0, 2353.0, 2353.0, 2355.0, 2353.0, 2353.0, 2352.0, 2353.0, 2353.0, 2353.0, 2353.0, 2354.0, 2354.0, 2353.0, 2353.0, 2352.0, 2354.0, 2353.0, 2353.0, 2353.0, 2353.0, 2353.0, 2353.0, 2353.0, 2354.0, 2354.0, 2354.0, 2353.0, 2352.0, 2354.0, 2353.0, 2353.0, 2353.0, 2352.0, 2353.0, 2353.0, 2353.0, 2353.0, 2353.0, 2353.0, 2353.0, 2352.0, 2353.0, 2354.0, 2352.0, 2354.0, 2353.0, 2353.0, 2353.0, 2353.0, 2353.0, 2353.0, 2354.0, 2353.0, 2353.0]
    },
    "slices": {}
  }
}