{
  "AcquisitionMatrixPE": 80,
  "AcquisitionNumber": 1,
  "AcquisitionTime": "09:04:33.432500",
  "BandwidthPerPixelPhaseEncode": 25,
  "BaseResolution": 80,
  "BodyPartExamined": "BRAIN",
  "CoilCombinationMethod": "Sum of Squares",
  "ConsistencyInfo": "N4_VE11E_LATEST_20181129",
  "ConversionSoftware": "dcm2niix",
  "ConversionSoftwareVersion": "v1.0.20220720",
  "DerivedVendorReportedEchoSpacing": 0.0005,
  "DeviceSerialNumber": "66112",
  "DwellTime": 2.7e-06,
  "EchoTime": 0.03,
  "EchoTrainLength": 80,
  "EffectiveEchoSpacing": 0.0005,
  "FlipAngle": 77,
  "HeudiconvVersion": "0.13.1",
  "ImageOrientationPatientDICOM": [0.991688, 0.12853, 0.00591685, -0.124049, 0.942875, 0.309189],
  "ImageOrientationText": "Tra>Cor(17.9)>Sag(-2.0)",
  "ImageType": [
    "ORIGINAL",
    "PRIMARY",
    "M",
    "ND",
    "NORM",
    "MOSAIC"
],
  "ImagingFrequency": 123.259,
  "InPlanePhaseEncodingDirectionDICOM": "COL",
  "InstitutionAddress": "Maynard 3,Hanover,NH,US,03755",
  "InstitutionName": "Dartmouth College - PBS",
  "InstitutionalDepartmentName": "Department",
  "MRAcquisitionType": "2D",
  "MagneticFieldStrength": 3,
  "Manufacturer": "Siemens",
  "ManufacturersModelName": "Prisma",
  "MatrixCoilMode": "SENSE",
  "Modality": "MR",
  "NonlinearGradientCorrection": false,
  "PartialFourier": 1,
  "PatientPosition": "HFS",
  "PercentPhaseFOV": 100,
  "PercentSampling": 100,
  "PhaseEncodingDirection": "j-",
  "PhaseEncodingSteps": 80,
  "PhaseResolution": 1,
  "PixelBandwidth": 2315,
  "ProcedureStepDescription": "dbic^QA",
  "ProtocolName": "func-bold_fa-77",
  "PulseSequenceDetails": "%SiemensSeq%\\ep2d_bold",
  "ReceiveCoilActiveElements": "HC1-7;NC1,2",
  "ReceiveCoilName": "HeadNeck_64",
  "ReconMatrixPE": 80,
  "RepetitionTime": 2,
  "SAR": 0.0282912,
  "ScanOptions": "FS",
  "ScanningSequence": "EP",
  "SequenceName": "*epfid2d1_80",
  "SequenceVariant": "SK",
  "SeriesDescription": "func-bold_fa-77",
  "SeriesNumber": 6,
  "ShimSetting": [4216, -7745, -7493, -99, -135, -269, -54, 108],
  "SliceThickness": 3.5,
  "SliceTiming": [0.99, 0, 1.055, 0.065, 1.12, 0.1325, 1.1875, 0.1975, 1.2525, 0.2625, 1.32, 0.33, 1.385, 0.395, 1.45, 0.46, 1.5175, 0.5275, 1.5825, 0.5925, 1.65, 0.66, 1.715, 0.725, 1.78, 0.79, 1.8475, 0.8575, 1.9125, 0.9225],
  "SoftwareVersions": "syngo MR E11",
  "SpacingBetweenSlices": 3.99,
  "StationName": "AWP66112",
  "TotalReadoutTime": 0.0395,
  "TxRefAmp": 213.29,
  "dcmmeta_affine": [
    [-2.9750638008117676, -0.3721456527709961, -0.13630381226539612, 134.59664916992188],
    [-0.3855908513069153, 2.8286259174346924, 1.2263402938842773, -109.92298126220703],
    [0.017750563099980354, -0.9275684356689453, 3.7944183349609375, -22.73935890197754],
    [0.0, 0.0, 0.0, 1.0]
],
  "dcmmeta_reorient_transform": [
    [0.0, -1.0, 0.0, 79.0],
    [1.0, 0.0, 0.0, 0.0],
    [0.0, 0.0, 1.0, 0.0],
    [0.0, 0.0, 0.0, 1.0]
],
  "dcmmeta_shape": [80, 80, 30, 200],
  "dcmmeta_slice_dim": 2,
  "dcmmeta_version": 0.6,
  "global": {
    "const": {
      "AccessionNumber": "qa64",
      "AcquisitionMatrix": [80, 0, 0, 80],
      "AngioFlag": "N",
      "BitsAllocated": 16,
      "BitsStored": 12,
      "BodyPartExamined": "BRAIN",
      "Columns": 480,
      "EchoNumbers": 1,
      "EchoTime": 30.0,
      "EchoTrainLength": 80,
      "FlipAngle": 77.0,
      "HighBit": 11,
      "ImageOrientationPatient": [0.99168793377994, 0.12853027982966, 0.00591685407812, -0.1240485540914, 0.94287529274691, 0.30918948648891],
      "ImagePositionPatient": [-625.78077589639, -756.38180462116, -285.08107112867],
      "ImageType": [
        "ORIGINAL",
        "PRIMARY",
        "M",
        "ND",
        "NORM",
        "MOSAIC"
],
      "ImagedNucleus": "1H",
      "ImagingFrequency": 123.259135,
      "InPlanePhaseEncodingDirection": "COL",
      "LargestImagePixelValue": 4095,
      "MRAcquisitionType": "2D",
      "MagneticFieldStrength": 3.0,
      "Manufacturer": "SIEMENS",
      "ManufacturerModelName": "Prisma",
      "Modality": "MR",
      "NumberOfAverages": 1.0,
      "NumberOfPhaseEncodingSteps": 80,
      "PercentPhaseFieldOfView": 100.0,
      "PercentSampling": 100.0,
      "PerformedProcedureStepStartTime": "085054.374000",
      "PhotometricInterpretation": "MONOCHROME2",
      "PixelBandwidth": 2315.0,
      "PixelRepresentation": 0,
      "PixelSpacing": [3.0, 3.0],
      "ProtocolName": "func-bold_fa-77",
      "RepetitionTime": 2000.0,
      "Rows": 480,
      "SAR": 0.02829119861835,
      "SamplesPerPixel": 1,
      "ScanOptions": "FS",
      "ScanningSequence": "EP",
      "SequenceName": "*epfid2d1_80",
      "SequenceVariant": "SK",
      "SeriesDescription": "func-bold_fa-77",
      "SeriesNumber": 6,
      "SeriesTime": "090520.824000",
      "SliceLocation": -60.007935162733,
      "SliceThickness": 3.5,
      "SmallestImagePixelValue": 0,
      "SoftwareVersions": "syngo MR E11",
      "SpacingBetweenSlices": 3.9899999893745,
      "SpecificCharacterSet": "ISO_IR 100",
      "StudyID": "3",
      "StudyTime": "085054.314000",
      "TransmitCoilName": "Body",
      "VariableFlipAngleFlag": "N",
      "WindowCenterWidthExplanation": "Algo1"
    },
    "slices": {}
  },
  "time": {
    "samples": {
      "AcquisitionNumber": [1, 2, 3, 4, 5, 6, 7, 8, 9, 10, 11, 12, 13, 14, 15, 16, 17, 18, 19, 20, 21, 22, 23, 24, 25, 26, 27, 28, 29, 30, 31, 32, 33, 34, 35, 36, 37, 38, 39, 40, 41, 42, 43, 44, 45, 46, 47, 48, 49, 50, 51, 52, 53, 54, 55, 56, 57, 58, 59, 60, 61, 62, 63, 64, 65, 66, 67, 68, 69, 70, 71, 72, 73, 74, 75, 76, 77, 78, 79, 80, 81, 82, 83, 84, 85, 86, 87, 88, 89, 90, 91, 92, 93, 94, 95, 96, 97, 98, 99, 100, 101, 102, 103, 104, 105, 106, 107, 108, 109, 110, 111, 112, 113, 114, 115, 116, 117, 118, 119, 120, 121, 122, 123, 124, 125, 126, 127, 128, 129, 130, 131, 132, 133, 134, 135, 136, 137, 138, 139, 140, 141, 142, 143, 144, 145, 146, 147, 148, 149, 150, 151, 152, 153, 154, 155, 156, 157, 158, 159, 160, 161, 162, 163, 164, 165, 166, 167, 168, 169, 170, 171, 172, 173, 174, 175, 176, 177, 178, 179, 180, 181, 182, 183, 184, 185, 186, 187, 188, 189, 190, 191, 192, 193, 194, 195, 196, 197, 198, 199, 200],
      "AcquisitionTime": ["090433.432500", "090435.432500", "090437.432500", "090439.432500", "090441.432500", "090443.432500", "090445.432500", "090447.432500", "090449.432500", "090451.432500", "090453.432500", "090455.432500", "090457.432500", "090459.432500", "090501.432500", "090503.432500", "090505.432500", "090507.432500", "090509.432500", "090511.432500", "090513.432500", "090515.432500", "090517.432500", "090519.432500", "090521.432500", "090523.432500", "090525.432500", "090527.432500", "090529.432500", "090531.432500", "090533.432500", "090535.432500", "090537.432500", "090539.432500", "090541.432500", "090543.432500", "090545.432500", "090547.432500", "090549.432500", "090551.432500", "090553.432500", "090555.432500", "090557.432500", "090559.432500", "090601.432500", "090603.432500", "090605.432500", "090607.432500", "090609.432500", "090611.432500", "090613.432500", "090615.432500", "090617.432500", "090619.432500", "090621.432500", "090623.432500", "090625.432500", "090627.432500", "090629.432500", "090631.432500", "090633.432500", "090635.432500", "090637.432500", "090639.432500", "090641.432500", "090643.432500", "090645.432500", "090647.432500", "090649.432500", "090651.432500", "090653.432500", "090655.432500", "090657.432500", "090659.432500", "090701.432500", "090703.432500", "090705.432500", "090707.432500", "090709.432500", "090711.432500", "090713.432500", "090715.432500", "090717.432500", "090719.432500", "090721.432500", "090723.432500", "090725.432500", "090727.432500", "090729.432500", "090731.432500", "090733.432500", "090735.432500", "090737.432500", "090739.432500", "090741.432500", "090743.432500", "090745.432500", "090747.432500", "090749.432500", "090751.432500", "090753.432500", "090755.432500", "090757.432500", "090759.432500", "090801.432500", "090803.432500", "090805.432500", "090807.432500", "090809.432500", "090811.432500", "090813.432500", "090815.432500", "090817.432500", "090819.432500", "090821.432500", "090823.432500", "090825.432500", "090827.432500", "090829.432500", "090831.432500", "090833.432500", "090835.432500", "090837.432500", "090839.432500", "090841.432500", "090843.432500", "090845.432500", "090847.432500", "090849.432500", "090851.432500", "090853.432500", "090855.432500", "090857.432500", "090859.432500", "090901.432500", "090903.432500", "090905.432500", "090907.432500", "090909.432500", "090911.432500", "090913.432500", "090915.432500", "090917.432500", "090919.432500", "090921.432500", "090923.432500", "090925.432500", "090927.432500", "090929.432500", "090931.432500", "090933.432500", "090935.432500", "090937.432500", "090939.432500", "090941.432500", "090943.432500", "090945.432500", "090947.432500", "090949.432500", "090951.432500", "090953.432500", "090955.432500", "090957.432500", "090959.432500", "091001.432500", "091003.432500", "091005.432500", "091007.432500", "091009.432500", "091011.432500", "091013.432500", "091015.432500", "091017.432500", "091019.432500", "091021.432500", "091023.432500", "091025.432500", "091027.432500", "091029.432500", "091031.432500", "091033.432500", "091035.432500", "091037.432500", "091039.432500", "091041.432500", "091043.432500", "091045.432500", "091047.432500", "091049.432500", "091051.432500", "091053.432500", "091055.432500", "091057.432500", "091059.432500", "091101.432500", "091103.432500", "091105.432500", "091107.432500", "091109.432500", "091111.432500"],
      "ContentTime": ["090520.827000", "090520.830000", "090520.833000", "090520.835000", "090520.846000", "090520.848000", "090520.851000", "090520.853000", "090520.855000", "090520.857000", "090520.860000", "090520.862000", "090520.864000", "090520.867000", "090520.869000", "090520.871000", "090520.874000", "090520.879000", "090520.881000", "090520.884000", "090520.886000", "090520.888000", "090520.891000", "090600.821000", "090600.824000", "090600.826000", "090600.828000", "090600.831000", "090600.833000", "090600.835000", "090600.838000", "090600.840000", "090600.842000", "090600.845000", "090600.847000", "090600.849000", "090600.851000", "090600.854000", "090600.856000", "090600.858000", "090600.861000", "090600.863000", "090600.865000", "090640.821000", "090640.824000", "090640.826000", "090640.835000", "090640.838000", "090640.840000", "090640.842000", "090640.845000", "090640.847000", "090640.849000", "090640.851000", "090640.854000", "090640.856000", "090640.858000", "090640.860000", "090640.863000", "090640.865000", "090640.867000", "090640.870000", "090640.872000", "090720.821000", "090720.824000", "090720.826000", "090720.828000", "090720.831000", "090720.833000", "090720.835000", "090720.838000", "090720.840000", "090720.842000", "090720.844000", "090720.847000", "090720.849000", "090720.851000", "090720.854000", "090720.856000", "090720.858000", "090720.861000", "090720.863000", "090720.865000", "090800.821000", "090800.842000", "090800.844000", "090800.846000", "090800.860000", "090800.862000", "090800.865000", "090800.867000", "090800.869000", "090800.871000", "090800.874000", "090800.876000", "090800.878000", "090800.881000", "090800.883000", "090800.885000", "090800.887000", "090800.890000", "090800.892000", "090800.894000", "090840.821000", "090840.824000", "090840.826000", "090840.829000", "090840.831000", "090840.833000", "090840.836000", "090840.838000", "090840.840000", "090840.842000", "090840.845000", "090840.847000", "090840.849000", "090840.852000", "090840.854000", "090840.856000", "090840.858000", "090840.861000", "090840.863000", "090840.865000", "090920.821000", "090920.824000", "090920.826000", "090920.828000", "090920.831000", "090920.833000", "090920.835000", "090920.838000", "090920.840000", "090920.842000", "090920.844000", "090920.847000", "090920.849000", "090920.851000", "090920.854000", "090920.856000", "090920.858000", "090920.860000", "090920.863000", "090920.865000", "091000.822000", "091000.825000", "091000.827000", "091000.830000", "091000.832000", "091000.868000", "091000.871000", "091000.873000", "091000.875000", "091000.878000", "091000.880000", "091000.882000", "091000.884000", "091000.887000", "091000.889000", "091000.891000", "091000.894000", "091000.896000", "091000.898000", "091000.900000", "091040.822000", "091040.827000", "091040.829000", "091040.831000", "091040.833000", "091040.836000", "091040.838000", "091040.840000", "091040.843000", "091040.845000", "091040.847000", "091040.850000", "091040.852000", "091040.854000", "091040.857000", "091040.859000", "091040.861000", "091040.863000", "091040.866000", "091040.868000", "091113.321000", "091113.324000", "091113.326000", "091113.328000", "091113.331000", "091113.333000", "091113.335000", "091113.338000", "091113.340000", "091113.343000", "091113.345000", "091113.347000", "091113.350000", "091113.354000", "091113.357000", "091113.359000", "091113.361000"],
      "InstanceCreationTime": ["090520.827000", "090520.830000", "090520.833000", "090520.835000", "090520.846000", "090520.848000", "090520.851000", "090520.853000", "090520.855000", "090520.857000", "090520.860000", "090520.862000", "090520.864000", "090520.867000", "090520.869000", "090520.871000", "090520.874000", "090520.879000", "090520.881000", "090520.884000", "090520.886000", "090520.888000", "090520.891000", "090600.821000", "090600.824000", "090600.826000", "090600.828000", "090600.831000", "090600.833000", "090600.835000", "090600.838000", "090600.840000", "090600.842000", "090600.845000", "090600.847000", "090600.849000", "090600.851000", "090600.854000", "090600.856000", "090600.858000", "090600.861000", "090600.863000", "090600.865000", "090640.821000", "090640.824000", "090640.826000", "090640.835000", "090640.838000", "090640.840000", "090640.842000", "090640.845000", "090640.847000", "090640.849000", "090640.851000", "090640.854000", "090640.856000", "090640.858000", "090640.860000", "090640.863000", "090640.865000", "090640.867000", "090640.870000", "090640.872000", "090720.821000", "090720.824000", "090720.826000", "090720.828000", "090720.831000", "090720.833000", "090720.835000", "090720.838000", "090720.840000", "090720.842000", "090720.844000", "090720.847000", "090720.849000", "090720.851000", "090720.854000", "090720.856000", "090720.858000", "090720.861000", "090720.863000", "090720.865000", "090800.821000", "090800.842000", "090800.844000", "090800.846000", "090800.860000", "090800.862000", "090800.865000", "090800.867000", "090800.869000", "090800.871000", "090800.874000", "090800.876000", "090800.878000", "090800.881000", "090800.883000", "090800.885000", "090800.887000", "090800.890000", "090800.892000", "090800.894000", "090840.821000", "090840.824000", "090840.826000", "090840.829000", "090840.831000", "090840.833000", "090840.836000", "090840.838000", "090840.840000", "090840.842000", "090840.845000", "090840.847000", "090840.849000", "090840.852000", "090840.854000", "090840.856000", "090840.858000", "090840.861000", "090840.863000", "090840.865000", "090920.821000", "090920.824000", "090920.826000", "090920.828000", "090920.831000", "090920.833000", "090920.835000", "090920.838000", "090920.840000", "090920.842000", "090920.844000", "090920.847000", "090920.849000", "090920.851000", "090920.854000", "090920.856000", "090920.858000", "090920.860000", "090920.863000", "090920.865000", "091000.822000", "091000.825000", "091000.827000", "091000.830000", "091000.832000", "091000.868000", "091000.871000", "091000.873000", "091000.875000", "091000.878000", "091000.880000", "091000.882000", "091000.884000", "091000.887000", "091000.889000", "091000.891000", "091000.894000", "091000.896000", "091000.898000", "091000.900000", "091040.822000", "091040.827000", "091040.829000", "091040.831000", "091040.833000", "091040.836000", "091040.838000", "091040.840000", "091040.843000", "091040.845000", "091040.847000", "091040.850000", "091040.852000", "091040.854000", "091040.857000", "091040.859000", "091040.861000", "091040.863000", "091040.866000", "091040.868000", "091113.321000", "091113.324000", "091113.326000", "091113.328000", "091113.331000", "091113.333000", "091113.335000", "091113.338000", "091113.340000", "091113.343000", "091113.345000", "091113.347000", "091113.350000", "091113.354000", "091113.357000", "091113.359000", "091113.361000"],
      "InstanceNumber": [1, 2, 3, 4, 5, 6, 7, 8, 9, 10, 11, 12, 13, 14, 15, 16, 17, 18, 19, 20, 21, 22, 23, 24, 25, 26, 27, 28, 29, 30, 31, 32, 33, 34, 35, 36, 37, 38, 39, 40, 41, 42, 43, 44, 45, 46, 47, 48, 49, 50, 51, 52, 53, 54, 55, 56, 57, 58, 59, 60, 61, 62, 63, 64, 65, 66, 67, 68, 69, 70, 71, 72, 73, 74, 75, 76, 77, 78, 79, 80, 81, 82, 83, 84, 85, 86, 87, 88, 89, 90, 91, 92, 93, 94, 95, 96, 97, 98, 99, 100, 101, 102, 103, 104, 105, 106, 107, 108, 109, 110, 111, 112, 113, 114, 115, 116, 117, 118, 119, 120, 121, 122, 123, 124, 125, 126, 127, 128, 129, 130, 131, 132, 133, 134, 135, 136, 137, 138, 139, 140, 141, 142, 143, 144, 145, 146, 147, 148, 149, 150, 151, 152, 153, 154, 155, 156, 157, 158, 159, 160, 161, 162, 163, 164, 165, 166, 167, 168, 169, 170, 171, 172, 173, 174, 175, 176, 177, 178, 179, 180, 181, 182, 183, 184, 185, 186, 187, 188, 189, 190, 191, 192, 193, 194, 195, 196, 197, 198, 199, 200],
      "WindowCenter": [1450.0, 1450.0, 1450.0, 1451.0, 1451.0, 1450.0, 1450.0, 1450.0, 1450.0, 1450.0, 1450.0, 1450.0, 1450.0, 1450.0, 1450.0, 1449.0, 1449.0, 1449.0, 1449.0, 1449.0, 1450.0, 1449.0, 1449.0, 1449.0, 1449.0, 1448.0, 1449.0, 1449.0, 1449.0, 1449.0, 1448.0, 1449.0, 1449.0, 1448.0, 1448.0, 1448.0, 1449.0, 1448.0, 1448.0, 1449.0, 1448.0, 1448.0, 1448.0, 1448.0, 1447.0, 1447.0, 1447.0, 1448.0, 1448.0, 1448.0, 1447.0, 1447.0, 1447.0, 1447.0, 1447.0, 1447.0, 1447.0, 1447.0, 1447.0, 1447.0, 1447.0, 1447.0, 1447.0, 1447.0, 1447.0, 1447.0, 1447.0, 1446.0, 1447.0, 1447.0, 1447.0, 1446.0, 1447.0, 1446.0, 1446.0, 1447.0, 1447.0, 1447.0, 1446.0, 1446.0, 1446.0, 1446.0, 1446.0, 1446.0, 1446.0, 1446.0, 1446.0, 1446.0, 1445.0, 1446.0, 1445.0, 1445.0, 1445.0, 1445.0, 1445.0, 1445.0, 1445.0, 1446.0, 1446.0, 1445.0, 1445.0, 1446.0, 1445.0, 1446.0, 1446.0, 1445.0, 1445.0, 1445.0, 1445.0, 1445.0, 1445.0, 1445.0, 1445.0, 1444.0, 1445.0, 1444.0, 1444.0, 1444.0, 1445.0, 1445.0, 1445.0, 1445.0, 1445.0, 1445.0, 1444.0, 1444.0, 1444.0, 1445.0, 1444.0, 1444.0, 1444.0, 1444.0, 1445.0, 1444.0, 1444.0, 1444.0, 1444.0, 1443.0, 1444.0, 1444.0, 1444.0, 1444.0, 1444.0, 1444.0, 1444.0, 1445.0, 1443.0, 1444.0, 1444.0, 1443.0, 1443.0, 1444.0, 1444.0, 1444.0, 1443.0, 1443.0, 1443.0, 1443.0, 1444.0, 1444.0, 1443.0, 1443.0, 1444.0, 1443.0, 1443.0, 1443.0, 1444.0, 1443.0, 1443.0, 1443.0, 1443.0, 1442.0, 1443.0, 1443.0, 1443.0, 1443.0, 1442.0, 1443.0, 1442.0, 1442.0, 1442.0, 1443.0, 1442.0, 1442.0, 1442.0, 1442.0, 1442.0, 1443.0, 1442.0, 1443.0, 1442.0, 1442.0, 1442.0, 1442.0, 1442.0, 1441.0, 1442.0, 1442.0, 1442.0, 1442.0],
      "WindowWidth": [3402.0, 3402.0, 3402.0, 3402.0, 3402.0, 3402.0, 3402.0, 3402.0, 3402.0, 3402.0, 3402.0, 3401.0, 3401.0, 3401.0, 3401.0, 3401.0, 3401.0, 3401.0, 3401.0, 3401.0, 3401.0, 3401.0, 3401.0, 3401.0, 3401.0, 3401.0, 3401.0, 3401.0, 3401.0, 3401.0, 3401.0, 3401.0, 3401.0, 3400.0, 3400.0, 3400.0, 3400.0, 3400.0, 3400.0, 3400.0, 3400.0, 3400.0, 3400.0, 3400.0, 3400.0, 3400.0, 3400.0, 3400.0, 3400.0, 3400.0, 3400.0, 3400.0, 3400.0, 3400.0, 3400.0, 3400.0, 3399.0, 3400.0, 3399.0, 3399.0, 3399.0, 3399.0, 3399.0, 3399.0, 3399.0, 3399.0, 3399.0, 3399.0, 3399.0, 3399.0, 3399.0, 3399.0, 3399.0, 3399.0, 3399.0, 3399.0, 3399.0, 3399.0, 3399.0, 3399.0, 3399.0, 3399.0, 3399.0, 3399.0, 3399.0, 3399.0, 3399.0, 3399.0, 3398.0, 3398.0, 3398.0, 3398.0, 3398.0, 3398.0, 3399.0, 3398.0, 3398.0, 3398.0, 3398.0, 3398.0, 3398.0, 3398.0, 3398.0, 3398.0, 3398.0, 3398.0, 3398.0, 3398.0, 3398.0, 3398.0, 3398.0, 3398.0, 3398.0, 3397.0, 3398.0, 3397.0, 3397.0, 3397.0, 3397.0, 3397.0, 3397.0, 3397.0, 3397.0, 3397.0, 3397.0, 3397.0, 3397.0, 3396.0, 3397.0, 3397.0, 3397.0, 3397.0, 3396.0, 3397.0, 3396.0, 3397.0, 3396.0, 3397.0, 3396.0, 3396.0, 3396.0, 3396.0, 3396.0, 3396.0, 3396.0, 3396.0, 3396.0, 3396.0, 3396.0, 3396.0, 3396.0, 3396.0, 3396.0, 3396.0, 3396.0, 3396.0, 3396.0, 3396.0, 3396.0, 3395.0, 3396.0, 3396.0, 3395.0, 3396.0, 3396.0, 3396.0, 3395.0, 3395.0, 3395.0, 3395.0, 3395.0, 3396.0, 3395.0, 3395.0, 3395.0, 3395.0, 3395.0, 3395.0, 3395.0, 3396.0, 3395.0, 3395.0, 3395.0, 3395.0, 3395.0, 3395.0, 3395.0, 3395.0, 3395.0, 3394.0, 3395.0, 3395.0, 3394.0, 3394.0, 3395.0, 3395.0, 3394.0, 3394.0, 3394.0, 3394.0]
    },
    "slices": {}
  }
}