{
  "AcquisitionMatrixPE": 80,
  "AcquisitionNumber": 1,
  "AcquisitionTime": "09:49:29.847500",
  "BandwidthPerPixelPhaseEncode": 48.077,
  "BaseResolution": 80,
  "BodyPartExamined": "BRAIN",
  "CoilCombinationMethod": "Sum of Squares",
  "ConsistencyInfo": "N4_VE11C_LATEST_20160120",
  "ConversionSoftware": "dcm2niix",
  "ConversionSoftwareVersion": "v1.0.20220720",
  "DerivedVendorReportedEchoSpacing": 0.000519999,
  "DeviceSerialNumber": "66112",
  "DwellTime": 2.7e-06,
  "EchoTime": 0.035,
  "EchoTrainLength": 39,
  "EffectiveEchoSpacing": 0.00026,
  "FlipAngle": 90,
  "HeudiconvVersion": "0.13.1",
  "ImageOrientationPatientDICOM": [0.989469, -0.144676, 0.00447731, 0.13642, 0.942455, 0.305236],
  "ImageOrientationText": "Tra>Cor(17.6)>Sag(2.8)",
  "ImageType": [
    "ORIGINAL",
    "PRIMARY",
    "M",
    "ND",
    "NORM",
    "MOSAIC"
],
  "ImagingFrequency": 123.252,
  "InPlanePhaseEncodingDirectionDICOM": "COL",
  "InstitutionAddress": "Maynard 3,Hanover,NH,US,03755",
  "InstitutionName": "Dartmouth College - PBS",
  "InstitutionalDepartmentName": "Department",
  "MRAcquisitionType": "2D",
  "MagneticFieldStrength": 3,
  "Manufacturer": "Siemens",
  "ManufacturersModelName": "Prisma",
  "MatrixCoilMode": "GRAPPA",
  "Modality": "MR",
  "NonlinearGradientCorrection": false,
  "ParallelReductionFactorInPlane": 2,
  "PartialFourier": 1,
  "PatientPosition": "HFS",
  "PercentPhaseFOV": 100,
  "PercentSampling": 100,
  "PhaseEncodingDirection": "j-",
  "PhaseEncodingSteps": 79,
  "PhaseResolution": 1,
  "PixelBandwidth": 2315,
  "ProcedureStepDescription": "dbic^QA",
  "ProtocolName": "func-bold_task-rest_acq-p2",
  "PulseSequenceDetails": "%SiemensSeq%\\ep2d_bold",
  "ReceiveCoilActiveElements": "HEA;HEP",
  "ReceiveCoilName": "Head_32",
  "ReconMatrixPE": 80,
  "RefLinesPE": 24,
  "RepetitionTime": 2,
  "SAR": 0.0558478,
  "ScanOptions": "FS",
  "ScanningSequence": "EP",
  "SequenceName": "*epfid2d1_80",
  "SequenceVariant": "SK",
  "SeriesDescription": "func-bold_task-rest_acq-p2",
  "SeriesNumber": 5,
  "ShimSetting": [4149, -7707, -7522, 302, -109, -138, 15, 90],
  "SliceThickness": 3.5,
  "SliceTiming": [0.99, 0, 1.055, 0.065, 1.1225, 0.1325, 1.1875, 0.1975, 1.2525, 0.2625, 1.32, 0.33, 1.385, 0.395, 1.45, 0.4625, 1.5175, 0.5275, 1.5825, 0.5925, 1.65, 0.66, 1.715, 0.725, 1.78, 0.7925, 1.8475, 0.8575, 1.9125, 0.9225],
  "SoftwareVersions": "syngo MR E11",
  "SpacingBetweenSlices": 3.99,
  "StationName": "AWP66112",
  "TaskName": "rest",
  "TotalReadoutTime": 0.02054,
  "TxRefAmp": 227.432,
  "dcmmeta_affine": [
    [-2.968406915664673, 0.409260630607605, 0.1930355429649353, 98.60759735107422],
    [0.4340268671512604, 2.8273637294769287, 1.2026281356811523, -138.26870727539062],
    [0.013431918807327747, -0.9157074093818665, 3.7995424270629883, -17.02617645263672],
    [0.0, 0.0, 0.0, 1.0]
],
  "dcmmeta_reorient_transform": [
    [0.0, -1.0, 0.0, 79.0],
    [1.0, 0.0, 0.0, 0.0],
    [0.0, 0.0, 1.0, 0.0],
    [0.0, 0.0, 0.0, 1.0]
],
  "dcmmeta_shape": [80, 80, 30, 200],
  "dcmmeta_slice_dim": 2,
  "dcmmeta_version": 0.6,
  "global": {
    "const": {
      "AccessionNumber": "qa",
      "AcquisitionMatrix": [80, 0, 0, 80],
      "AngioFlag": "N",
      "BitsAllocated": 16,
      "BitsStored": 12,
      "BodyPartExamined": "BRAIN",
      "Columns": 480,
      "EchoNumbers": 1,
      "EchoTime": 35.0,
      "EchoTrainLength": 39,
      "FlipAngle": 90.0,
      "HighBit": 11,
      "ImageOrientationPatient": [0.98946900813434, -0.1446756222378, 0.00447730630595, 0.13642020836165, 0.94245457760644, 0.30523580376364],
      "ImagePositionPatient": [-806.47271535404, -563.76040787824, -275.19492774498],
      "ImageType": [
        "ORIGINAL",
        "PRIMARY",
        "M",
        "ND",
        "NORM",
        "MOSAIC"
],
      "ImagedNucleus": "1H",
      "ImagingFrequency": 123.252436,
      "InPlanePhaseEncodingDirection": "COL",
      "MRAcquisitionType": "2D",
      "MagneticFieldStrength": 3.0,
      "Manufacturer": "SIEMENS",
      "ManufacturerModelName": "Prisma",
      "Modality": "MR",
      "NumberOfAverages": 1.0,
      "NumberOfPhaseEncodingSteps": 79,
      "PercentPhaseFieldOfView": 100.0,
      "PercentSampling": 100.0,
      "PerformedProcedureStepStartTime": "094426.401000",
      "PhotometricInterpretation": "MONOCHROME2",
      "PixelBandwidth": 2315.0,
      "PixelRepresentation": 0,
      "PixelSpacing": [3.0, 3.0],
      "ProtocolName": "func-bold_task-rest_acq-p2",
      "RepetitionTime": 2000.0,
      "Rows": 480,
      "SAR": 0.05584780431124,
      "SamplesPerPixel": 1,
      "ScanOptions": "FS",
      "ScanningSequence": "EP",
      "SequenceName": "*epfid2d1_80",
      "SequenceVariant": "SK",
      "SeriesDescription": "func-bold_task-rest_acq-p2",
      "SeriesNumber": 5,
      "SeriesTime": "095026.578000",
      "SliceLocation": -53.11848205922,
      "SliceThickness": 3.5,
      "SmallestImagePixelValue": 0,
      "SoftwareVersions": "syngo MR E11",
      "SpacingBetweenSlices": 3.9899999541182,
      "SpecificCharacterSet": "ISO_IR 100",
      "StudyID": "66",
      "StudyTime": "094426.359000",
      "TransmitCoilName": "Body",
      "VariableFlipAngleFlag": "N",
      "WindowCenterWidthExplanation": "Algo1",
      "dBdt": 0.0},
    "slices": {}
  },
  "time": {
    "samples": {
      "AcquisitionNumber": [1, 2, 3, 4, 5, 6, 7, 8, 9, 10, 11, 12, 13, 14, 15, 16, 17, 18, 19, 20, 21, 22, 23, 24, 25, 26, 27, 28, 29, 30, 31, 32, 33, 34, 35, 36, 37, 38, 39, 40, 41, 42, 43, 44, 45, 46, 47, 48, 49, 50, 51, 52, 53, 54, 55, 56, 57, 58, 59, 60, 61, 62, 63, 64, 65, 66, 67, 68, 69, 70, 71, 72, 73, 74, 75, 76, 77, 78, 79, 80, 81, 82, 83, 84, 85, 86, 87, 88, 89, 90, 91, 92, 93, 94, 95, 96, 97, 98, 99, 100, 101, 102, 103, 104, 105, 106, 107, 108, 109, 110, 111, 112, 113, 114, 115, 116, 117, 118, 119, 120, 121, 122, 123, 124, 125, 126, 127, 128, 129, 130, 131, 132, 133, 134, 135, 136, 137, 138, 139, 140, 141, 142, 143, 144, 145, 146, 147, 148, 149, 150, 151, 152, 153, 154, 155, 156, 157, 158, 159, 160, 161, 162, 163, 164, 165, 166, 167, 168, 169, 170, 171, 172, 173, 174, 175, 176, 177, 178, 179, 180, 181, 182, 183, 184, 185, 186, 187, 188, 189, 190, 191, 192, 193, 194, 195, 196, 197, 198, 199, 200],
      "AcquisitionTime": ["094929.847500", "094931.847500", "094933.847500", "094935.847500", "094937.847500", "094939.847500", "094941.847500", "094943.847500", "094945.847500", "094947.847500", "094949.847500", "094951.847500", "094953.847500", "094955.847500", "094957.847500", "094959.847500", "095001.847500", "095003.847500", "095005.847500", "095007.847500", "095009.847500", "095011.847500", "095013.847500", "095015.847500", "095017.847500", "095019.847500", "095021.847500", "095023.847500", "095025.847500", "095027.847500", "095029.847500", "095031.847500", "095033.847500", "095035.847500", "095037.847500", "095039.847500", "095041.847500", "095043.847500", "095045.847500", "095047.847500", "095049.847500", "095051.847500", "095053.847500", "095055.847500", "095057.847500", "095059.847500", "095101.847500", "095103.847500", "095105.847500", "095107.847500", "095109.847500", "095111.847500", "095113.847500", "095115.847500", "095117.847500", "095119.847500", "095121.847500", "095123.847500", "095125.847500", "095127.847500", "095129.847500", "095131.847500", "095133.847500", "095135.847500", "095137.847500", "095139.847500", "095141.847500", "095143.847500", "095145.847500", "095147.847500", "095149.847500", "095151.847500", "095153.847500", "095155.847500", "095157.847500", "095159.847500", "095201.847500", "095203.847500", "095205.847500", "095207.847500", "095209.847500", "095211.847500", "095213.847500", "095215.847500", "095217.847500", "095219.847500", "095221.847500", "095223.847500", "095225.847500", "095227.847500", "095229.847500", "095231.847500", "095233.847500", "095235.847500", "095237.847500", "095239.847500", "095241.847500", "095243.847500", "095245.847500", "095247.847500", "095249.847500", "095251.847500", "095253.847500", "095255.847500", "095257.847500", "095259.847500", "095301.847500", "095303.847500", "095305.847500", "095307.847500", "095309.847500", "095311.847500", "095313.847500", "095315.847500", "095317.847500", "095319.847500", "095321.847500", "095323.847500", "095325.847500", "095327.847500", "095329.847500", "095331.847500", "095333.847500", "095335.847500", "095337.847500", "095339.847500", "095341.847500", "095343.847500", "095345.847500", "095347.847500", "095349.847500", "095351.847500", "095353.847500", "095355.847500", "095357.847500", "095359.847500", "095401.847500", "095403.847500", "095405.847500", "095407.847500", "095409.847500", "095411.847500", "095413.847500", "095415.847500", "095417.847500", "095419.847500", "095421.847500", "095423.847500", "095425.847500", "095427.847500", "095429.847500", "095431.847500", "095433.847500", "095435.847500", "095437.847500", "095439.847500", "095441.847500", "095443.847500", "095445.847500", "095447.847500", "095449.847500", "095451.847500", "095453.847500", "095455.847500", "095457.847500", "095459.847500", "095501.847500", "095503.847500", "095505.847500", "095507.847500", "095509.847500", "095511.847500", "095513.847500", "095515.847500", "095517.847500", "095519.847500", "095521.847500", "095523.847500", "095525.847500", "095527.847500", "095529.847500", "095531.847500", "095533.847500", "095535.847500", "095537.847500", "095539.847500", "095541.847500", "095543.847500", "095545.847500", "095547.847500", "095549.847500", "095551.847500", "095553.847500", "095555.847500", "095557.847500", "095559.847500", "095601.847500", "095603.847500", "095605.847500", "095607.847500"],
      "ContentTime": ["095026.581000", "095026.585000", "095026.587000", "095026.590000", "095026.593000", "095026.595000", "095026.608000", "095026.610000", "095026.613000", "095026.616000", "095026.618000", "095026.621000", "095026.623000", "095026.626000", "095026.628000", "095026.631000", "095026.633000", "095026.636000", "095026.638000", "095026.641000", "095026.643000", "095026.646000", "095026.649000", "095026.651000", "095026.654000", "095026.656000", "095026.659000", "095026.661000", "095106.576000", "095106.579000", "095106.590000", "095106.592000", "095106.595000", "095106.597000", "095106.600000", "095106.611000", "095106.613000", "095106.616000", "095106.619000", "095106.631000", "095106.634000", "095106.636000", "095106.639000", "095106.641000", "095106.644000", "095106.646000", "095106.649000", "095106.651000", "095146.576000", "095146.579000", "095146.582000", "095146.584000", "095146.587000", "095146.589000", "095146.592000", "095146.595000", "095146.597000", "095146.600000", "095146.602000", "095146.605000", "095146.607000", "095146.610000", "095146.613000", "095146.615000", "095146.618000", "095146.620000", "095146.623000", "095146.625000", "095226.578000", "095226.580000", "095226.583000", "095226.586000", "095226.588000", "095226.591000", "095226.593000", "095226.596000", "095226.598000", "095226.601000", "095226.604000", "095226.606000", "095226.609000", "095226.611000", "095226.614000", "095226.616000", "095226.619000", "095226.621000", "095226.624000", "095226.632000", "095306.577000", "095306.579000", "095306.582000", "095306.585000", "095306.587000", "095306.590000", "095306.592000", "095306.595000", "095306.597000", "095306.600000", "095306.602000", "095306.605000", "095306.607000", "095306.610000", "095306.613000", "095306.615000", "095306.618000", "095306.620000", "095306.623000", "095306.625000", "095346.576000", "095346.579000", "095346.582000", "095346.585000", "095346.587000", "095346.590000", "095346.592000", "095346.595000", "095346.597000", "095346.600000", "095346.603000", "095346.605000", "095346.608000", "095346.610000", "095346.613000", "095346.615000", "095346.618000", "095346.620000", "095346.623000", "095346.626000", "095426.577000", "095426.580000", "095426.583000", "095426.586000", "095426.588000", "095426.591000", "095426.593000", "095426.596000", "095426.598000", "095426.601000", "095426.604000", "095426.606000", "095426.609000", "095426.611000", "095426.614000", "095426.616000", "095426.619000", "095426.621000", "095426.624000", "095426.626000", "095506.577000", "095506.579000", "095506.582000", "095506.585000", "095506.587000", "095506.590000", "095506.592000", "095506.595000", "095506.597000", "095506.600000", "095506.602000", "095506.605000", "095506.608000", "095506.610000", "095506.613000", "095506.615000", "095506.618000", "095506.620000", "095506.623000", "095506.625000", "095546.576000", "095546.579000", "095546.582000", "095546.584000", "095546.587000", "095546.590000", "095546.592000", "095546.595000", "095546.597000", "095546.600000", "095546.602000", "095546.605000", "095546.608000", "095546.610000", "095546.613000", "095546.615000", "095546.618000", "095546.620000", "095546.623000", "095546.626000", "095609.371000", "095609.374000", "095609.382000", "095609.384000", "095609.387000", "095609.389000", "095609.405000", "095609.410000", "095609.415000", "095609.418000", "095609.434000", "095609.437000"],
      "InstanceCreationTime": ["095026.581000", "095026.585000", "095026.587000", "095026.590000", "095026.593000", "095026.595000", "095026.608000", "095026.610000", "095026.613000", "095026.616000", "095026.618000", "095026.621000", "095026.623000", "095026.626000", "095026.628000", "095026.631000", "095026.633000", "095026.636000", "095026.638000", "095026.641000", "095026.643000", "095026.646000", "095026.649000", "095026.651000", "095026.654000", "095026.656000", "095026.659000", "095026.661000", "095106.576000", "095106.579000", "095106.590000", "095106.592000", "095106.595000", "095106.597000", "095106.600000", "095106.611000", "095106.613000", "095106.616000", "095106.619000", "095106.631000", "095106.634000", "095106.636000", "095106.639000", "095106.641000", "095106.644000", "095106.646000", "095106.649000", "095106.651000", "095146.576000", "095146.579000", "095146.582000", "095146.584000", "095146.587000", "095146.589000", "095146.592000", "095146.595000", "095146.597000", "095146.600000", "095146.602000", "095146.605000", "095146.607000", "095146.610000", "095146.613000", "095146.615000", "095146.618000", "095146.620000", "095146.623000", "095146.625000", "095226.578000", "095226.580000", "095226.583000", "095226.586000", "095226.588000", "095226.591000", "095226.593000", "095226.596000", "095226.598000", "095226.601000", "095226.604000", "095226.606000", "095226.609000", "095226.611000", "095226.614000", "095226.616000", "095226.619000", "095226.621000", "095226.624000", "095226.632000", "095306.577000", "095306.579000", "095306.582000", "095306.585000", "095306.587000", "095306.590000", "095306.592000", "095306.595000", "095306.597000", "095306.600000", "095306.602000", "095306.605000", "095306.607000", "095306.610000", "095306.613000", "095306.615000", "095306.618000", "095306.620000", "095306.623000", "095306.625000", "095346.576000", "095346.579000", "095346.582000", "095346.585000", "095346.587000", "095346.590000", "095346.592000", "095346.595000", "095346.597000", "095346.600000", "095346.603000", "095346.605000", "095346.608000", "095346.610000", "095346.613000", "095346.615000", "095346.618000", "095346.620000", "095346.623000", "095346.626000", "095426.577000", "095426.580000", "095426.583000", "095426.586000", "095426.588000", "095426.591000", "095426.593000", "095426.596000", "095426.598000", "095426.601000", "095426.604000", "095426.606000", "095426.609000", "095426.611000", "095426.614000", "095426.616000", "095426.619000", "095426.621000", "095426.624000", "095426.626000", "095506.577000", "095506.579000", "095506.582000", "095506.585000", "095506.587000", "095506.590000", "095506.592000", "095506.595000", "095506.597000", "095506.600000", "095506.602000", "095506.605000", "095506.608000", "095506.610000", "095506.613000", "095506.615000", "095506.618000", "095506.620000", "095506.623000", "095506.625000", "095546.576000", "095546.579000", "095546.582000", "095546.584000", "095546.587000", "095546.590000", "095546.592000", "095546.595000", "095546.597000", "095546.600000", "095546.602000", "095546.605000", "095546.608000", "095546.610000", "095546.613000", "095546.615000", "095546.618000", "095546.620000", "095546.623000", "095546.626000", "095609.371000", "095609.374000", "095609.382000", "095609.384000", "095609.387000", "095609.389000", "095609.405000", "095609.410000", "095609.415000", "095609.418000", "095609.434000", "095609.437000"],
      "InstanceNumber": [1, 2, 3, 4, 5, 6, 7, 8, 9, 10, 11, 12, 13, 14, 15, 16, 17, 18, 19, 20, 21, 22, 23, 24, 25, 26, 27, 28, 29, 30, 31, 32, 33, 34, 35, 36, 37, 38, 39, 40, 41, 42, 43, 44, 45, 46, 47, 48, 49, 50, 51, 52, 53, 54, 55, 56, 57, 58, 59, 60, 61, 62, 63, 64, 65, 66, 67, 68, 69, 70, 71, 72, 73, 74, 75, 76, 77, 78, 79, 80, 81, 82, 83, 84, 85, 86, 87, 88, 89, 90, 91, 92, 93, 94, 95, 96, 97, 98, 99, 100, 101, 102, 103, 104, 105, 106, 107, 108, 109, 110, 111, 112, 113, 114, 115, 116, 117, 118, 119, 120, 121, 122, 123, 124, 125, 126, 127, 128, 129, 130, 131, 132, 133, 134, 135, 136, 137, 138, 139, 140, 141, 142, 143, 144, 145, 146, 147, 148, 149, 150, 151, 152, 153, 154, 155, 156, 157, 158, 159, 160, 161, 162, 163, 164, 165, 166, 167, 168, 169, 170, 171, 172, 173, 174, 175, 176, 177, 178, 179, 180, 181, 182, 183, 184, 185, 186, 187, 188, 189, 190, 191, 192, 193, 194, 195, 196, 197, 198, 199, 200],
      "LargestImagePixelValue": [2066, 2074, 2072, 2061, 2065, 2069, 2071, 2069, 2060, 2061, 2061, 2062, 2058, 2066, 2063, 2060, 2065, 2062, 2059, 2062, 2057, 2063, 2052, 2057, 2056, 2057, 2059, 2062, 2058, 2061, 2058, 2059, 2061, 2062, 2057, 2053, 2056, 2064, 2064, 2056, 2062, 2059, 2060, 2068, 2073, 2064, 2063, 2065, 2058, 2069, 2060, 2061, 2066, 2062, 2065, 2061, 2064, 2059, 2070, 2068, 2066, 2060, 2065, 2064, 2073, 2070, 2066, 2061, 2069, 2063, 2057, 2063, 2059, 2065, 2059, 2057, 2059, 2057, 2057, 2054, 2059, 2056, 2065, 2056, 2059, 2060, 2055, 2062, 2057, 2056, 2063, 2061, 2066, 2057, 2067, 2056, 2055, 2059, 2061, 2071, 2060, 2061, 2065, 2063, 2061, 2057, 2071, 2059, 2064, 2063, 2063, 2065, 2062, 2064, 2056, 2064, 2067, 2058, 2062, 2063, 2057, 2065, 2055, 2056, 2057, 2060, 2064, 2070, 2057, 2064, 2053, 2059, 2062, 2063, 2058, 2063, 2064, 2064, 2066, 2060, 2057, 2061, 2063, 2059, 2063, 2060, 2063, 2059, 2062, 2058, 2061, 2058, 2058, 2061, 2059, 2053, 2061, 2067, 2062, 2062, 2069, 2060, 2063, 2071, 2054, 2059, 2067, 2065, 2053, 2068, 2061, 2053, 2057, 2070, 2058, 2057, 2052, 2059, 2058, 2064, 2065, 2066, 2064, 2065, 2056, 2058, 2057, 2062, 2061, 2059, 2051, 2060, 2059, 2058, 2058, 2064, 2058, 2056, 2054, 2071],
      "WindowCenter": [1004.0, 1003.0, 1003.0, 1003.0, 1003.0, 1003.0, 1004.0, 1003.0, 1004.0, 1003.0, 1003.0, 1003.0, 1004.0, 1003.0, 1003.0, 1003.0, 1003.0, 1003.0, 1003.0, 1003.0, 1003.0, 1004.0, 1003.0, 1003.0, 1003.0, 1004.0, 1003.0, 1003.0, 1004.0, 1003.0, 1003.0, 1003.0, 1003.0, 1003.0, 1003.0, 1003.0, 1003.0, 1003.0, 1003.0, 1003.0, 1003.0, 1003.0, 1003.0, 1003.0, 1003.0, 1003.0, 1003.0, 1003.0, 1003.0, 1003.0, 1003.0, 1003.0, 1003.0, 1003.0, 1003.0, 1003.0, 1004.0, 1003.0, 1003.0, 1003.0, 1003.0, 1003.0, 1003.0, 1003.0, 1003.0, 1003.0, 1003.0, 1003.0, 1003.0, 1003.0, 1003.0, 1003.0, 1003.0, 1003.0, 1003.0, 1003.0, 1003.0, 1003.0, 1003.0, 1004.0, 1003.0, 1003.0, 1003.0, 1003.0, 1004.0, 1003.0, 1003.0, 1003.0, 1004.0, 1003.0, 1003.0, 1003.0, 1003.0, 1003.0, 1004.0, 1004.0, 1003.0, 1003.0, 1003.0, 1004.0, 1004.0, 1003.0, 1003.0, 1003.0, 1003.0, 1003.0, 1003.0, 1003.0, 1003.0, 1003.0, 1003.0, 1003.0, 1003.0, 1003.0, 1003.0, 1003.0, 1003.0, 1003.0, 1003.0, 1003.0, 1003.0, 1003.0, 1003.0, 1003.0, 1003.0, 1003.0, 1003.0, 1003.0, 1003.0, 1003.0, 1003.0, 1004.0, 1003.0, 1003.0, 1003.0, 1003.0, 1003.0, 1003.0, 1003.0, 1003.0, 1004.0, 1003.0, 1003.0, 1003.0, 1003.0, 1003.0, 1003.0, 1004.0, 1003.0, 1003.0, 1003.0, 1003.0, 1003.0, 1003.0, 1004.0, 1003.0, 1003.0, 1004.0, 1003.0, 1003.0, 1003.0, 1004.0, 1003.0, 1004.0, 1003.0, 1003.0, 1004.0, 1003.0, 1003.0, 1003.0, 1003.0, 1003.0, 1003.0, 1003.0, 1003.0, 1003.0, 1003.0, 1003.0, 1003.0, 1003.0, 1003.0, 1003.0, 1003.0, 1003.0, 1003.0, 1003.0, 1003.0, 1003.0, 1003.0, 1003.0, 1003.0, 1003.0, 1003.0, 1003.0, 1003.0, 1003.0, 1003.0, 1003.0, 1003.0, 1003.0],
      "WindowWidth": [2213.0, 2213.0, 2213.0, 2213.0, 2213.0, 2213.0, 2213.0, 2213.0, 2212.0, 2212.0, 2213.0, 2213.0, 2212.0, 2212.0, 2212.0, 2213.0, 2212.0, 2212.0, 2213.0, 2212.0, 2212.0, 2213.0, 2213.0, 2212.0, 2212.0, 2212.0, 2212.0, 2212.0, 2213.0, 2212.0, 2212.0, 2212.0, 2212.0, 2212.0, 2213.0, 2212.0, 2212.0, 2212.0, 2212.0, 2212.0, 2212.0, 2212.0, 2212.0, 2212.0, 2212.0, 2212.0, 2212.0, 2212.0, 2212.0, 2212.0, 2212.0, 2212.0, 2212.0, 2212.0, 2212.0, 2212.0, 2212.0, 2212.0, 2212.0, 2212.0, 2212.0, 2212.0, 2212.0, 2212.0, 2212.0, 2211.0, 2212.0, 2212.0, 2212.0, 2212.0, 2212.0, 2212.0, 2212.0, 2212.0, 2212.0, 2212.0, 2211.0, 2212.0, 2212.0, 2212.0, 2212.0, 2211.0, 2211.0, 2211.0, 2212.0, 2212.0, 2212.0, 2211.0, 2212.0, 2212.0, 2211.0, 2211.0, 2211.0, 2212.0, 2212.0, 2212.0, 2212.0, 2211.0, 2212.0, 2212.0, 2212.0, 2211.0, 2211.0, 2212.0, 2212.0, 2211.0, 2212.0, 2211.0, 2211.0, 2211.0, 2211.0, 2212.0, 2211.0, 2212.0, 2212.0, 2211.0, 2211.0, 2211.0, 2212.0, 2211.0, 2212.0, 2211.0, 2211.0, 2211.0, 2211.0, 2211.0, 2212.0, 2211.0, 2212.0, 2212.0, 2211.0, 2212.0, 2211.0, 2211.0, 2211.0, 2211.0, 2211.0, 2211.0, 2211.0, 2211.0, 2212.0, 2211.0, 2211.0, 2211.0, 2211.0, 2211.0, 2211.0, 2212.0, 2211.0, 2211.0, 2211.0, 2211.0, 2211.0, 2211.0, 2211.0, 2211.0, 2211.0, 2211.0, 2211.0, 2211.0, 2211.0, 2211.0, 2211.0, 2212.0, 2211.0, 2211.0, 2212.0, 2211.0, 2211.0, 2211.0, 2211.0, 2211.0, 2211.0, 2211.0, 2211.0, 2211.0, 2211.0, 2211.0, 2211.0, 2211.0, 2211.0, 2211.0, 2211.0, 2211.0, 2211.0, 2211.0, 2211.0, 2211.0, 2211.0, 2211.0, 2211.0, 2211.0, 2211.0, 2211.0, 2211.0, 2211.0, 2211.0, 2210.0, 2211.0, 2211.0]
    },
    "slices": {}
  }
}