{
  "AcquisitionMatrixPE": 80,
  "AcquisitionNumber": 1,
  "AcquisitionTime": "10:10:0.505000",
  "BandwidthPerPixelPhaseEncode": 25,
  "BaseResolution": 80,
  "BodyPartExamined": "BRAIN",
  "CoilCombinationMethod": "Sum of Squares",
  "ConsistencyInfo": "N4_VE11C_LATEST_20160120",
  "ConversionSoftware": "dcm2niix",
  "ConversionSoftwareVersion": "v1.0.20220720",
  "DerivedVendorReportedEchoSpacing": 0.0005,
  "DeviceSerialNumber": "66112",
  "DwellTime": 2.7e-06,
  "EchoTime": 0.03,
  "EchoTrainLength": 80,
  "EffectiveEchoSpacing": 0.0005,
  "FlipAngle": 10,
  "HeudiconvVersion": "0.13.1",
  "ImageOrientationPatientDICOM": [0.989445, -0.14484, 0.00442403, 0.136593, 0.942429, 0.305237],
  "ImageOrientationText": "Tra>Cor(17.6)>Sag(2.8)",
  "ImageType": [
    "ORIGINAL",
    "PRIMARY",
    "M",
    "ND",
    "NORM",
    "MOSAIC"
],
  "ImagingFrequency": 123.252,
  "InPlanePhaseEncodingDirectionDICOM": "COL",
  "InstitutionAddress": "Maynard 3,Hanover,NH,US,03755",
  "InstitutionName": "Dartmouth College - PBS",
  "InstitutionalDepartmentName": "Department",
  "MRAcquisitionType": "2D",
  "MagneticFieldStrength": 3,
  "Manufacturer": "Siemens",
  "ManufacturersModelName": "Prisma",
  "MatrixCoilMode": "SENSE",
  "Modality": "MR",
  "NonlinearGradientCorrection": false,
  "PartialFourier": 1,
  "PatientPosition": "HFS",
  "PercentPhaseFOV": 100,
  "PercentSampling": 100,
  "PhaseEncodingDirection": "j-",
  "PhaseEncodingSteps": 80,
  "PhaseResolution": 1,
  "PixelBandwidth": 2315,
  "ProcedureStepDescription": "dbic^QA",
  "ProtocolName": "func-bold_fa-10",
  "PulseSequenceDetails": "%SiemensSeq%\\ep2d_bold",
  "ReceiveCoilActiveElements": "HEA;HEP",
  "ReceiveCoilName": "Head_32",
  "ReconMatrixPE": 80,
  "RepetitionTime": 2,
  "SAR": 0.0117729,
  "ScanOptions": "FS",
  "ScanningSequence": "EP",
  "SequenceName": "*epfid2d1_80",
  "SequenceVariant": "SK",
  "SeriesDescription": "func-bold_fa-10",
  "SeriesNumber": 10,
  "ShimSetting": [4149, -7706, -7522, 299, -106, -133, 18, 89],
  "SliceThickness": 3.5,
  "SliceTiming": [0.99, 0, 1.0575, 0.0675, 1.1225, 0.1325, 1.19, 0.2, 1.255, 0.265, 1.32, 0.33, 1.3875, 0.3975, 1.4525, 0.4625, 1.52, 0.53, 1.585, 0.595, 1.65, 0.66, 1.7175, 0.7275, 1.7825, 0.7925, 1.85, 0.86, 1.915, 0.925],
  "SoftwareVersions": "syngo MR E11",
  "SpacingBetweenSlices": 3.99,
  "StationName": "AWP66112",
  "TotalReadoutTime": 0.0395,
  "TxRefAmp": 227.432,
  "dcmmeta_affine": [
    [-2.9683356285095215, 0.4097786247730255, 0.19303551316261292, 99.05770874023438],
    [0.43452024459838867, 2.8272879123687744, 1.2026281356811523, -135.10189819335938],
    [0.013272089883685112, -0.9157097339630127, 3.7995424270629883, -15.35684585571289],
    [0.0, 0.0, 0.0, 1.0]
],
  "dcmmeta_reorient_transform": [
    [0.0, -1.0, 0.0, 79.0],
    [1.0, 0.0, 0.0, 0.0],
    [0.0, 0.0, 1.0, 0.0],
    [0.0, 0.0, 0.0, 1.0]
],
  "dcmmeta_shape": [80, 80, 30, 200],
  "dcmmeta_slice_dim": 2,
  "dcmmeta_version": 0.6,
  "global": {
    "const": {
      "AccessionNumber": "qa",
      "AcquisitionMatrix": [80, 0, 0, 80],
      "AngioFlag": "N",
      "BitsAllocated": 16,
      "BitsStored": 12,
      "BodyPartExamined": "BRAIN",
      "Columns": 480,
      "EchoNumbers": 1,
      "EchoTime": 30.0,
      "EchoTrainLength": 80,
      "FlipAngle": 10.0,
      "HighBit": 11,
      "ImageOrientationPatient": [0.9894451871982, -0.1448400824685, 0.00442402993248, 0.13659287620819, 0.9424293153146, 0.30523658333303],
      "ImagePositionPatient": [-807.05305779417, -566.80738329219, -273.49428443447],
      "ImageType": [
        "ORIGINAL",
        "PRIMARY",
        "M",
        "ND",
        "NORM",
        "MOSAIC"
],
      "ImagedNucleus": "1H",
      "ImagingFrequency": 123.25244,
      "InPlanePhaseEncodingDirection": "COL",
      "MRAcquisitionType": "2D",
      "MagneticFieldStrength": 3.0,
      "Manufacturer": "SIEMENS",
      "ManufacturerModelName": "Prisma",
      "Modality": "MR",
      "NumberOfAverages": 1.0,
      "NumberOfPhaseEncodingSteps": 80,
      "PercentPhaseFieldOfView": 100.0,
      "PercentSampling": 100.0,
      "PerformedProcedureStepStartTime": "094426.401000",
      "PhotometricInterpretation": "MONOCHROME2",
      "PixelBandwidth": 2315.0,
      "PixelRepresentation": 0,
      "PixelSpacing": [3.0, 3.0],
      "ProtocolName": "func-bold_fa-10",
      "RepetitionTime": 2000.0,
      "Rows": 480,
      "SAR": 0.01177291419083,
      "SamplesPerPixel": 1,
      "ScanOptions": "FS",
      "ScanningSequence": "EP",
      "SequenceName": "*epfid2d1_80",
      "SequenceVariant": "SK",
      "SeriesDescription": "func-bold_fa-10",
      "SeriesNumber": 10,
      "SeriesTime": "101046.579000",
      "SliceLocation": -50.552554842642,
      "SliceThickness": 3.5,
      "SmallestImagePixelValue": 0,
      "SoftwareVersions": "syngo MR E11",
      "SpacingBetweenSlices": 3.9899999640302,
      "SpecificCharacterSet": "ISO_IR 100",
      "StudyID": "66",
      "StudyTime": "094426.359000",
      "TransmitCoilName": "Body",
      "VariableFlipAngleFlag": "N",
      "WindowCenterWidthExplanation": "Algo1",
      "dBdt": 0.0},
    "slices": {}
  },
  "time": {
    "samples": {
      "AcquisitionNumber": [1, 2, 3, 4, 5, 6, 7, 8, 9, 10, 11, 12, 13, 14, 15, 16, 17, 18, 19, 20, 21, 22, 23, 24, 25, 26, 27, 28, 29, 30, 31, 32, 33, 34, 35, 36, 37, 38, 39, 40, 41, 42, 43, 44, 45, 46, 47, 48, 49, 50, 51, 52, 53, 54, 55, 56, 57, 58, 59, 60, 61, 62, 63, 64, 65, 66, 67, 68, 69, 70, 71, 72, 73, 74, 75, 76, 77, 78, 79, 80, 81, 82, 83, 84, 85, 86, 87, 88, 89, 90, 91, 92, 93, 94, 95, 96, 97, 98, 99, 100, 101, 102, 103, 104, 105, 106, 107, 108, 109, 110, 111, 112, 113, 114, 115, 116, 117, 118, 119, 120, 121, 122, 123, 124, 125, 126, 127, 128, 129, 130, 131, 132, 133, 134, 135, 136, 137, 138, 139, 140, 141, 142, 143, 144, 145, 146, 147, 148, 149, 150, 151, 152, 153, 154, 155, 156, 157, 158, 159, 160, 161, 162, 163, 164, 165, 166, 167, 168, 169, 170, 171, 172, 173, 174, 175, 176, 177, 178, 179, 180, 181, 182, 183, 184, 185, 186, 187, 188, 189, 190, 191, 192, 193, 194, 195, 196, 197, 198, 199, 200],
      "AcquisitionTime": ["101000.505000", "101002.505000", "101004.505000", "101006.505000", "101008.505000", "101010.505000", "101012.505000", "101014.505000", "101016.505000", "101018.505000", "101020.505000", "101022.505000", "101024.505000", "101026.505000", "101028.505000", "101030.505000", "101032.505000", "101034.505000", "101036.505000", "101038.505000", "101040.505000", "101042.505000", "101044.505000", "101046.505000", "101048.505000", "101050.505000", "101052.505000", "101054.505000", "101056.505000", "101058.505000", "101100.505000", "101102.505000", "101104.505000", "101106.505000", "101108.505000", "101110.505000", "101112.505000", "101114.505000", "101116.505000", "101118.505000", "101120.505000", "101122.505000", "101124.505000", "101126.505000", "101128.505000", "101130.505000", "101132.505000", "101134.505000", "101136.505000", "101138.505000", "101140.505000", "101142.505000", "101144.505000", "101146.505000", "101148.505000", "101150.505000", "101152.505000", "101154.505000", "101156.505000", "101158.505000", "101200.505000", "101202.505000", "101204.505000", "101206.505000", "101208.505000", "101210.505000", "101212.505000", "101214.505000", "101216.505000", "101218.505000", "101220.505000", "101222.505000", "101224.505000", "101226.505000", "101228.505000", "101230.505000", "101232.505000", "101234.505000", "101236.505000", "101238.505000", "101240.505000", "101242.505000", "101244.505000", "101246.505000", "101248.505000", "101250.505000", "101252.505000", "101254.505000", "101256.505000", "101258.505000", "101300.505000", "101302.505000", "101304.505000", "101306.505000", "101308.505000", "101310.505000", "101312.505000", "101314.505000", "101316.505000", "101318.505000", "101320.505000", "101322.505000", "101324.505000", "101326.505000", "101328.505000", "101330.505000", "101332.505000", "101334.505000", "101336.505000", "101338.505000", "101340.505000", "101342.505000", "101344.505000", "101346.505000", "101348.505000", "101350.505000", "101352.505000", "101354.505000", "101356.505000", "101358.505000", "101400.505000", "101402.505000", "101404.505000", "101406.505000", "101408.505000", "101410.505000", "101412.505000", "101414.505000", "101416.505000", "101418.505000", "101420.505000", "101422.505000", "101424.505000", "101426.505000", "101428.505000", "101430.505000", "101432.505000", "101434.505000", "101436.505000", "101438.505000", "101440.505000", "101442.505000", "101444.505000", "101446.505000", "101448.505000", "101450.505000", "101452.505000", "101454.505000", "101456.505000", "101458.505000", "101500.505000", "101502.505000", "101504.505000", "101506.505000", "101508.505000", "101510.505000", "101512.505000", "101514.505000", "101516.505000", "101518.505000", "101520.505000", "101522.505000", "101524.505000", "101526.505000", "101528.505000", "101530.505000", "101532.505000", "101534.505000", "101536.505000", "101538.505000", "101540.505000", "101542.505000", "101544.505000", "101546.505000", "101548.505000", "101550.505000", "101552.505000", "101554.505000", "101556.505000", "101558.505000", "101600.505000", "101602.505000", "101604.505000", "101606.505000", "101608.505000", "101610.505000", "101612.505000", "101614.505000", "101616.505000", "101618.505000", "101620.505000", "101622.505000", "101624.505000", "101626.505000", "101628.505000", "101630.505000", "101632.505000", "101634.505000", "101636.505000", "101638.505000"],
      "ContentTime": ["101046.582000", "101046.585000", "101046.588000", "101046.590000", "101046.593000", "101046.596000", "101046.598000", "101046.601000", "101046.603000", "101046.606000", "101046.613000", "101046.615000", "101046.618000", "101046.620000", "101046.623000", "101046.625000", "101046.628000", "101046.630000", "101046.633000", "101046.635000", "101046.638000", "101046.641000", "101046.649000", "101126.576000", "101126.579000", "101126.582000", "101126.584000", "101126.587000", "101126.589000", "101126.592000", "101126.594000", "101126.597000", "101126.600000", "101126.602000", "101126.604000", "101126.607000", "101126.609000", "101126.612000", "101126.614000", "101126.617000", "101126.619000", "101126.622000", "101126.624000", "101206.576000", "101206.579000", "101206.582000", "101206.584000", "101206.587000", "101206.589000", "101206.592000", "101206.594000", "101206.597000", "101206.599000", "101206.602000", "101206.604000", "101206.607000", "101206.609000", "101206.612000", "101206.614000", "101206.617000", "101206.625000", "101206.627000", "101206.630000", "101226.576000", "101226.579000", "101226.582000", "101226.584000", "101226.587000", "101226.590000", "101226.592000", "101226.594000", "101226.597000", "101226.600000", "101306.577000", "101306.580000", "101306.583000", "101306.585000", "101306.588000", "101306.591000", "101306.593000", "101306.595000", "101306.598000", "101306.601000", "101306.603000", "101306.606000", "101306.608000", "101306.611000", "101306.613000", "101306.616000", "101306.618000", "101306.621000", "101306.623000", "101306.626000", "101346.576000", "101346.579000", "101346.581000", "101346.584000", "101346.587000", "101346.589000", "101346.592000", "101346.594000", "101346.597000", "101346.599000", "101346.602000", "101346.604000", "101346.607000", "101346.609000", "101346.612000", "101346.614000", "101346.617000", "101346.619000", "101346.622000", "101346.624000", "101426.576000", "101426.579000", "101426.582000", "101426.584000", "101426.587000", "101426.589000", "101426.592000", "101426.594000", "101426.597000", "101426.599000", "101426.602000", "101426.604000", "101426.607000", "101426.610000", "101426.612000", "101426.614000", "101426.617000", "101426.619000", "101426.622000", "101426.624000", "101506.577000", "101506.580000", "101506.583000", "101506.585000", "101506.588000", "101506.590000", "101506.593000", "101506.596000", "101506.598000", "101506.601000", "101506.603000", "101506.606000", "101506.608000", "101506.611000", "101506.613000", "101506.616000", "101506.618000", "101506.621000", "101506.623000", "101506.626000", "101546.577000", "101546.580000", "101546.583000", "101546.585000", "101546.588000", "101546.590000", "101546.593000", "101546.595000", "101546.598000", "101546.601000", "101546.603000", "101546.605000", "101546.608000", "101546.611000", "101546.613000", "101546.616000", "101546.618000", "101546.621000", "101546.623000", "101546.626000", "101626.576000", "101626.579000", "101626.582000", "101626.585000", "101626.587000", "101626.590000", "101626.592000", "101626.595000", "101626.597000", "101626.600000", "101626.602000", "101626.605000", "101626.607000", "101626.610000", "101626.612000", "101626.615000", "101626.617000", "101626.620000", "101626.622000", "101626.625000", "101640.246000", "101640.249000", "101640.251000", "101640.261000", "101640.263000", "101640.266000", "101640.268000"],
      "InstanceCreationTime": ["101046.582000", "101046.585000", "101046.588000", "101046.590000", "101046.593000", "101046.596000", "101046.598000", "101046.601000", "101046.603000", "101046.606000", "101046.613000", "101046.615000", "101046.618000", "101046.620000", "101046.623000", "101046.625000", "101046.628000", "101046.630000", "101046.633000", "101046.635000", "101046.638000", "101046.641000", "101046.649000", "101126.576000", "101126.579000", "101126.582000", "101126.584000", "101126.587000", "101126.589000", "101126.592000", "101126.594000", "101126.597000", "101126.600000", "101126.602000", "101126.604000", "101126.607000", "101126.609000", "101126.612000", "101126.614000", "101126.617000", "101126.619000", "101126.622000", "101126.624000", "101206.576000", "101206.579000", "101206.582000", "101206.584000", "101206.587000", "101206.589000", "101206.592000", "101206.594000", "101206.597000", "101206.599000", "101206.602000", "101206.604000", "101206.607000", "101206.609000", "101206.612000", "101206.614000", "101206.617000", "101206.625000", "101206.627000", "101206.630000", "101226.576000", "101226.579000", "101226.582000", "101226.584000", "101226.587000", "101226.590000", "101226.592000", "101226.594000", "101226.597000", "101226.600000", "101306.577000", "101306.580000", "101306.583000", "101306.585000", "101306.588000", "101306.591000", "101306.593000", "101306.595000", "101306.598000", "101306.601000", "101306.603000", "101306.606000", "101306.608000", "101306.611000", "101306.613000", "101306.616000", "101306.618000", "101306.621000", "101306.623000", "101306.626000", "101346.576000", "101346.579000", "101346.581000", "101346.584000", "101346.587000", "101346.589000", "101346.592000", "101346.594000", "101346.597000", "101346.599000", "101346.602000", "101346.604000", "101346.607000", "101346.609000", "101346.612000", "101346.614000", "101346.617000", "101346.619000", "101346.622000", "101346.624000", "101426.576000", "101426.579000", "101426.582000", "101426.584000", "101426.587000", "101426.589000", "101426.592000", "101426.594000", "101426.597000", "101426.599000", "101426.602000", "101426.604000", "101426.607000", "101426.610000", "101426.612000", "101426.614000", "101426.617000", "101426.619000", "101426.622000", "101426.624000", "101506.577000", "101506.580000", "101506.583000", "101506.585000", "101506.588000", "101506.590000", "101506.593000", "101506.596000", "101506.598000", "101506.601000", "101506.603000", "101506.606000", "101506.608000", "101506.611000", "101506.613000", "101506.616000", "101506.618000", "101506.621000", "101506.623000", "101506.626000", "101546.577000", "101546.580000", "101546.583000", "101546.585000", "101546.588000", "101546.590000", "101546.593000", "101546.595000", "101546.598000", "101546.601000", "101546.603000", "101546.605000", "101546.608000", "101546.611000", "101546.613000", "101546.616000", "101546.618000", "101546.621000", "101546.623000", "101546.626000", "101626.576000", "101626.579000", "101626.582000", "101626.585000", "101626.587000", "101626.590000", "101626.592000", "101626.595000", "101626.597000", "101626.600000", "101626.602000", "101626.605000", "101626.607000", "101626.610000", "101626.612000", "101626.615000", "101626.617000", "101626.620000", "101626.622000", "101626.625000", "101640.246000", "101640.249000", "101640.251000", "101640.261000", "101640.263000", "101640.266000", "101640.268000"],
      "InstanceNumber": [1, 2, 3, 4, 5, 6, 7, 8, 9, 10, 11, 12, 13, 14, 15, 16, 17, 18, 19, 20, 21, 22, 23, 24, 25, 26, 27, 28, 29, 30, 31, 32, 33, 34, 35, 36, 37, 38, 39, 40, 41, 42, 43, 44, 45, 46, 47, 48, 49, 50, 51, 52, 53, 54, 55, 56, 57, 58, 59, 60, 61, 62, 63, 64, 65, 66, 67, 68, 69, 70, 71, 72, 73, 74, 75, 76, 77, 78, 79, 80, 81, 82, 83, 84, 85, 86, 87, 88, 89, 90, 91, 92, 93, 94, 95, 96, 97, 98, 99, 100, 101, 102, 103, 104, 105, 106, 107, 108, 109, 110, 111, 112, 113, 114, 115, 116, 117, 118, 119, 120, 121, 122, 123, 124, 125, 126, 127, 128, 129, 130, 131, 132, 133, 134, 135, 136, 137, 138, 139, 140, 141, 142, 143, 144, 145, 146, 147, 148, 149, 150, 151, 152, 153, 154, 155, 156, 157, 158, 159, 160, 161, 162, 163, 164, 165, 166, 167, 168, 169, 170, 171, 172, 173, 174, 175, 176, 177, 178, 179, 180, 181, 182, 183, 184, 185, 186, 187, 188, 189, 190, 191, 192, 193, 194, 195, 196, 197, 198, 199, 200],
      "LargestImagePixelValue": [355, 354, 355, 355, 355, 353, 354, 356, 356, 354, 357, 356, 356, 355, 354, 357, 354, 354, 354, 356, 355, 356, 356, 356, 355, 356, 354, 354, 356, 355, 356, 357, 355, 354, 357, 356, 355, 354, 354, 356, 357, 356, 357, 357, 356, 356, 354, 356, 355, 356, 356, 356, 357, 354, 355, 355, 356, 355, 355, 356, 356, 357, 355, 356, 356, 356, 354, 357, 355, 356, 356, 356, 356, 355, 356, 355, 354, 357, 357, 356, 355, 356, 357, 355, 356, 356, 357, 355, 355, 355, 357, 356, 358, 355, 356, 357, 355, 357, 356, 357, 354, 355, 356, 356, 354, 356, 355, 355, 356, 353, 355, 355, 356, 354, 355, 356, 354, 354, 356, 356, 357, 357, 356, 354, 356, 355, 355, 356, 357, 355, 352, 356, 355, 355, 354, 355, 355, 356, 356, 356, 354, 355, 356, 354, 355, 355, 355, 356, 356, 355, 355, 355, 353, 355, 355, 355, 356, 354, 356, 356, 354, 356, 354, 357, 355, 354, 355, 357, 355, 357, 356, 355, 354, 357, 355, 355, 357, 355, 357, 355, 355, 356, 354, 353, 355, 354, 356, 355, 356, 355, 355, 357, 356, 356, 356, 357, 356, 355, 357, 356],
      "WindowCenter": [288.0, 288.0, 288.0, 288.0, 288.0, 288.0, 288.0, 288.0, 289.0, 288.0, 288.0, 288.0, 288.0, 288.0, 288.0, 288.0, 288.0, 288.0, 288.0, 288.0, 288.0, 288.0, 288.0, 288.0, 288.0, 288.0, 288.0, 288.0, 288.0, 288.0, 288.0, 288.0, 288.0, 288.0, 288.0, 288.0, 288.0, 288.0, 288.0, 288.0, 288.0, 288.0, 288.0, 288.0, 288.0, 288.0, 288.0, 288.0, 288.0, 288.0, 288.0, 288.0, 288.0, 288.0, 288.0, 288.0, 288.0, 288.0, 288.0, 288.0, 288.0, 288.0, 288.0, 288.0, 288.0, 288.0, 288.0, 288.0, 288.0, 288.0, 288.0, 288.0, 288.0, 288.0, 288.0, 288.0, 288.0, 288.0, 288.0, 288.0, 288.0, 288.0, 288.0, 288.0, 288.0, 288.0, 288.0, 288.0, 288.0, 288.0, 288.0, 288.0, 288.0, 288.0, 288.0, 288.0, 288.0, 288.0, 288.0, 288.0, 288.0, 288.0, 288.0, 288.0, 288.0, 288.0, 288.0, 288.0, 288.0, 288.0, 288.0, 288.0, 288.0, 288.0, 288.0, 288.0, 288.0, 288.0, 288.0, 288.0, 288.0, 288.0, 288.0, 288.0, 288.0, 288.0, 288.0, 288.0, 288.0, 288.0, 288.0, 288.0, 288.0, 288.0, 288.0, 288.0, 288.0, 288.0, 288.0, 288.0, 288.0, 288.0, 288.0, 288.0, 288.0, 288.0, 288.0, 288.0, 288.0, 288.0, 288.0, 288.0, 288.0, 288.0, 288.0, 288.0, 288.0, 288.0, 287.0, 288.0, 288.0, 288.0, 288.0, 288.0, 288.0, 288.0, 288.0, 288.0, 288.0, 288.0, 288.0, 288.0, 288.0, 288.0, 287.0, 288.0, 287.0, 288.0, 288.0, 288.0, 288.0, 288.0, 287.0, 287.0, 288.0, 288.0, 287.0, 287.0, 287.0, 288.0, 288.0, 287.0, 288.0, 288.0, 287.0, 288.0, 288.0, 288.0, 288.0, 288.0],
      "WindowWidth": [628.0, 628.0, 627.0, 628.0, 628.0, 628.0, 627.0, 627.0, 628.0, 627.0, 627.0, 628.0, 628.0, 628.0, 628.0, 627.0, 627.0, 628.0, 628.0, 628.0, 628.0, 627.0, 627.0, 627.0, 627.0, 627.0, 628.0, 627.0, 627.0, 628.0, 627.0, 627.0, 627.0, 627.0, 627.0, 627.0, 627.0, 627.0, 627.0, 627.0, 627.0, 627.0, 627.0, 627.0, 627.0, 627.0, 627.0, 627.0, 627.0, 627.0, 627.0, 627.0, 627.0, 627.0, 627.0, 627.0, 627.0, 628.0, 627.0, 627.0, 627.0, 627.0, 627.0, 627.0, 627.0, 627.0, 627.0, 627.0, 627.0, 627.0, 627.0, 627.0, 627.0, 627.0, 627.0, 627.0, 627.0, 627.0, 627.0, 627.0, 627.0, 627.0, 627.0, 627.0, 627.0, 627.0, 627.0, 627.0, 627.0, 627.0, 627.0, 627.0, 627.0, 627.0, 627.0, 627.0, 627.0, 627.0, 627.0, 627.0, 627.0, 627.0, 627.0, 627.0, 627.0, 627.0, 627.0, 627.0, 627.0, 627.0, 627.0, 627.0, 627.0, 627.0, 627.0, 627.0, 627.0, 627.0, 627.0, 627.0, 627.0, 627.0, 627.0, 627.0, 627.0, 627.0, 627.0, 627.0, 627.0, 627.0, 627.0, 627.0, 627.0, 627.0, 627.0, 627.0, 627.0, 627.0, 627.0, 627.0, 627.0, 627.0, 626.0, 627.0, 627.0, 627.0, 627.0, 627.0, 627.0, 627.0, 627.0, 627.0, 627.0, 627.0, 627.0, 627.0, 627.0, 627.0, 626.0, 627.0, 627.0, 627.0, 627.0, 627.0, 627.0, 627.0, 627.0, 627.0, 627.0, 627.0, 626.0, 627.0, 627.0, 627.0, 626.0, 626.0, 626.0, 626.0, 627.0, 627.0, 627.0, 626.0, 626.0, 626.0, 627.0, 627.0, 626.0, 626.0, 626.0, 626.0, 626.0, 626.0, 627.0, 627.0, 626.0, 626.0, 627.0, 627.0, 626.0, 627.0]
    },
    "slices": {}
  }
}