{
  "AcquisitionMatrixPE": 80,
  "AcquisitionNumber": 1,
  "AcquisitionTime": "10:03:14.500000",
  "BandwidthPerPixelPhaseEncode": 25,
  "BaseResolution": 80,
  "BodyPartExamined": "BRAIN",
  "CoilCombinationMethod": "Sum of Squares",
  "ConsistencyInfo": "N4_VE11C_LATEST_20160120",
  "ConversionSoftware": "dcm2niix",
  "ConversionSoftwareVersion": "v1.0.20220720",
  "DerivedVendorReportedEchoSpacing": 0.0005,
  "DeviceSerialNumber": "66112",
  "DwellTime": 2.7e-06,
  "EchoTime": 0.03,
  "EchoTrainLength": 80,
  "EffectiveEchoSpacing": 0.0005,
  "FlipAngle": 77,
  "HeudiconvVersion": "0.13.1",
  "ImageOrientationPatientDICOM": [0.989445, -0.14484, 0.00442403, 0.136593, 0.942429, 0.305237],
  "ImageOrientationText": "Tra>Cor(17.6)>Sag(2.8)",
  "ImageType": [
    "ORIGINAL",
    "PRIMARY",
    "M",
    "ND",
    "NORM",
    "MOSAIC"
],
  "ImagingFrequency": 123.252,
  "InPlanePhaseEncodingDirectionDICOM": "COL",
  "InstitutionAddress": "Maynard 3,Hanover,NH,US,03755",
  "InstitutionName": "Dartmouth College - PBS",
  "InstitutionalDepartmentName": "Department",
  "MRAcquisitionType": "2D",
  "MagneticFieldStrength": 3,
  "Manufacturer": "Siemens",
  "ManufacturersModelName": "Prisma",
  "MatrixCoilMode": "SENSE",
  "Modality": "MR",
  "NonlinearGradientCorrection": false,
  "PartialFourier": 1,
  "PatientPosition": "HFS",
  "PercentPhaseFOV": 100,
  "PercentSampling": 100,
  "PhaseEncodingDirection": "j-",
  "PhaseEncodingSteps": 80,
  "PhaseResolution": 1,
  "PixelBandwidth": 2315,
  "ProcedureStepDescription": "dbic^QA",
  "ProtocolName": "func-bold_fa-77",
  "PulseSequenceDetails": "%SiemensSeq%\\ep2d_bold",
  "ReceiveCoilActiveElements": "HEA;HEP",
  "ReceiveCoilName": "Head_32",
  "ReconMatrixPE": 80,
  "RepetitionTime": 2,
  "SAR": 0.043888,
  "ScanOptions": "FS",
  "ScanningSequence": "EP",
  "SequenceName": "*epfid2d1_80",
  "SequenceVariant": "SK",
  "SeriesDescription": "func-bold_fa-77",
  "SeriesNumber": 8,
  "ShimSetting": [4149, -7706, -7522, 299, -106, -133, 18, 89],
  "SliceThickness": 3.5,
  "SliceTiming": [0.99, 0, 1.055, 0.065, 1.12, 0.13, 1.1875, 0.1975, 1.2525, 0.2625, 1.32, 0.33, 1.385, 0.395, 1.45, 0.46, 1.5175, 0.5275, 1.5825, 0.5925, 1.65, 0.66, 1.715, 0.725, 1.78, 0.79, 1.8475, 0.8575, 1.9125, 0.9225],
  "SoftwareVersions": "syngo MR E11",
  "SpacingBetweenSlices": 3.99,
  "StationName": "AWP66112",
  "TotalReadoutTime": 0.0395,
  "TxRefAmp": 227.432,
  "dcmmeta_affine": [
    [-2.9683356285095215, 0.4097786247730255, 0.19303551316261292, 99.05770874023438],
    [0.43452024459838867, 2.8272879123687744, 1.2026281356811523, -135.10189819335938],
    [0.013272089883685112, -0.9157097339630127, 3.7995424270629883, -15.35684585571289],
    [0.0, 0.0, 0.0, 1.0]
],
  "dcmmeta_reorient_transform": [
    [0.0, -1.0, 0.0, 79.0],
    [1.0, 0.0, 0.0, 0.0],
    [0.0, 0.0, 1.0, 0.0],
    [0.0, 0.0, 0.0, 1.0]
],
  "dcmmeta_shape": [80, 80, 30, 200],
  "dcmmeta_slice_dim": 2,
  "dcmmeta_version": 0.6,
  "global": {
    "const": {
      "AccessionNumber": "qa",
      "AcquisitionMatrix": [80, 0, 0, 80],
      "AngioFlag": "N",
      "BitsAllocated": 16,
      "BitsStored": 12,
      "BodyPartExamined": "BRAIN",
      "Columns": 480,
      "EchoNumbers": 1,
      "EchoTime": 30.0,
      "EchoTrainLength": 80,
      "FlipAngle": 77.0,
      "HighBit": 11,
      "ImageOrientationPatient": [0.9894451871982, -0.1448400824685, 0.00442402993248, 0.13659287620819, 0.9424293153146, 0.30523658333303],
      "ImagePositionPatient": [-807.05305779417, -566.80738329219, -273.49428443447],
      "ImageType": [
        "ORIGINAL",
        "PRIMARY",
        "M",
        "ND",
        "NORM",
        "MOSAIC"
],
      "ImagedNucleus": "1H",
      "ImagingFrequency": 123.252436,
      "InPlanePhaseEncodingDirection": "COL",
      "MRAcquisitionType": "2D",
      "MagneticFieldStrength": 3.0,
      "Manufacturer": "SIEMENS",
      "ManufacturerModelName": "Prisma",
      "Modality": "MR",
      "NumberOfAverages": 1.0,
      "NumberOfPhaseEncodingSteps": 80,
      "PercentPhaseFieldOfView": 100.0,
      "PercentSampling": 100.0,
      "PerformedProcedureStepStartTime": "094426.401000",
      "PhotometricInterpretation": "MONOCHROME2",
      "PixelBandwidth": 2315.0,
      "PixelRepresentation": 0,
      "PixelSpacing": [3.0, 3.0],
      "ProtocolName": "func-bold_fa-77",
      "RepetitionTime": 2000.0,
      "Rows": 480,
      "SAR": 0.04388798686122,
      "SamplesPerPixel": 1,
      "ScanOptions": "FS",
      "ScanningSequence": "EP",
      "SequenceName": "*epfid2d1_80",
      "SequenceVariant": "SK",
      "SeriesDescription": "func-bold_fa-77",
      "SeriesNumber": 8,
      "SeriesTime": "100406.721000",
      "SliceLocation": -50.552554842642,
      "SliceThickness": 3.5,
      "SmallestImagePixelValue": 0,
      "SoftwareVersions": "syngo MR E11",
      "SpacingBetweenSlices": 3.9899999640302,
      "SpecificCharacterSet": "ISO_IR 100",
      "StudyID": "66",
      "StudyTime": "094426.359000",
      "TransmitCoilName": "Body",
      "VariableFlipAngleFlag": "N",
      "WindowCenterWidthExplanation": "Algo1",
      "dBdt": 0.0},
    "slices": {}
  },
  "time": {
    "samples": {
      "AcquisitionNumber": [1, 2, 3, 4, 5, 6, 7, 8, 9, 10, 11, 12, 13, 14, 15, 16, 17, 18, 19, 20, 21, 22, 23, 24, 25, 26, 27, 28, 29, 30, 31, 32, 33, 34, 35, 36, 37, 38, 39, 40, 41, 42, 43, 44, 45, 46, 47, 48, 49, 50, 51, 52, 53, 54, 55, 56, 57, 58, 59, 60, 61, 62, 63, 64, 65, 66, 67, 68, 69, 70, 71, 72, 73, 74, 75, 76, 77, 78, 79, 80, 81, 82, 83, 84, 85, 86, 87, 88, 89, 90, 91, 92, 93, 94, 95, 96, 97, 98, 99, 100, 101, 102, 103, 104, 105, 106, 107, 108, 109, 110, 111, 112, 113, 114, 115, 116, 117, 118, 119, 120, 121, 122, 123, 124, 125, 126, 127, 128, 129, 130, 131, 132, 133, 134, 135, 136, 137, 138, 139, 140, 141, 142, 143, 144, 145, 146, 147, 148, 149, 150, 151, 152, 153, 154, 155, 156, 157, 158, 159, 160, 161, 162, 163, 164, 165, 166, 167, 168, 169, 170, 171, 172, 173, 174, 175, 176, 177, 178, 179, 180, 181, 182, 183, 184, 185, 186, 187, 188, 189, 190, 191, 192, 193, 194, 195, 196, 197, 198, 199, 200],
      "AcquisitionTime": ["100314.500000", "100316.500000", "100318.500000", "100320.500000", "100322.500000", "100324.500000", "100326.500000", "100328.500000", "100330.500000", "100332.500000", "100334.500000", "100336.500000", "100338.500000", "100340.500000", "100342.500000", "100344.500000", "100346.500000", "100348.500000", "100350.500000", "100352.500000", "100354.500000", "100356.500000", "100358.500000", "100400.500000", "100402.500000", "100404.500000", "100406.500000", "100408.500000", "100410.500000", "100412.500000", "100414.500000", "100416.500000", "100418.500000", "100420.500000", "100422.500000", "100424.500000", "100426.500000", "100428.500000", "100430.500000", "100432.500000", "100434.500000", "100436.500000", "100438.500000", "100440.500000", "100442.500000", "100444.500000", "100446.500000", "100448.500000", "100450.500000", "100452.500000", "100454.500000", "100456.500000", "100458.500000", "100500.500000", "100502.500000", "100504.500000", "100506.500000", "100508.500000", "100510.500000", "100512.500000", "100514.500000", "100516.500000", "100518.500000", "100520.500000", "100522.500000", "100524.500000", "100526.500000", "100528.500000", "100530.500000", "100532.500000", "100534.500000", "100536.500000", "100538.500000", "100540.500000", "100542.500000", "100544.500000", "100546.500000", "100548.500000", "100550.500000", "100552.500000", "100554.500000", "100556.500000", "100558.500000", "100600.500000", "100602.500000", "100604.500000", "100606.500000", "100608.500000", "100610.500000", "100612.500000", "100614.500000", "100616.500000", "100618.500000", "100620.500000", "100622.500000", "100624.500000", "100626.500000", "100628.500000", "100630.500000", "100632.500000", "100634.500000", "100636.500000", "100638.500000", "100640.500000", "100642.500000", "100644.500000", "100646.500000", "100648.500000", "100650.500000", "100652.500000", "100654.500000", "100656.500000", "100658.500000", "100700.500000", "100702.500000", "100704.500000", "100706.500000", "100708.500000", "100710.500000", "100712.500000", "100714.500000", "100716.500000", "100718.500000", "100720.500000", "100722.500000", "100724.500000", "100726.500000", "100728.500000", "100730.500000", "100732.500000", "100734.500000", "100736.500000", "100738.500000", "100740.500000", "100742.500000", "100744.500000", "100746.500000", "100748.500000", "100750.500000", "100752.500000", "100754.500000", "100756.500000", "100758.500000", "100800.500000", "100802.500000", "100804.500000", "100806.500000", "100808.500000", "100810.500000", "100812.500000", "100814.500000", "100816.500000", "100818.500000", "100820.500000", "100822.500000", "100824.500000", "100826.500000", "100828.500000", "100830.500000", "100832.500000", "100834.500000", "100836.500000", "100838.500000", "100840.500000", "100842.500000", "100844.500000", "100846.500000", "100848.500000", "100850.500000", "100852.500000", "100854.500000", "100856.500000", "100858.500000", "100900.500000", "100902.500000", "100904.500000", "100906.500000", "100908.500000", "100910.500000", "100912.500000", "100914.500000", "100916.500000", "100918.500000", "100920.500000", "100922.500000", "100924.500000", "100926.500000", "100928.500000", "100930.500000", "100932.500000", "100934.500000", "100936.500000", "100938.500000", "100940.500000", "100942.500000", "100944.500000", "100946.500000", "100948.500000", "100950.500000", "100952.500000"],
      "ContentTime": ["100406.724000", "100406.728000", "100406.730000", "100406.733000", "100406.735000", "100406.738000", "100406.740000", "100406.743000", "100406.745000", "100406.748000", "100406.750000", "100406.753000", "100406.755000", "100406.758000", "100406.760000", "100406.763000", "100406.765000", "100406.768000", "100406.770000", "100406.773000", "100406.775000", "100406.778000", "100406.781000", "100406.783000", "100406.786000", "100406.788000", "100446.718000", "100446.721000", "100446.724000", "100446.726000", "100446.729000", "100446.731000", "100446.734000", "100446.736000", "100446.739000", "100446.741000", "100446.744000", "100446.746000", "100446.749000", "100446.751000", "100446.754000", "100446.756000", "100446.759000", "100446.761000", "100446.764000", "100446.766000", "100526.718000", "100526.721000", "100526.724000", "100526.726000", "100526.729000", "100526.732000", "100526.734000", "100526.736000", "100526.739000", "100526.741000", "100526.744000", "100526.746000", "100526.749000", "100526.752000", "100526.754000", "100526.757000", "100526.759000", "100526.762000", "100526.764000", "100526.767000", "100606.719000", "100606.722000", "100606.725000", "100606.727000", "100606.730000", "100606.732000", "100606.735000", "100606.737000", "100606.740000", "100606.742000", "100606.745000", "100606.747000", "100606.750000", "100606.752000", "100606.755000", "100606.757000", "100606.760000", "100606.762000", "100606.765000", "100606.767000", "100646.718000", "100646.721000", "100646.724000", "100646.726000", "100646.729000", "100646.731000", "100646.734000", "100646.736000", "100646.739000", "100646.741000", "100646.744000", "100646.746000", "100646.749000", "100646.752000", "100646.754000", "100646.756000", "100646.759000", "100646.761000", "100646.764000", "100646.767000", "100726.725000", "100726.728000", "100726.731000", "100726.733000", "100726.736000", "100726.738000", "100726.741000", "100726.743000", "100726.746000", "100726.749000", "100726.751000", "100726.753000", "100726.756000", "100726.759000", "100726.761000", "100726.764000", "100726.766000", "100726.769000", "100726.771000", "100726.774000", "100806.719000", "100806.722000", "100806.725000", "100806.727000", "100806.730000", "100806.733000", "100806.735000", "100806.738000", "100806.740000", "100806.743000", "100806.745000", "100806.748000", "100806.750000", "100806.753000", "100806.755000", "100806.758000", "100806.760000", "100806.763000", "100806.765000", "100806.768000", "100846.719000", "100846.722000", "100846.725000", "100846.727000", "100846.730000", "100846.732000", "100846.735000", "100846.737000", "100846.740000", "100846.742000", "100846.745000", "100846.748000", "100846.750000", "100846.753000", "100846.755000", "100846.758000", "100846.760000", "100846.763000", "100846.765000", "100846.768000", "100926.718000", "100926.721000", "100926.724000", "100926.726000", "100926.729000", "100926.731000", "100926.734000", "100926.737000", "100926.739000", "100926.742000", "100926.744000", "100926.747000", "100926.749000", "100926.752000", "100926.754000", "100926.757000", "100926.759000", "100926.762000", "100926.764000", "100926.767000", "100953.824000", "100953.827000", "100953.829000", "100953.832000", "100953.834000", "100953.837000", "100953.839000", "100953.842000", "100953.844000", "100953.847000", "100953.850000", "100953.852000", "100953.856000", "100953.860000"],
      "InstanceCreationTime": ["100406.724000", "100406.728000", "100406.730000", "100406.733000", "100406.735000", "100406.738000", "100406.740000", "100406.743000", "100406.745000", "100406.748000", "100406.750000", "100406.753000", "100406.755000", "100406.758000", "100406.760000", "100406.763000", "100406.765000", "100406.768000", "100406.770000", "100406.773000", "100406.775000", "100406.778000", "100406.781000", "100406.783000", "100406.786000", "100406.788000", "100446.718000", "100446.721000", "100446.724000", "100446.726000", "100446.729000", "100446.731000", "100446.734000", "100446.736000", "100446.739000", "100446.741000", "100446.744000", "100446.746000", "100446.749000", "100446.751000", "100446.754000", "100446.756000", "100446.759000", "100446.761000", "100446.764000", "100446.766000", "100526.718000", "100526.721000", "100526.724000", "100526.726000", "100526.729000", "100526.732000", "100526.734000", "100526.736000", "100526.739000", "100526.741000", "100526.744000", "100526.746000", "100526.749000", "100526.752000", "100526.754000", "100526.757000", "100526.759000", "100526.762000", "100526.764000", "100526.767000", "100606.719000", "100606.722000", "100606.725000", "100606.727000", "100606.730000", "100606.732000", "100606.735000", "100606.737000", "100606.740000", "100606.742000", "100606.745000", "100606.747000", "100606.750000", "100606.752000", "100606.755000", "100606.757000", "100606.760000", "100606.762000", "100606.765000", "100606.767000", "100646.718000", "100646.721000", "100646.724000", "100646.726000", "100646.729000", "100646.731000", "100646.734000", "100646.736000", "100646.739000", "100646.741000", "100646.744000", "100646.746000", "100646.749000", "100646.752000", "100646.754000", "100646.756000", "100646.759000", "100646.761000", "100646.764000", "100646.767000", "100726.725000", "100726.728000", "100726.731000", "100726.733000", "100726.736000", "100726.738000", "100726.741000", "100726.743000", "100726.746000", "100726.749000", "100726.751000", "100726.753000", "100726.756000", "100726.759000", "100726.761000", "100726.764000", "100726.766000", "100726.769000", "100726.771000", "100726.774000", "100806.719000", "100806.722000", "100806.725000", "100806.727000", "100806.730000", "100806.733000", "100806.735000", "100806.738000", "100806.740000", "100806.743000", "100806.745000", "100806.748000", "100806.750000", "100806.753000", "100806.755000", "100806.758000", "100806.760000", "100806.763000", "100806.765000", "100806.768000", "100846.719000", "100846.722000", "100846.725000", "100846.727000", "100846.730000", "100846.732000", "100846.735000", "100846.737000", "100846.740000", "100846.742000", "100846.745000", "100846.748000", "100846.750000", "100846.753000", "100846.755000", "100846.758000", "100846.760000", "100846.763000", "100846.765000", "100846.768000", "100926.718000", "100926.721000", "100926.724000", "100926.726000", "100926.729000", "100926.731000", "100926.734000", "100926.737000", "100926.739000", "100926.742000", "100926.744000", "100926.747000", "100926.749000", "100926.752000", "100926.754000", "100926.757000", "100926.759000", "100926.762000", "100926.764000", "100926.767000", "100953.824000", "100953.827000", "100953.829000", "100953.832000", "100953.834000", "100953.837000", "100953.839000", "100953.842000", "100953.844000", "100953.847000", "100953.850000", "100953.852000", "100953.856000", "100953.860000"],
      "InstanceNumber": [1, 2, 3, 4, 5, 6, 7, 8, 9, 10, 11, 12, 13, 14, 15, 16, 17, 18, 19, 20, 21, 22, 23, 24, 25, 26, 27, 28, 29, 30, 31, 32, 33, 34, 35, 36, 37, 38, 39, 40, 41, 42, 43, 44, 45, 46, 47, 48, 49, 50, 51, 52, 53, 54, 55, 56, 57, 58, 59, 60, 61, 62, 63, 64, 65, 66, 67, 68, 69, 70, 71, 72, 73, 74, 75, 76, 77, 78, 79, 80, 81, 82, 83, 84, 85, 86, 87, 88, 89, 90, 91, 92, 93, 94, 95, 96, 97, 98, 99, 100, 101, 102, 103, 104, 105, 106, 107, 108, 109, 110, 111, 112, 113, 114, 115, 116, 117, 118, 119, 120, 121, 122, 123, 124, 125, 126, 127, 128, 129, 130, 131, 132, 133, 134, 135, 136, 137, 138, 139, 140, 141, 142, 143, 144, 145, 146, 147, 148, 149, 150, 151, 152, 153, 154, 155, 156, 157, 158, 159, 160, 161, 162, 163, 164, 165, 166, 167, 168, 169, 170, 171, 172, 173, 174, 175, 176, 177, 178, 179, 180, 181, 182, 183, 184, 185, 186, 187, 188, 189, 190, 191, 192, 193, 194, 195, 196, 197, 198, 199, 200],
      "LargestImagePixelValue": [2068, 2066, 2064, 2063, 2065, 2064, 2065, 2064, 2066, 2065, 2064, 2063, 2064, 2066, 2069, 2069, 2067, 2066, 2063, 2063, 2064, 2064, 2064, 2064, 2066, 2066, 2064, 2065, 2067, 2067, 2064, 2065, 2065, 2066, 2065, 2065, 2068, 2065, 2065, 2063, 2066, 2066, 2065, 2062, 2068, 2068, 2067, 2065, 2066, 2068, 2068, 2063, 2065, 2063, 2067, 2070, 2068, 2066, 2065, 2069, 2066, 2064, 2069, 2068, 2067, 2068, 2065, 2065, 2066, 2067, 2065, 2068, 2066, 2067, 2066, 2062, 2063, 2063, 2064, 2062, 2063, 2064, 2065, 2066, 2067, 2067, 2065, 2066, 2067, 2064, 2066, 2065, 2065, 2066, 2065, 2066, 2066, 2064, 2065, 2065, 2066, 2065, 2064, 2063, 2066, 2065, 2065, 2066, 2068, 2065, 2065, 2067, 2066, 2064, 2067, 2067, 2066, 2065, 2067, 2068, 2067, 2066, 2066, 2069, 2068, 2068, 2064, 2063, 2068, 2069, 2067, 2068, 2068, 2067, 2066, 2068, 2067, 2068, 2069, 2069, 2068, 2068, 2066, 2067, 2068, 2068, 2068, 2067, 2069, 2068, 2068, 2068, 2067, 2065, 2069, 2067, 2066, 2065, 2068, 2066, 2066, 2066, 2066, 2066, 2066, 2066, 2066, 2067, 2067, 2067, 2065, 2068, 2066, 2066, 2065, 2063, 2065, 2067, 2066, 2066, 2067, 2068, 2067, 2069, 2068, 2068, 2068, 2066, 2067, 2070, 2066, 2067, 2066, 2066, 2067, 2065, 2067, 2068, 2067, 2064],
      "WindowCenter": [990.0, 992.0, 992.0, 994.0, 992.0, 991.0, 991.0, 992.0, 993.0, 991.0, 992.0, 991.0, 991.0, 992.0, 994.0, 993.0, 991.0, 992.0, 993.0, 990.0, 992.0, 992.0, 993.0, 991.0, 992.0, 992.0, 993.0, 992.0, 992.0, 994.0, 992.0, 991.0, 993.0, 991.0, 993.0, 992.0, 993.0, 993.0, 992.0, 992.0, 993.0, 993.0, 991.0, 993.0, 991.0, 993.0, 992.0, 992.0, 993.0, 991.0, 991.0, 993.0, 992.0, 993.0, 991.0, 990.0, 991.0, 991.0, 991.0, 993.0, 992.0, 992.0, 993.0, 993.0, 991.0, 992.0, 992.0, 992.0, 992.0, 992.0, 992.0, 992.0, 993.0, 991.0, 992.0, 992.0, 992.0, 992.0, 992.0, 990.0, 992.0, 992.0, 992.0, 992.0, 993.0, 991.0, 991.0, 993.0, 992.0, 991.0, 992.0, 991.0, 993.0, 993.0, 992.0, 991.0, 993.0, 992.0, 992.0, 990.0, 992.0, 991.0, 991.0, 991.0, 992.0, 992.0, 991.0, 990.0, 993.0, 991.0, 990.0, 990.0, 992.0, 992.0, 993.0, 993.0, 993.0, 991.0, 991.0, 992.0, 991.0, 990.0, 991.0, 992.0, 991.0, 991.0, 990.0, 991.0, 992.0, 989.0, 993.0, 991.0, 993.0, 991.0, 993.0, 993.0, 993.0, 991.0, 992.0, 991.0, 992.0, 991.0, 991.0, 990.0, 992.0, 992.0, 992.0, 991.0, 991.0, 990.0, 992.0, 992.0, 992.0, 992.0, 991.0, 992.0, 992.0, 991.0, 993.0, 993.0, 991.0, 993.0, 992.0, 992.0, 991.0, 992.0, 993.0, 991.0, 992.0, 991.0, 990.0, 990.0, 993.0, 990.0, 992.0, 991.0, 989.0, 992.0, 991.0, 990.0, 992.0, 992.0, 991.0, 992.0, 992.0, 991.0, 992.0, 991.0, 991.0, 991.0, 991.0, 990.0, 992.0, 992.0, 991.0, 991.0, 991.0, 993.0, 991.0, 991.0],
      "WindowWidth": [2188.0, 2189.0, 2189.0, 2191.0, 2189.0, 2189.0, 2189.0, 2189.0, 2190.0, 2189.0, 2189.0, 2189.0, 2189.0, 2189.0, 2191.0, 2190.0, 2189.0, 2189.0, 2190.0, 2188.0, 2189.0, 2189.0, 2190.0, 2189.0, 2189.0, 2189.0, 2190.0, 2189.0, 2189.0, 2191.0, 2189.0, 2189.0, 2190.0, 2188.0, 2190.0, 2189.0, 2190.0, 2190.0, 2189.0, 2189.0, 2190.0, 2190.0, 2188.0, 2191.0, 2188.0, 2191.0, 2189.0, 2189.0, 2190.0, 2188.0, 2188.0, 2190.0, 2189.0, 2190.0, 2188.0, 2188.0, 2188.0, 2188.0, 2188.0, 2190.0, 2190.0, 2189.0, 2190.0, 2190.0, 2188.0, 2189.0, 2189.0, 2189.0, 2190.0, 2189.0, 2189.0, 2189.0, 2190.0, 2189.0, 2189.0, 2190.0, 2190.0, 2190.0, 2190.0, 2187.0, 2189.0, 2190.0, 2190.0, 2190.0, 2190.0, 2189.0, 2189.0, 2190.0, 2189.0, 2189.0, 2190.0, 2189.0, 2190.0, 2190.0, 2189.0, 2189.0, 2190.0, 2189.0, 2189.0, 2188.0, 2189.0, 2189.0, 2189.0, 2189.0, 2189.0, 2189.0, 2189.0, 2188.0, 2190.0, 2189.0, 2188.0, 2188.0, 2189.0, 2189.0, 2190.0, 2190.0, 2189.0, 2188.0, 2188.0, 2189.0, 2188.0, 2187.0, 2188.0, 2189.0, 2188.0, 2188.0, 2188.0, 2188.0, 2189.0, 2187.0, 2190.0, 2188.0, 2189.0, 2189.0, 2190.0, 2190.0, 2190.0, 2188.0, 2189.0, 2188.0, 2189.0, 2188.0, 2188.0, 2187.0, 2189.0, 2189.0, 2189.0, 2188.0, 2188.0, 2187.0, 2189.0, 2189.0, 2188.0, 2188.0, 2188.0, 2189.0, 2188.0, 2188.0, 2190.0, 2190.0, 2188.0, 2189.0, 2188.0, 2188.0, 2188.0, 2188.0, 2190.0, 2188.0, 2188.0, 2188.0, 2188.0, 2187.0, 2189.0, 2187.0, 2188.0, 2188.0, 2186.0, 2188.0, 2188.0, 2187.0, 2189.0, 2188.0, 2188.0, 2188.0, 2189.0, 2188.0, 2188.0, 2188.0, 2188.0, 2188.0, 2187.0, 2187.0, 2188.0, 2188.0, 2188.0, 2188.0, 2188.0, 2189.0, 2187.0, 2187.0]
    },
    "slices": {}
  }
}