{
  "AcquisitionDateTime": "2016-11-28T10:18:31.773438", 
  "ConversionSoftware": "dcm2niix", 
  "ConversionSoftwareVersion": "v1.0.20170130", 
  "EchoTime": 0.035, 
  "EffectiveEchoSpacing": 0.00026, 
  "FlipAngle": 90, 
  "ImageType": [
    "ORIGINAL", 
    "PRIMARY", 
    "M", 
    "ND", 
    "NORM", 
    "MOCO", 
    "MOSAIC"
], 
  "MagneticFieldStrength": 3, 
  "Manufacturer": "Siemens", 
  "ManufacturersModelName": "Prisma", 
  "PhaseEncodingDirection": "j-", 
  "ProcedureStepDescription": "dbic_QA", 
  "ProtocolName": "BOLD_p2", 
  "RepetitionTime": 2, 
  "SliceTiming": [0, 0.065, 0.13, 0.1975, 0.2625, 0.33, 0.395, 0.46, 0.5275, 0.5925, 0.66, 0.725, 0.79, 0.8575, 0.9225], 
  "dcmmeta_affine": [
    [-2.9576334953308105, 0.477443128824234, 0.2079724818468094, 90.81829071044922], 
    [0.5023714303970337, 2.8201513290405273, 1.1853948831558228, -140.1061248779297], 
    [0.005151680670678616, -0.9048730134963989, 3.8041670322418213, -25.098430633544922], 
    [0.0, 0.0, 0.0, 1.0]
], 
  "dcmmeta_reorient_transform": [
    [0.0, -1.0, 0.0, 79.0], 
    [1.0, 0.0, 0.0, 0.0], 
    [0.0, 0.0, 1.0, 0.0], 
    [0.0, 0.0, 0.0, 1.0]
], 
  "dcmmeta_shape": [80, 80, 30, 157], 
  "dcmmeta_slice_dim": 2, 
  "dcmmeta_version": 0.6, 
  "global": {
    "const": {
      "AccessionNumber": "qa", 
      "AcquisitionMatrix": [80, 0, 0, 80], 
      "AngioFlag": "N", 
      "BitsAllocated": 16, 
      "BitsStored": 12, 
      "BodyPartExamined": "BRAIN", 
      "Columns": 480, 
      "EchoNumbers": 1, 
      "EchoTime": 35.0, 
      "EchoTrainLength": 39, 
      "FlipAngle": 90.0, 
      "HighBit": 11, 
      "ImageOrientationPatient": [0.98587785983552, -0.1674571486026, 0.00171722683796, 0.15914770965886, 0.94005040756959, 0.30162433213948], 
      "ImagePositionPatient": [-815.55164215265, -546.24177299736, -278.5883336576], 
      "ImageType": [
        "ORIGINAL", 
        "PRIMARY", 
        "M", 
        "ND", 
        "NORM", 
        "MOCO", 
        "MOSAIC"
], 
      "ImagedNucleus": "1H", 
      "ImagingFrequency": 123.252633, 
      "InPlanePhaseEncodingDirection": "COL", 
      "MRAcquisitionType": "2D", 
      "MagneticFieldStrength": 3.0, 
      "Manufacturer": "SIEMENS", 
      "ManufacturerModelName": "Prisma", 
      "Modality": "MR", 
      "NumberOfAverages": 1.0, 
      "NumberOfPhaseEncodingSteps": 79, 
      "PercentPhaseFieldOfView": 100.0, 
      "PercentSampling": 100.0, 
      "PerformedProcedureStepStartTime": "101702.601000", 
      "PhotometricInterpretation": "MONOCHROME2", 
      "PixelBandwidth": 2315.0, 
      "PixelRepresentation": 0, 
      "PixelSpacing": [3.0, 3.0], 
      "PositionReferenceIndicator": "", 
      "ProtocolName": "BOLD_p2", 
      "RepetitionTime": 2000.0, 
      "Rows": 480, 
      "SAR": 0.05555612619252, 
      "SamplesPerPixel": 1, 
      "ScanOptions": "FS", 
      "ScanningSequence": "EP", 
      "SequenceName": "*epfid2d1_80", 
      "SequenceVariant": "SK", 
      "SeriesDescription": "MoCoSeries", 
      "SeriesNumber": 6, 
      "SeriesTime": "101902.318000", 
      "SliceLocation": -60.820052965118, 
      "SliceThickness": 3.5, 
      "SmallestImagePixelValue": 0, 
      "SoftwareVersions": "syngo MR E11", 
      "SpacingBetweenSlices": 3.9900000075378, 
      "SpecificCharacterSet": "ISO_IR 100", 
      "StudyID": "9", 
      "StudyTime": "101702.485000", 
      "TransmitCoilName": "Body", 
      "VariableFlipAngleFlag": "N", 
      "WindowCenterWidthExplanation": "Algo1", 
      "dBdt": 0.0}, 
    "slices": {}
  }, 
  "time": {
    "samples": {
      "AcquisitionNumber": [1, 2, 3, 4, 5, 6, 7, 8, 9, 10, 11, 12, 13, 14, 15, 16, 17, 18, 19, 20, 21, 22, 23, 24, 25, 26, 27, 28, 29, 30, 31, 32, 33, 34, 35, 36, 37, 38, 39, 40, 41, 42, 43, 44, 45, 46, 47, 48, 49, 50, 51, 52, 53, 54, 55, 56, 57, 58, 59, 60, 61, 62, 63, 64, 65, 66, 67, 68, 69, 70, 71, 72, 73, 74, 75, 76, 77, 78, 79, 80, 81, 82, 83, 84, 85, 86, 87, 88, 89, 90, 91, 92, 93, 94, 95, 96, 97, 98, 99, 100, 101, 102, 103, 104, 105, 106, 107, 108, 109, 110, 111, 112, 113, 114, 115, 116, 117, 118, 119, 120, 121, 122, 123, 124, 125, 126, 127, 128, 129, 130, 131, 132, 133, 134, 135, 136, 137, 138, 139, 140, 141, 142, 143, 144, 145, 146, 147, 148, 149, 150, 151, 152, 153, 154, 155, 156, 157], 
      "AcquisitionTime": ["101831.772500", "101833.772500", "101835.772500", "101837.772500", "101839.772500", "101841.772500", "101843.772500", "101845.772500", "101847.772500", "101849.772500", "101851.772500", "101853.772500", "101855.772500", "101857.772500", "101859.772500", "101901.772500", "101903.772500", "101905.772500", "101907.772500", "101909.772500", "101911.772500", "101913.772500", "101915.772500", "101917.772500", "101919.772500", "101921.772500", "101923.772500", "101925.772500", "101927.772500", "101929.772500", "101931.772500", "101933.772500", "101935.772500", "101937.772500", "101939.772500", "101941.772500", "101943.772500", "101945.772500", "101947.772500", "101949.772500", "101951.772500", "101953.772500", "101955.772500", "101957.772500", "101959.772500", "102001.772500", "102003.772500", "102005.772500", "102007.772500", "102009.772500", "102011.772500", "102013.772500", "102015.772500", "102017.772500", "102019.772500", "102021.772500", "102023.772500", "102025.772500", "102027.772500", "102029.772500", "102031.772500", "102033.772500", "102035.772500", "102037.772500", "102039.772500", "102041.772500", "102043.772500", "102045.772500", "102047.772500", "102049.772500", "102051.772500", "102053.772500", "102055.772500", "102057.772500", "102059.772500", "102101.772500", "102103.772500", "102105.772500", "102107.772500", "102109.772500", "102111.772500", "102113.772500", "102115.772500", "102117.772500", "102119.772500", "102121.772500", "102123.772500", "102125.772500", "102127.772500", "102129.772500", "102131.772500", "102133.772500", "102135.772500", "102137.772500", "102139.772500", "102141.772500", "102143.772500", "102145.772500", "102147.772500", "102149.772500", "102151.772500", "102153.772500", "102155.772500", "102157.772500", "102159.772500", "102201.772500", "102203.772500", "102205.772500", "102207.772500", "102209.772500", "102211.772500", "102213.772500", "102215.772500", "102217.772500", "102219.772500", "102221.772500", "102223.772500", "102225.772500", "102227.772500", "102229.772500", "102231.772500", "102233.772500", "102235.772500", "102237.772500", "102239.772500", "102241.772500", "102243.772500", "102245.772500", "102247.772500", "102249.772500", "102251.772500", "102253.772500", "102255.772500", "102257.772500", "102259.772500", "102301.772500", "102303.772500", "102305.772500", "102307.772500", "102309.772500", "102311.772500", "102313.772500", "102315.772500", "102317.772500", "102319.772500", "102321.772500", "102323.772500", "102325.772500", "102327.772500", "102329.772500", "102331.772500", "102333.772500", "102335.772500", "102337.772500", "102339.772500", "102341.772500", "102343.772500"], 
      "ContentTime": ["101902.320000", "101902.323000", "101902.326000", "101902.329000", "101902.331000", "101902.334000", "101902.337000", "101902.339000", "101902.342000", "101902.345000", "101902.347000", "101902.350000", "101902.353000", "101902.355000", "101902.358000", "101942.335000", "101942.338000", "101942.340000", "101942.343000", "101942.346000", "101942.348000", "101942.351000", "101942.354000", "101942.357000", "101942.360000", "101942.364000", "101942.367000", "101942.370000", "101942.374000", "101942.378000", "101942.381000", "101942.384000", "101942.387000", "101942.389000", "101942.392000", "102022.327000", "102022.330000", "102022.333000", "102022.335000", "102022.338000", "102022.341000", "102022.343000", "102022.346000", "102022.349000", "102022.351000", "102022.354000", "102022.357000", "102022.359000", "102022.362000", "102022.365000", "102022.367000", "102022.370000", "102022.373000", "102022.376000", "102022.378000", "102102.336000", "102102.339000", "102102.342000", "102102.345000", "102102.347000", "102102.350000", "102102.353000", "102102.355000", "102102.358000", "102102.361000", "102102.363000", "102102.366000", "102102.369000", "102102.372000", "102102.374000", "102102.377000", "102102.379000", "102102.382000", "102102.385000", "102102.388000", "102142.328000", "102142.331000", "102142.334000", "102142.337000", "102142.339000", "102142.342000", "102142.345000", "102142.347000", "102142.350000", "102142.353000", "102142.356000", "102142.358000", "102142.361000", "102142.364000", "102142.366000", "102142.369000", "102142.372000", "102142.374000", "102142.377000", "102142.380000", "102222.345000", "102222.348000", "102222.351000", "102222.353000", "102222.356000", "102222.359000", "102222.361000", "102222.364000", "102222.367000", "102222.369000", "102222.372000", "102222.375000", "102222.377000", "102222.380000", "102222.383000", "102222.386000", "102222.388000", "102222.391000", "102222.394000", "102222.396000", "102302.325000", "102302.328000", "102302.331000", "102302.334000", "102302.350000", "102302.353000", "102302.356000", "102302.358000", "102302.361000", "102302.364000", "102302.367000", "102302.369000", "102302.372000", "102302.375000", "102302.378000", "102302.380000", "102302.383000", "102302.386000", "102302.388000", "102302.391000", "102342.326000", "102342.329000", "102342.332000", "102342.334000", "102342.337000", "102342.340000", "102342.342000", "102342.345000", "102342.348000", "102342.351000", "102342.353000", "102342.356000", "102342.359000", "102342.361000", "102342.364000", "102342.367000", "102342.369000", "102342.372000", "102342.374000", "102342.377000", "102344.890000", "102344.895000"], 
      "InstanceCreationTime": ["101902.320000", "101902.323000", "101902.326000", "101902.329000", "101902.331000", "101902.334000", "101902.337000", "101902.339000", "101902.342000", "101902.345000", "101902.347000", "101902.350000", "101902.353000", "101902.355000", "101902.358000", "101942.335000", "101942.338000", "101942.340000", "101942.343000", "101942.346000", "101942.348000", "101942.351000", "101942.354000", "101942.357000", "101942.360000", "101942.364000", "101942.367000", "101942.370000", "101942.374000", "101942.378000", "101942.381000", "101942.384000", "101942.387000", "101942.389000", "101942.392000", "102022.327000", "102022.330000", "102022.333000", "102022.335000", "102022.338000", "102022.341000", "102022.343000", "102022.346000", "102022.349000", "102022.351000", "102022.354000", "102022.357000", "102022.359000", "102022.362000", "102022.365000", "102022.367000", "102022.370000", "102022.373000", "102022.376000", "102022.378000", "102102.336000", "102102.339000", "102102.342000", "102102.345000", "102102.347000", "102102.350000", "102102.353000", "102102.355000", "102102.358000", "102102.361000", "102102.363000", "102102.366000", "102102.369000", "102102.372000", "102102.374000", "102102.377000", "102102.379000", "102102.382000", "102102.385000", "102102.388000", "102142.328000", "102142.331000", "102142.334000", "102142.337000", "102142.339000", "102142.342000", "102142.345000", "102142.347000", "102142.350000", "102142.353000", "102142.356000", "102142.358000", "102142.361000", "102142.364000", "102142.366000", "102142.369000", "102142.372000", "102142.374000", "102142.377000", "102142.380000", "102222.345000", "102222.348000", "102222.351000", "102222.353000", "102222.356000", "102222.359000", "102222.361000", "102222.364000", "102222.367000", "102222.369000", "102222.372000", "102222.375000", "102222.377000", "102222.380000", "102222.383000", "102222.386000", "102222.388000", "102222.391000", "102222.394000", "102222.396000", "102302.325000", "102302.328000", "102302.331000", "102302.334000", "102302.350000", "102302.353000", "102302.356000", "102302.358000", "102302.361000", "102302.364000", "102302.367000", "102302.369000", "102302.372000", "102302.375000", "102302.378000", "102302.380000", "102302.383000", "102302.386000", "102302.388000", "102302.391000", "102342.326000", "102342.329000", "102342.332000", "102342.334000", "102342.337000", "102342.340000", "102342.342000", "102342.345000", "102342.348000", "102342.351000", "102342.353000", "102342.356000", "102342.359000", "102342.361000", "102342.364000", "102342.367000", "102342.369000", "102342.372000", "102342.374000", "102342.377000", "102344.890000", "102344.895000"], 
      "InstanceNumber": [1, 2, 3, 4, 5, 6, 7, 8, 9, 10, 11, 12, 13, 14, 15, 16, 17, 18, 19, 20, 21, 22, 23, 24, 25, 26, 27, 28, 29, 30, 31, 32, 33, 34, 35, 36, 37, 38, 39, 40, 41, 42, 43, 44, 45, 46, 47, 48, 49, 50, 51, 52, 53, 54, 55, 56, 57, 58, 59, 60, 61, 62, 63, 64, 65, 66, 67, 68, 69, 70, 71, 72, 73, 74, 75, 76, 77, 78, 79, 80, 81, 82, 83, 84, 85, 86, 87, 88, 89, 90, 91, 92, 93, 94, 95, 96, 97, 98, 99, 100, 101, 102, 103, 104, 105, 106, 107, 108, 109, 110, 111, 112, 113, 114, 115, 116, 117, 118, 119, 120, 121, 122, 123, 124, 125, 126, 127, 128, 129, 130, 131, 132, 133, 134, 135, 136, 137, 138, 139, 140, 141, 142, 143, 144, 145, 146, 147, 148, 149, 150, 151, 152, 153, 154, 155, 156, 157], 
      "LargestImagePixelValue": [2151, 2150, 2155, 2146, 2149, 2152, 2153, 2152, 2150, 2146, 2153, 2148, 2146, 2154, 2145, 2154, 2156, 2147, 2149, 2147, 2150, 2149, 2156, 2155, 2157, 2148, 2149, 2145, 2151, 2146, 2154, 2149, 2155, 2150, 2144, 2150, 2151, 2150, 2152, 2147, 2144, 2152, 2148, 2145, 2154, 2150, 2154, 2149, 2149, 2151, 2146, 2150, 2149, 2146, 2151, 2150, 2144, 2153, 2150, 2140, 2148, 2147, 2154, 2151, 2145, 2149, 2155, 2152, 2150, 2155, 2145, 2146, 2150, 2150, 2149, 2161, 2154, 2154, 2152, 2148, 2149, 2148, 2158, 2156, 2158, 2157, 2151, 2151, 2152, 2149, 2152, 2150, 2158, 2154, 2148, 2156, 2154, 2157, 2150, 2151, 2147, 2153, 2147, 2157, 2146, 2159, 2155, 2154, 2153, 2154, 2154, 2150, 2153, 2150, 2154, 2157, 2148, 2152, 2154, 2154, 2151, 2155, 2150, 2151, 2146, 2148, 2153, 2149, 2142, 2160, 2145, 2149, 2149, 2148, 2146, 2151, 2150, 2152, 2152, 2153, 2153, 2145, 2155, 2150, 2150, 2146, 2152, 2153, 2147, 2150, 2150, 2148, 2152, 2151, 2152, 2154, 2156], 
      "WindowCenter": [978.0, 977.0, 977.0, 977.0, 977.0, 978.0, 977.0, 977.0, 977.0, 977.0, 977.0, 977.0, 977.0, 978.0, 977.0, 977.0, 977.0, 977.0, 978.0, 977.0, 977.0, 978.0, 978.0, 977.0, 978.0, 977.0, 977.0, 978.0, 978.0, 978.0, 978.0, 977.0, 978.0, 977.0, 978.0, 978.0, 978.0, 977.0, 977.0, 978.0, 978.0, 978.0, 977.0, 978.0, 978.0, 978.0, 978.0, 978.0, 978.0, 978.0, 978.0, 978.0, 978.0, 978.0, 978.0, 978.0, 978.0, 978.0, 978.0, 978.0, 978.0, 978.0, 978.0, 978.0, 978.0, 978.0, 978.0, 978.0, 978.0, 978.0, 978.0, 978.0, 978.0, 978.0, 978.0, 978.0, 978.0, 978.0, 978.0, 978.0, 978.0, 978.0, 978.0, 977.0, 977.0, 977.0, 977.0, 977.0, 978.0, 977.0, 978.0, 977.0, 978.0, 977.0, 977.0, 977.0, 977.0, 977.0, 978.0, 978.0, 978.0, 977.0, 977.0, 978.0, 978.0, 977.0, 977.0, 977.0, 977.0, 978.0, 977.0, 977.0, 978.0, 977.0, 977.0, 978.0, 978.0, 977.0, 977.0, 978.0, 977.0, 978.0, 977.0, 977.0, 977.0, 977.0, 977.0, 977.0, 977.0, 978.0, 977.0, 977.0, 977.0, 978.0, 977.0, 977.0, 978.0, 977.0, 977.0, 977.0, 978.0, 977.0, 978.0, 977.0, 977.0, 977.0, 977.0, 977.0, 978.0, 978.0, 978.0, 977.0, 977.0, 978.0, 977.0, 977.0, 977.0], 
      "WindowWidth": [2131.0, 2130.0, 2130.0, 2130.0, 2130.0, 2130.0, 2130.0, 2130.0, 2130.0, 2130.0, 2130.0, 2130.0, 2130.0, 2131.0, 2130.0, 2130.0, 2130.0, 2130.0, 2131.0, 2130.0, 2130.0, 2131.0, 2131.0, 2130.0, 2131.0, 2130.0, 2131.0, 2131.0, 2131.0, 2131.0, 2131.0, 2130.0, 2131.0, 2131.0, 2131.0, 2131.0, 2131.0, 2131.0, 2131.0, 2131.0, 2131.0, 2131.0, 2131.0, 2131.0, 2131.0, 2131.0, 2131.0, 2131.0, 2131.0, 2131.0, 2132.0, 2131.0, 2131.0, 2131.0, 2131.0, 2131.0, 2132.0, 2132.0, 2132.0, 2131.0, 2132.0, 2131.0, 2131.0, 2131.0, 2131.0, 2132.0, 2131.0, 2131.0, 2132.0, 2132.0, 2131.0, 2131.0, 2131.0, 2132.0, 2131.0, 2132.0, 2131.0, 2131.0, 2132.0, 2131.0, 2132.0, 2132.0, 2132.0, 2131.0, 2131.0, 2131.0, 2131.0, 2131.0, 2132.0, 2131.0, 2132.0, 2131.0, 2132.0, 2131.0, 2131.0, 2131.0, 2131.0, 2131.0, 2132.0, 2132.0, 2132.0, 2131.0, 2131.0, 2132.0, 2132.0, 2131.0, 2131.0, 2131.0, 2131.0, 2132.0, 2131.0, 2131.0, 2132.0, 2131.0, 2131.0, 2132.0, 2132.0, 2131.0, 2131.0, 2131.0, 2131.0, 2132.0, 2131.0, 2131.0, 2131.0, 2130.0, 2131.0, 2130.0, 2130.0, 2131.0, 2130.0, 2131.0, 2130.0, 2131.0, 2130.0, 2130.0, 2131.0, 2131.0, 2131.0, 2130.0, 2132.0, 2130.0, 2132.0, 2130.0, 2131.0, 2130.0, 2130.0, 2130.0, 2131.0, 2131.0, 2131.0, 2130.0, 2130.0, 2131.0, 2131.0, 2131.0, 2131.0]
    }, 
    "slices": {}
  }
}