{
  "AccelFactPE": 2,
  "AcquisitionNumber": 1,
  "AcquisitionTime": "09:36:29.200000",
  "BandwidthPerPixelPhaseEncode": 48.077,
  "BodyPartExamined": "BRAIN",
  "ConversionSoftware": "dcm2niix",
  "ConversionSoftwareVersion": "v1.0.20170624 GCC6.3.0",
  "DeviceSerialNumber": "66112",
  "EchoTime": 0.035,
  "EchoTrainLength": 39,
  "EffectiveEchoSpacing": 0.00026,
  "FlipAngle": 90,
  "ImageType": [
    "ORIGINAL",
    "PRIMARY",
    "M",
    "ND",
    "NORM",
    "MOSAIC"
],
  "InstitutionAddress": "Maynard_3_Hanover_NH_US_03755",
  "InstitutionName": "Dartmouth_College_-_PBS",
  "MagneticFieldStrength": 3,
  "Manufacturer": "Siemens",
  "ManufacturersModelName": "Prisma",
  "PhaseEncodingDirection": "j-",
  "PhaseEncodingLines": 80,
  "ProcedureStepDescription": "dbic_QA",
  "ProtocolName": "func-bold_task-rest_acq-p2",
  "RepetitionTime": 2,
  "ScanningSequence": "EP",
  "SequenceName": "_epfid2d1_80",
  "SequenceVariant": "SK",
  "SeriesDescription": "func-bold_task-rest_acq-p2",
  "SliceTiming": [0.99, 0, 1.055, 0.0675, 1.1225, 0.1325, 1.1875, 0.1975, 1.255, 0.265, 1.32, 0.33, 1.385, 0.395, 1.4525, 0.4625, 1.5175, 0.5275, 1.585, 0.595, 1.65, 0.66, 1.715, 0.725, 1.7825, 0.7925, 1.8475, 0.8575, 1.915, 0.925],
  "SoftwareVersions": "syngo_MR_E11",
  "TaskName": "rest",
  "TotalReadoutTime": 0.02002,
  "TrueEchoSpacing": 0.000519999,
  "dcmmeta_affine": [
    [-2.936842918395996, -0.5937718749046326, -0.1990053802728653, 148.40501403808594],
    [-0.610852062702179, 2.7899389266967773, 1.2212125062942505, -94.46522521972656],
    [0.0425836555659771, -0.9293414354324341, 3.793301582336426, -24.217544555664062],
    [0.0, 0.0, 0.0, 1.0]
],
  "dcmmeta_reorient_transform": [
    [0.0, -1.0, 0.0, 79.0],
    [1.0, 0.0, 0.0, 0.0],
    [0.0, 0.0, 1.0, 0.0],
    [0.0, 0.0, 0.0, 1.0]
],
  "dcmmeta_shape": [80, 80, 30, 200],
  "dcmmeta_slice_dim": 2,
  "dcmmeta_version": 0.6,
  "global": {
    "const": {
      "AccessionNumber": "qa",
      "AcquisitionMatrix": [80, 0, 0, 80],
      "AngioFlag": "N",
      "BitsAllocated": 16,
      "BitsStored": 12,
      "BodyPartExamined": "BRAIN",
      "Columns": 480,
      "EchoNumbers": 1,
      "EchoTime": 35.0,
      "EchoTrainLength": 39,
      "FlipAngle": 90.0,
      "HighBit": 11,
      "ImageOrientationPatient": [0.97894764345696, 0.20361735205065, 0.01419455226309, -0.1979239564533, 0.92997965910102, 0.30978047246435],
      "ImagePositionPatient": [-570.11124792956, -806.09815701205, -292.02053220805],
      "ImageType": [
        "ORIGINAL",
        "PRIMARY",
        "M",
        "ND",
        "NORM",
        "MOSAIC"
],
      "ImagedNucleus": "1H",
      "ImagingFrequency": 123.25248,
      "InPlanePhaseEncodingDirection": "COL",
      "MRAcquisitionType": "2D",
      "MagneticFieldStrength": 3.0,
      "Manufacturer": "SIEMENS",
      "ManufacturerModelName": "Prisma",
      "Modality": "MR",
      "NumberOfAverages": 1.0,
      "NumberOfPhaseEncodingSteps": 79,
      "PercentPhaseFieldOfView": 100.0,
      "PercentSampling": 100.0,
      "PerformedProcedureStepStartTime": "093441.782000",
      "PhotometricInterpretation": "MONOCHROME2",
      "PixelBandwidth": 2315.0,
      "PixelRepresentation": 0,
      "PixelSpacing": [3.0, 3.0],
      "PositionReferenceIndicator": "",
      "ProtocolName": "func-bold_task-rest_acq-p2",
      "RepetitionTime": 2000.0,
      "Rows": 480,
      "SAR": 0.05519363793782,
      "SamplesPerPixel": 1,
      "ScanOptions": "FS",
      "ScanningSequence": "EP",
      "SequenceName": "*epfid2d1_80",
      "SequenceVariant": "SK",
      "SeriesDescription": "func-bold_task-rest_acq-p2",
      "SeriesNumber": 5,
      "SeriesTime": "093719.808000",
      "SliceLocation": -59.338338539973,
      "SliceThickness": 3.5,
      "SmallestImagePixelValue": 0,
      "SoftwareVersions": "syngo MR E11",
      "SpacingBetweenSlices": 3.990000088628,
      "SpecificCharacterSet": "ISO_IR 100",
      "StudyID": "81",
      "StudyTime": "093441.674000",
      "TransmitCoilName": "Body",
      "VariableFlipAngleFlag": "N",
      "WindowCenterWidthExplanation": "Algo1",
      "dBdt": 0.0},
    "slices": {}
  },
  "time": {
    "samples": {
      "AcquisitionNumber": [1, 2, 3, 4, 5, 6, 7, 8, 9, 10, 11, 12, 13, 14, 15, 16, 17, 18, 19, 20, 21, 22, 23, 24, 25, 26, 27, 28, 29, 30, 31, 32, 33, 34, 35, 36, 37, 38, 39, 40, 41, 42, 43, 44, 45, 46, 47, 48, 49, 50, 51, 52, 53, 54, 55, 56, 57, 58, 59, 60, 61, 62, 63, 64, 65, 66, 67, 68, 69, 70, 71, 72, 73, 74, 75, 76, 77, 78, 79, 80, 81, 82, 83, 84, 85, 86, 87, 88, 89, 90, 91, 92, 93, 94, 95, 96, 97, 98, 99, 100, 101, 102, 103, 104, 105, 106, 107, 108, 109, 110, 111, 112, 113, 114, 115, 116, 117, 118, 119, 120, 121, 122, 123, 124, 125, 126, 127, 128, 129, 130, 131, 132, 133, 134, 135, 136, 137, 138, 139, 140, 141, 142, 143, 144, 145, 146, 147, 148, 149, 150, 151, 152, 153, 154, 155, 156, 157, 158, 159, 160, 161, 162, 163, 164, 165, 166, 167, 168, 169, 170, 171, 172, 173, 174, 175, 176, 177, 178, 179, 180, 181, 182, 183, 184, 185, 186, 187, 188, 189, 190, 191, 192, 193, 194, 195, 196, 197, 198, 199, 200],
      "AcquisitionTime": ["093629.200000", "093631.200000", "093633.200000", "093635.200000", "093637.200000", "093639.200000", "093641.200000", "093643.200000", "093645.200000", "093647.200000", "093649.200000", "093651.200000", "093653.200000", "093655.200000", "093657.200000", "093659.200000", "093701.200000", "093703.200000", "093705.200000", "093707.200000", "093709.200000", "093711.200000", "093713.200000", "093715.200000", "093717.200000", "093719.200000", "093721.200000", "093723.200000", "093725.200000", "093727.200000", "093729.200000", "093731.200000", "093733.200000", "093735.200000", "093737.200000", "093739.200000", "093741.200000", "093743.200000", "093745.200000", "093747.200000", "093749.200000", "093751.200000", "093753.200000", "093755.200000", "093757.200000", "093759.200000", "093801.200000", "093803.200000", "093805.200000", "093807.200000", "093809.200000", "093811.200000", "093813.200000", "093815.200000", "093817.200000", "093819.200000", "093821.200000", "093823.200000", "093825.200000", "093827.200000", "093829.200000", "093831.200000", "093833.200000", "093835.200000", "093837.200000", "093839.200000", "093841.200000", "093843.200000", "093845.200000", "093847.200000", "093849.200000", "093851.200000", "093853.200000", "093855.200000", "093857.200000", "093859.200000", "093901.200000", "093903.200000", "093905.200000", "093907.200000", "093909.200000", "093911.200000", "093913.200000", "093915.200000", "093917.200000", "093919.200000", "093921.200000", "093923.200000", "093925.200000", "093927.200000", "093929.200000", "093931.200000", "093933.200000", "093935.200000", "093937.200000", "093939.200000", "093941.200000", "093943.200000", "093945.200000", "093947.200000", "093949.200000", "093951.200000", "093953.200000", "093955.200000", "093957.200000", "093959.200000", "094001.200000", "094003.200000", "094005.200000", "094007.200000", "094009.200000", "094011.200000", "094013.200000", "094015.200000", "094017.200000", "094019.200000", "094021.200000", "094023.200000", "094025.200000", "094027.200000", "094029.200000", "094031.200000", "094033.200000", "094035.200000", "094037.200000", "094039.200000", "094041.200000", "094043.200000", "094045.200000", "094047.200000", "094049.200000", "094051.200000", "094053.200000", "094055.200000", "094057.200000", "094059.200000", "094101.200000", "094103.200000", "094105.200000", "094107.200000", "094109.200000", "094111.200000", "094113.200000", "094115.200000", "094117.200000", "094119.200000", "094121.200000", "094123.200000", "094125.200000", "094127.200000", "094129.200000", "094131.200000", "094133.200000", "094135.200000", "094137.200000", "094139.200000", "094141.200000", "094143.200000", "094145.200000", "094147.200000", "094149.200000", "094151.200000", "094153.200000", "094155.200000", "094157.200000", "094159.200000", "094201.200000", "094203.200000", "094205.200000", "094207.200000", "094209.200000", "094211.200000", "094213.200000", "094215.200000", "094217.200000", "094219.200000", "094221.200000", "094223.200000", "094225.200000", "094227.200000", "094229.200000", "094231.200000", "094233.200000", "094235.200000", "094237.200000", "094239.200000", "094241.200000", "094243.200000", "094245.200000", "094247.200000", "094249.200000", "094251.200000", "094253.200000", "094255.200000", "094257.200000", "094259.200000", "094301.200000", "094303.200000", "094305.200000", "094307.200000"],
      "ContentTime": ["093719.811000", "093719.821000", "093719.824000", "093719.832000", "093719.834000", "093719.837000", "093719.839000", "093719.842000", "093719.845000", "093719.847000", "093719.850000", "093719.852000", "093719.855000", "093719.857000", "093719.860000", "093719.863000", "093719.865000", "093719.868000", "093719.873000", "093719.876000", "093719.878000", "093719.881000", "093719.883000", "093719.886000", "093719.888000", "093759.807000", "093759.810000", "093759.813000", "093759.815000", "093759.818000", "093759.821000", "093759.833000", "093759.836000", "093759.839000", "093759.841000", "093759.844000", "093759.846000", "093759.848000", "093759.856000", "093759.859000", "093759.862000", "093759.864000", "093759.867000", "093759.870000", "093759.872000", "093839.806000", "093839.809000", "093839.812000", "093839.814000", "093839.817000", "093839.819000", "093839.822000", "093839.824000", "093839.827000", "093839.829000", "093839.832000", "093839.834000", "093839.837000", "093839.839000", "093839.842000", "093839.844000", "093839.847000", "093839.850000", "093839.853000", "093839.855000", "093919.806000", "093919.809000", "093919.812000", "093919.814000", "093919.817000", "093919.820000", "093919.822000", "093919.825000", "093919.828000", "093919.830000", "093919.833000", "093919.835000", "093919.838000", "093919.840000", "093919.843000", "093919.845000", "093919.848000", "093919.850000", "093919.853000", "093919.856000", "093959.807000", "093959.809000", "093959.812000", "093959.815000", "093959.817000", "093959.820000", "093959.822000", "093959.825000", "093959.828000", "093959.830000", "093959.833000", "093959.835000", "093959.838000", "093959.841000", "093959.843000", "093959.846000", "093959.848000", "093959.851000", "093959.854000", "093959.857000", "094019.808000", "094019.818000", "094019.829000", "094019.832000", "094019.835000", "094019.838000", "094019.841000", "094019.843000", "094019.846000", "094019.849000", "094059.806000", "094059.820000", "094059.823000", "094059.825000", "094059.828000", "094059.830000", "094059.833000", "094059.835000", "094059.838000", "094059.840000", "094059.843000", "094059.845000", "094059.848000", "094059.851000", "094059.853000", "094059.856000", "094059.858000", "094059.861000", "094059.863000", "094059.866000", "094139.806000", "094139.809000", "094139.812000", "094139.814000", "094139.817000", "094139.819000", "094139.822000", "094139.824000", "094139.827000", "094139.829000", "094139.832000", "094139.835000", "094139.837000", "094139.840000", "094139.842000", "094139.844000", "094139.847000", "094139.850000", "094139.852000", "094139.855000", "094219.806000", "094219.809000", "094219.812000", "094219.825000", "094219.827000", "094219.830000", "094219.832000", "094219.835000", "094219.838000", "094219.840000", "094219.843000", "094219.845000", "094219.848000", "094219.850000", "094219.853000", "094219.855000", "094219.858000", "094219.860000", "094219.863000", "094219.865000", "094259.807000", "094259.810000", "094259.813000", "094259.815000", "094259.818000", "094259.820000", "094259.823000", "094259.825000", "094259.828000", "094259.830000", "094259.833000", "094259.835000", "094259.838000", "094259.841000", "094259.843000", "094259.846000", "094259.848000", "094259.851000", "094259.853000", "094259.856000", "094308.314000", "094308.317000", "094308.319000", "094308.322000", "094308.325000"],
      "InstanceCreationTime": ["093719.811000", "093719.821000", "093719.824000", "093719.832000", "093719.834000", "093719.837000", "093719.839000", "093719.842000", "093719.845000", "093719.847000", "093719.850000", "093719.852000", "093719.855000", "093719.857000", "093719.860000", "093719.863000", "093719.865000", "093719.868000", "093719.873000", "093719.876000", "093719.878000", "093719.881000", "093719.883000", "093719.886000", "093719.888000", "093759.807000", "093759.810000", "093759.813000", "093759.815000", "093759.818000", "093759.821000", "093759.833000", "093759.836000", "093759.839000", "093759.841000", "093759.844000", "093759.846000", "093759.848000", "093759.856000", "093759.859000", "093759.862000", "093759.864000", "093759.867000", "093759.870000", "093759.872000", "093839.806000", "093839.809000", "093839.812000", "093839.814000", "093839.817000", "093839.819000", "093839.822000", "093839.824000", "093839.827000", "093839.829000", "093839.832000", "093839.834000", "093839.837000", "093839.839000", "093839.842000", "093839.844000", "093839.847000", "093839.850000", "093839.853000", "093839.855000", "093919.806000", "093919.809000", "093919.812000", "093919.814000", "093919.817000", "093919.820000", "093919.822000", "093919.825000", "093919.828000", "093919.830000", "093919.833000", "093919.835000", "093919.838000", "093919.840000", "093919.843000", "093919.845000", "093919.848000", "093919.850000", "093919.853000", "093919.856000", "093959.807000", "093959.809000", "093959.812000", "093959.815000", "093959.817000", "093959.820000", "093959.822000", "093959.825000", "093959.828000", "093959.830000", "093959.833000", "093959.835000", "093959.838000", "093959.841000", "093959.843000", "093959.846000", "093959.848000", "093959.851000", "093959.854000", "093959.857000", "094019.808000", "094019.818000", "094019.829000", "094019.832000", "094019.835000", "094019.838000", "094019.841000", "094019.843000", "094019.846000", "094019.849000", "094059.806000", "094059.820000", "094059.823000", "094059.825000", "094059.828000", "094059.830000", "094059.833000", "094059.835000", "094059.838000", "094059.840000", "094059.843000", "094059.845000", "094059.848000", "094059.851000", "094059.853000", "094059.856000", "094059.858000", "094059.861000", "094059.863000", "094059.866000", "094139.806000", "094139.809000", "094139.812000", "094139.814000", "094139.817000", "094139.819000", "094139.822000", "094139.824000", "094139.827000", "094139.829000", "094139.832000", "094139.835000", "094139.837000", "094139.840000", "094139.842000", "094139.844000", "094139.847000", "094139.850000", "094139.852000", "094139.855000", "094219.806000", "094219.809000", "094219.812000", "094219.825000", "094219.827000", "094219.830000", "094219.832000", "094219.835000", "094219.838000", "094219.840000", "094219.843000", "094219.845000", "094219.848000", "094219.850000", "094219.853000", "094219.855000", "094219.858000", "094219.860000", "094219.863000", "094219.865000", "094259.807000", "094259.810000", "094259.813000", "094259.815000", "094259.818000", "094259.820000", "094259.823000", "094259.825000", "094259.828000", "094259.830000", "094259.833000", "094259.835000", "094259.838000", "094259.841000", "094259.843000", "094259.846000", "094259.848000", "094259.851000", "094259.853000", "094259.856000", "094308.314000", "094308.317000", "094308.319000", "094308.322000", "094308.325000"],
      "InstanceNumber": [1, 2, 3, 4, 5, 6, 7, 8, 9, 10, 11, 12, 13, 14, 15, 16, 17, 18, 19, 20, 21, 22, 23, 24, 25, 26, 27, 28, 29, 30, 31, 32, 33, 34, 35, 36, 37, 38, 39, 40, 41, 42, 43, 44, 45, 46, 47, 48, 49, 50, 51, 52, 53, 54, 55, 56, 57, 58, 59, 60, 61, 62, 63, 64, 65, 66, 67, 68, 69, 70, 71, 72, 73, 74, 75, 76, 77, 78, 79, 80, 81, 82, 83, 84, 85, 86, 87, 88, 89, 90, 91, 92, 93, 94, 95, 96, 97, 98, 99, 100, 101, 102, 103, 104, 105, 106, 107, 108, 109, 110, 111, 112, 113, 114, 115, 116, 117, 118, 119, 120, 121, 122, 123, 124, 125, 126, 127, 128, 129, 130, 131, 132, 133, 134, 135, 136, 137, 138, 139, 140, 141, 142, 143, 144, 145, 146, 147, 148, 149, 150, 151, 152, 153, 154, 155, 156, 157, 158, 159, 160, 161, 162, 163, 164, 165, 166, 167, 168, 169, 170, 171, 172, 173, 174, 175, 176, 177, 178, 179, 180, 181, 182, 183, 184, 185, 186, 187, 188, 189, 190, 191, 192, 193, 194, 195, 196, 197, 198, 199, 200],
      "LargestImagePixelValue": [1974, 1973, 1973, 1977, 1974, 1973, 1971, 1977, 1979, 1978, 1974, 1979, 1975, 1978, 1978, 1977, 1969, 1978, 1978, 1977, 1974, 1976, 1973, 1975, 1976, 1974, 1972, 1971, 1974, 1972, 1974, 1972, 1975, 1976, 1974, 1976, 1974, 1971, 1979, 1974, 1975, 1971, 1978, 1978, 1972, 1970, 1971, 1973, 1972, 1970, 1971, 1971, 1975, 1975, 1973, 1975, 1971, 1970, 1978, 1978, 1978, 1978, 1977, 1974, 1973, 1975, 1971, 1971, 1969, 1974, 1974, 1973, 1969, 1969, 1973, 1980, 1976, 1973, 1974, 1977, 1972, 1982, 1971, 1973, 1972, 1977, 1976, 1974, 1971, 1975, 1973, 1972, 1973, 1971, 1977, 1973, 1973, 1980, 1976, 1973, 1975, 1975, 1977, 1976, 1972, 1969, 1976, 1976, 1979, 1976, 1972, 1972, 1974, 1972, 1974, 1973, 1973, 1970, 1972, 1972, 1972, 1972, 1977, 1971, 1972, 1976, 1968, 1971, 1972, 1974, 1970, 1976, 1969, 1971, 1976, 1970, 1973, 1974, 1970, 1969, 1969, 1968, 1973, 1974, 1976, 1972, 1971, 1977, 1969, 1974, 1972, 1970, 1973, 1972, 1967, 1972, 1970, 1976, 1976, 1965, 1973, 1976, 1976, 1970, 1967, 1976, 1969, 1974, 1969, 1976, 1974, 1968, 1973, 1969, 1974, 1972, 1972, 1974, 1973, 1974, 1977, 1977, 1978, 1968, 1978, 1972, 1970, 1974, 1969, 1972, 1968, 1974, 1971, 1972, 1973, 1972, 1971, 1977, 1969, 1975],
      "WindowCenter": [965.0, 964.0, 964.0, 964.0, 964.0, 964.0, 964.0, 964.0, 964.0, 963.0, 964.0, 964.0, 964.0, 963.0, 963.0, 963.0, 964.0, 964.0, 963.0, 964.0, 964.0, 963.0, 964.0, 964.0, 963.0, 963.0, 964.0, 964.0, 964.0, 963.0, 963.0, 964.0, 963.0, 963.0, 963.0, 964.0, 963.0, 963.0, 964.0, 963.0, 964.0, 963.0, 963.0, 963.0, 963.0, 964.0, 964.0, 963.0, 964.0, 963.0, 964.0, 963.0, 963.0, 963.0, 964.0, 963.0, 963.0, 964.0, 963.0, 963.0, 963.0, 963.0, 963.0, 964.0, 963.0, 963.0, 964.0, 963.0, 963.0, 964.0, 964.0, 964.0, 963.0, 964.0, 963.0, 963.0, 963.0, 964.0, 963.0, 963.0, 963.0, 963.0, 963.0, 963.0, 963.0, 964.0, 963.0, 963.0, 963.0, 963.0, 963.0, 963.0, 963.0, 963.0, 963.0, 964.0, 963.0, 963.0, 963.0, 963.0, 963.0, 964.0, 963.0, 963.0, 963.0, 963.0, 963.0, 963.0, 963.0, 963.0, 963.0, 963.0, 963.0, 963.0, 963.0, 963.0, 963.0, 963.0, 963.0, 963.0, 963.0, 963.0, 963.0, 963.0, 963.0, 963.0, 962.0, 963.0, 963.0, 963.0, 964.0, 963.0, 962.0, 963.0, 962.0, 962.0, 962.0, 962.0, 962.0, 963.0, 962.0, 963.0, 962.0, 962.0, 962.0, 963.0, 963.0, 962.0, 963.0, 962.0, 962.0, 962.0, 962.0, 962.0, 963.0, 962.0, 962.0, 962.0, 963.0, 963.0, 962.0, 962.0, 962.0, 962.0, 963.0, 962.0, 962.0, 963.0, 963.0, 962.0, 963.0, 963.0, 963.0, 963.0, 963.0, 962.0, 963.0, 962.0, 962.0, 963.0, 962.0, 962.0, 963.0, 962.0, 962.0, 963.0, 963.0, 963.0, 962.0, 963.0, 963.0, 962.0, 962.0, 963.0, 963.0, 962.0, 963.0, 962.0, 963.0, 963.0],
      "WindowWidth": [2096.0, 2096.0, 2095.0, 2095.0, 2096.0, 2095.0, 2095.0, 2095.0, 2095.0, 2095.0, 2095.0, 2095.0, 2095.0, 2095.0, 2095.0, 2095.0, 2095.0, 2095.0, 2095.0, 2095.0, 2095.0, 2095.0, 2095.0, 2095.0, 2095.0, 2095.0, 2095.0, 2095.0, 2095.0, 2095.0, 2095.0, 2095.0, 2095.0, 2095.0, 2094.0, 2095.0, 2094.0, 2094.0, 2095.0, 2095.0, 2095.0, 2094.0, 2094.0, 2094.0, 2095.0, 2095.0, 2095.0, 2094.0, 2095.0, 2094.0, 2095.0, 2094.0, 2094.0, 2094.0, 2095.0, 2094.0, 2094.0, 2095.0, 2094.0, 2094.0, 2094.0, 2094.0, 2094.0, 2094.0, 2094.0, 2094.0, 2094.0, 2094.0, 2094.0, 2094.0, 2094.0, 2094.0, 2094.0, 2094.0, 2094.0, 2094.0, 2094.0, 2094.0, 2093.0, 2093.0, 2093.0, 2093.0, 2093.0, 2093.0, 2093.0, 2094.0, 2093.0, 2093.0, 2093.0, 2093.0, 2093.0, 2093.0, 2093.0, 2093.0, 2093.0, 2093.0, 2093.0, 2093.0, 2093.0, 2093.0, 2093.0, 2093.0, 2093.0, 2093.0, 2093.0, 2093.0, 2092.0, 2093.0, 2092.0, 2092.0, 2092.0, 2092.0, 2093.0, 2092.0, 2093.0, 2092.0, 2093.0, 2092.0, 2092.0, 2092.0, 2092.0, 2093.0, 2093.0, 2093.0, 2093.0, 2092.0, 2092.0, 2092.0, 2093.0, 2093.0, 2094.0, 2092.0, 2092.0, 2092.0, 2092.0, 2092.0, 2092.0, 2092.0, 2092.0, 2092.0, 2092.0, 2092.0, 2092.0, 2092.0, 2092.0, 2092.0, 2092.0, 2092.0, 2092.0, 2092.0, 2092.0, 2092.0, 2092.0, 2092.0, 2092.0, 2092.0, 2092.0, 2092.0, 2092.0, 2092.0, 2092.0, 2092.0, 2092.0, 2092.0, 2092.0, 2092.0, 2092.0, 2092.0, 2092.0, 2091.0, 2092.0, 2092.0, 2092.0, 2092.0, 2092.0, 2091.0, 2092.0, 2091.0, 2091.0, 2092.0, 2091.0, 2091.0, 2092.0, 2091.0, 2091.0, 2091.0, 2092.0, 2092.0, 2091.0, 2092.0, 2092.0, 2091.0, 2091.0, 2092.0, 2092.0, 2091.0, 2092.0, 2091.0, 2091.0, 2092.0]
    },
    "slices": {}
  }
}