{
  "AcquisitionMatrixPE": 80,
  "AcquisitionNumber": 1,
  "AcquisitionTime": "12:43:3.540000",
  "BandwidthPerPixelPhaseEncode": 25,
  "BaseResolution": 80,
  "BodyPartExamined": "BRAIN",
  "CoilCombinationMethod": "Sum of Squares",
  "ConsistencyInfo": "N4_VE11C_LATEST_20160120",
  "ConversionSoftware": "dcm2niix",
  "ConversionSoftwareVersion": "v1.0.20220720",
  "DerivedVendorReportedEchoSpacing": 0.0005,
  "DeviceSerialNumber": "66112",
  "DwellTime": 2.7e-06,
  "EchoTime": 0.03,
  "EchoTrainLength": 80,
  "EffectiveEchoSpacing": 0.0005,
  "FlipAngle": 77,
  "HeudiconvVersion": "0.13.1",
  "ImageOrientationPatientDICOM": [0.988794, 0.149071, 0.00805754, -0.143897, 0.937322, 0.317365],
  "ImageOrientationText": "Tra>Cor(18.4)>Sag(-2.3)",
  "ImageType": [
    "ORIGINAL",
    "PRIMARY",
    "M",
    "ND",
    "NORM",
    "MOSAIC"
],
  "ImagingFrequency": 123.252,
  "InPlanePhaseEncodingDirectionDICOM": "COL",
  "InstitutionAddress": "Maynard 3,Hanover,NH,US,03755",
  "InstitutionName": "Dartmouth College - PBS",
  "InstitutionalDepartmentName": "Department",
  "MRAcquisitionType": "2D",
  "MagneticFieldStrength": 3,
  "Manufacturer": "Siemens",
  "ManufacturersModelName": "Prisma",
  "MatrixCoilMode": "SENSE",
  "Modality": "MR",
  "NonlinearGradientCorrection": false,
  "PartialFourier": 1,
  "PatientPosition": "HFS",
  "PercentPhaseFOV": 100,
  "PercentSampling": 100,
  "PhaseEncodingDirection": "j-",
  "PhaseEncodingSteps": 80,
  "PhaseResolution": 1,
  "PixelBandwidth": 2315,
  "ProcedureStepDescription": "dbic^QA",
  "ProtocolName": "func-bold_fa-77",
  "PulseSequenceDetails": "%SiemensSeq%\\ep2d_bold",
  "ReceiveCoilActiveElements": "HC1-7;NC1,2",
  "ReceiveCoilName": "HeadNeck_64",
  "ReconMatrixPE": 80,
  "RepetitionTime": 2,
  "SAR": 0.0282594,
  "ScanOptions": "FS",
  "ScanningSequence": "EP",
  "SequenceName": "*epfid2d1_80",
  "SequenceVariant": "SK",
  "SeriesDescription": "func-bold_fa-77",
  "SeriesNumber": 7,
  "ShimSetting": [4138, -7699, -7508, 210, -75, -211, -26, 88],
  "SliceThickness": 3.5,
  "SliceTiming": [0.99, 0, 1.0575, 0.0675, 1.1225, 0.1325, 1.19, 0.2, 1.255, 0.265, 1.32, 0.33, 1.3875, 0.3975, 1.4525, 0.4625, 1.52, 0.53, 1.585, 0.595, 1.65, 0.66, 1.7175, 0.7275, 1.7825, 0.7925, 1.85, 0.86, 1.915, 0.925],
  "SoftwareVersions": "syngo MR E11",
  "SpacingBetweenSlices": 3.99,
  "StationName": "AWP66112",
  "TotalReadoutTime": 0.0395,
  "TxRefAmp": 212.286,
  "dcmmeta_affine": [
    [-2.966381072998047, -0.43169090151786804, -0.1586313098669052, 138.06117248535156],
    [-0.4472118616104126, 2.811967372894287, 1.2567203044891357, -95.95365905761719],
    [0.024172605946660042, -0.9520936012268066, 3.783594846725464, -13.671119689941406],
    [0.0, 0.0, 0.0, 1.0]
],
  "dcmmeta_reorient_transform": [
    [0.0, -1.0, 0.0, 79.0],
    [1.0, 0.0, 0.0, 0.0],
    [0.0, 0.0, 1.0, 0.0],
    [0.0, 0.0, 0.0, 1.0]
],
  "dcmmeta_shape": [80, 80, 30, 200],
  "dcmmeta_slice_dim": 2,
  "dcmmeta_version": 0.6,
  "global": {
    "const": {
      "AccessionNumber": "qa64",
      "AcquisitionMatrix": [80, 0, 0, 80],
      "AngioFlag": "N",
      "BitsAllocated": 16,
      "BitsStored": 12,
      "BodyPartExamined": "BRAIN",
      "Columns": 480,
      "EchoNumbers": 1,
      "EchoTime": 30.0,
      "EchoTrainLength": 80,
      "FlipAngle": 77.0,
      "HighBit": 11,
      "ImageOrientationPatient": [0.98879372231332, 0.14907062365856, 0.00805753534443, -0.1438969709792, 0.93732247337483, 0.31736452645108],
      "ImagePositionPatient": [-610.89563538303, -778.02762817642, -284.13974951352],
      "ImageType": [
        "ORIGINAL",
        "PRIMARY",
        "M",
        "ND",
        "NORM",
        "MOSAIC"
],
      "ImagedNucleus": "1H",
      "ImagingFrequency": 123.252352,
      "InPlanePhaseEncodingDirection": "COL",
      "MRAcquisitionType": "2D",
      "MagneticFieldStrength": 3.0,
      "Manufacturer": "SIEMENS",
      "ManufacturerModelName": "Prisma",
      "Modality": "MR",
      "NumberOfAverages": 1.0,
      "NumberOfPhaseEncodingSteps": 80,
      "PercentPhaseFieldOfView": 100.0,
      "PercentSampling": 100.0,
      "PerformedProcedureStepStartTime": "123430.629000",
      "PhotometricInterpretation": "MONOCHROME2",
      "PixelBandwidth": 2315.0,
      "PixelRepresentation": 0,
      "PixelSpacing": [3.0, 3.0],
      "ProtocolName": "func-bold_fa-77",
      "RepetitionTime": 2000.0,
      "Rows": 480,
      "SAR": 0.02825943018677,
      "SamplesPerPixel": 1,
      "ScanOptions": "FS",
      "ScanningSequence": "EP",
      "SequenceName": "*epfid2d1_80",
      "SequenceVariant": "SK",
      "SeriesDescription": "func-bold_fa-77",
      "SeriesNumber": 7,
      "SeriesTime": "124347.650000",
      "SliceLocation": -48.675116150094,
      "SliceThickness": 3.5,
      "SmallestImagePixelValue": 0,
      "SoftwareVersions": "syngo MR E11",
      "SpacingBetweenSlices": 3.9900000018808,
      "SpecificCharacterSet": "ISO_IR 100",
      "StudyID": "1",
      "StudyTime": "123430.556000",
      "TransmitCoilName": "Body",
      "VariableFlipAngleFlag": "N",
      "WindowCenterWidthExplanation": "Algo1",
      "dBdt": 0.0},
    "slices": {}
  },
  "time": {
    "samples": {
      "AcquisitionNumber": [1, 2, 3, 4, 5, 6, 7, 8, 9, 10, 11, 12, 13, 14, 15, 16, 17, 18, 19, 20, 21, 22, 23, 24, 25, 26, 27, 28, 29, 30, 31, 32, 33, 34, 35, 36, 37, 38, 39, 40, 41, 42, 43, 44, 45, 46, 47, 48, 49, 50, 51, 52, 53, 54, 55, 56, 57, 58, 59, 60, 61, 62, 63, 64, 65, 66, 67, 68, 69, 70, 71, 72, 73, 74, 75, 76, 77, 78, 79, 80, 81, 82, 83, 84, 85, 86, 87, 88, 89, 90, 91, 92, 93, 94, 95, 96, 97, 98, 99, 100, 101, 102, 103, 104, 105, 106, 107, 108, 109, 110, 111, 112, 113, 114, 115, 116, 117, 118, 119, 120, 121, 122, 123, 124, 125, 126, 127, 128, 129, 130, 131, 132, 133, 134, 135, 136, 137, 138, 139, 140, 141, 142, 143, 144, 145, 146, 147, 148, 149, 150, 151, 152, 153, 154, 155, 156, 157, 158, 159, 160, 161, 162, 163, 164, 165, 166, 167, 168, 169, 170, 171, 172, 173, 174, 175, 176, 177, 178, 179, 180, 181, 182, 183, 184, 185, 186, 187, 188, 189, 190, 191, 192, 193, 194, 195, 196, 197, 198, 199, 200],
      "AcquisitionTime": ["124303.540000", "124305.540000", "124307.540000", "124309.540000", "124311.540000", "124313.540000", "124315.540000", "124317.540000", "124319.540000", "124321.540000", "124323.540000", "124325.540000", "124327.540000", "124329.540000", "124331.540000", "124333.540000", "124335.540000", "124337.540000", "124339.540000", "124341.540000", "124343.540000", "124345.540000", "124347.540000", "124349.540000", "124351.540000", "124353.540000", "124355.540000", "124357.540000", "124359.540000", "124401.540000", "124403.540000", "124405.540000", "124407.540000", "124409.540000", "124411.540000", "124413.540000", "124415.540000", "124417.540000", "124419.540000", "124421.540000", "124423.540000", "124425.540000", "124427.540000", "124429.540000", "124431.540000", "124433.540000", "124435.540000", "124437.540000", "124439.540000", "124441.540000", "124443.540000", "124445.540000", "124447.540000", "124449.540000", "124451.540000", "124453.540000", "124455.540000", "124457.540000", "124459.540000", "124501.540000", "124503.540000", "124505.540000", "124507.540000", "124509.540000", "124511.540000", "124513.540000", "124515.540000", "124517.540000", "124519.540000", "124521.540000", "124523.540000", "124525.540000", "124527.540000", "124529.540000", "124531.540000", "124533.540000", "124535.540000", "124537.540000", "124539.540000", "124541.540000", "124543.540000", "124545.540000", "124547.540000", "124549.540000", "124551.540000", "124553.540000", "124555.540000", "124557.540000", "124559.540000", "124601.540000", "124603.540000", "124605.540000", "124607.540000", "124609.540000", "124611.540000", "124613.540000", "124615.540000", "124617.540000", "124619.540000", "124621.540000", "124623.540000", "124625.540000", "124627.540000", "124629.540000", "124631.540000", "124633.540000", "124635.540000", "124637.540000", "124639.540000", "124641.540000", "124643.540000", "124645.540000", "124647.540000", "124649.540000", "124651.540000", "124653.540000", "124655.540000", "124657.540000", "124659.540000", "124701.540000", "124703.540000", "124705.540000", "124707.540000", "124709.540000", "124711.540000", "124713.540000", "124715.540000", "124717.540000", "124719.540000", "124721.540000", "124723.540000", "124725.540000", "124727.540000", "124729.540000", "124731.540000", "124733.540000", "124735.540000", "124737.540000", "124739.540000", "124741.540000", "124743.540000", "124745.540000", "124747.540000", "124749.540000", "124751.540000", "124753.540000", "124755.540000", "124757.540000", "124759.540000", "124801.540000", "124803.540000", "124805.540000", "124807.540000", "124809.540000", "124811.540000", "124813.540000", "124815.540000", "124817.540000", "124819.540000", "124821.540000", "124823.540000", "124825.540000", "124827.540000", "124829.540000", "124831.540000", "124833.540000", "124835.540000", "124837.540000", "124839.540000", "124841.540000", "124843.540000", "124845.540000", "124847.540000", "124849.540000", "124851.540000", "124853.540000", "124855.540000", "124857.540000", "124859.540000", "124901.540000", "124903.540000", "124905.540000", "124907.540000", "124909.540000", "124911.540000", "124913.540000", "124915.540000", "124917.540000", "124919.540000", "124921.540000", "124923.540000", "124925.540000", "124927.540000", "124929.540000", "124931.540000", "124933.540000", "124935.540000", "124937.540000", "124939.540000", "124941.540000"],
      "ContentTime": ["124347.653000", "124347.657000", "124347.659000", "124347.662000", "124347.664000", "124347.667000", "124347.669000", "124347.672000", "124347.674000", "124347.677000", "124347.679000", "124347.682000", "124347.691000", "124347.693000", "124347.696000", "124347.698000", "124347.701000", "124347.703000", "124347.706000", "124347.708000", "124347.711000", "124347.714000", "124427.648000", "124427.651000", "124427.654000", "124427.656000", "124427.659000", "124427.661000", "124427.664000", "124427.666000", "124427.669000", "124427.671000", "124427.674000", "124427.676000", "124427.679000", "124427.681000", "124427.684000", "124427.686000", "124427.689000", "124427.691000", "124427.694000", "124427.707000", "124507.650000", "124507.652000", "124507.655000", "124507.657000", "124507.660000", "124507.663000", "124507.665000", "124507.668000", "124507.670000", "124507.673000", "124507.675000", "124507.678000", "124507.680000", "124507.683000", "124507.685000", "124507.688000", "124507.690000", "124507.693000", "124507.695000", "124507.698000", "124547.649000", "124547.652000", "124547.655000", "124547.657000", "124547.660000", "124547.662000", "124547.665000", "124547.667000", "124547.670000", "124547.672000", "124547.675000", "124547.677000", "124547.680000", "124547.682000", "124547.685000", "124547.687000", "124547.690000", "124547.692000", "124547.695000", "124547.697000", "124627.648000", "124627.651000", "124627.654000", "124627.656000", "124627.659000", "124627.661000", "124627.664000", "124627.666000", "124627.669000", "124627.672000", "124627.674000", "124627.677000", "124627.679000", "124627.682000", "124627.684000", "124627.687000", "124627.689000", "124627.692000", "124627.694000", "124627.697000", "124707.650000", "124707.652000", "124707.655000", "124707.657000", "124707.660000", "124707.663000", "124707.665000", "124707.668000", "124707.670000", "124707.673000", "124707.676000", "124707.678000", "124707.681000", "124707.683000", "124707.686000", "124707.688000", "124707.691000", "124707.693000", "124707.696000", "124707.698000", "124747.650000", "124747.652000", "124747.655000", "124747.657000", "124747.660000", "124747.662000", "124747.665000", "124747.667000", "124747.670000", "124747.673000", "124747.675000", "124747.678000", "124747.680000", "124747.683000", "124747.685000", "124747.688000", "124747.690000", "124747.693000", "124747.695000", "124747.698000", "124827.648000", "124827.651000", "124827.654000", "124827.656000", "124827.659000", "124827.661000", "124827.664000", "124827.666000", "124827.669000", "124827.672000", "124827.674000", "124827.677000", "124827.679000", "124827.682000", "124827.684000", "124827.687000", "124827.689000", "124827.692000", "124827.694000", "124827.697000", "124907.648000", "124907.651000", "124907.654000", "124907.656000", "124907.659000", "124907.661000", "124907.664000", "124907.666000", "124907.669000", "124907.671000", "124907.674000", "124907.676000", "124907.679000", "124907.682000", "124907.684000", "124907.687000", "124907.689000", "124907.693000", "124907.695000", "124907.698000", "124942.818000", "124942.821000", "124942.824000", "124942.826000", "124942.829000", "124942.831000", "124942.834000", "124942.836000", "124942.839000", "124942.841000", "124942.844000", "124942.846000", "124942.851000", "124942.856000", "124942.860000", "124942.873000", "124942.877000", "124942.880000"],
      "InstanceCreationTime": ["124347.653000", "124347.657000", "124347.659000", "124347.662000", "124347.664000", "124347.667000", "124347.669000", "124347.672000", "124347.674000", "124347.677000", "124347.679000", "124347.682000", "124347.691000", "124347.693000", "124347.696000", "124347.698000", "124347.701000", "124347.703000", "124347.706000", "124347.708000", "124347.711000", "124347.714000", "124427.648000", "124427.651000", "124427.654000", "124427.656000", "124427.659000", "124427.661000", "124427.664000", "124427.666000", "124427.669000", "124427.671000", "124427.674000", "124427.676000", "124427.679000", "124427.681000", "124427.684000", "124427.686000", "124427.689000", "124427.691000", "124427.694000", "124427.707000", "124507.650000", "124507.652000", "124507.655000", "124507.657000", "124507.660000", "124507.663000", "124507.665000", "124507.668000", "124507.670000", "124507.673000", "124507.675000", "124507.678000", "124507.680000", "124507.683000", "124507.685000", "124507.688000", "124507.690000", "124507.693000", "124507.695000", "124507.698000", "124547.649000", "124547.652000", "124547.655000", "124547.657000", "124547.660000", "124547.662000", "124547.665000", "124547.667000", "124547.670000", "124547.672000", "124547.675000", "124547.677000", "124547.680000", "124547.682000", "124547.685000", "124547.687000", "124547.690000", "124547.692000", "124547.695000", "124547.697000", "124627.648000", "124627.651000", "124627.654000", "124627.656000", "124627.659000", "124627.661000", "124627.664000", "124627.666000", "124627.669000", "124627.672000", "124627.674000", "124627.677000", "124627.679000", "124627.682000", "124627.684000", "124627.687000", "124627.689000", "124627.692000", "124627.694000", "124627.697000", "124707.650000", "124707.652000", "124707.655000", "124707.657000", "124707.660000", "124707.663000", "124707.665000", "124707.668000", "124707.670000", "124707.673000", "124707.676000", "124707.678000", "124707.681000", "124707.683000", "124707.686000", "124707.688000", "124707.691000", "124707.693000", "124707.696000", "124707.698000", "124747.650000", "124747.652000", "124747.655000", "124747.657000", "124747.660000", "124747.662000", "124747.665000", "124747.667000", "124747.670000", "124747.673000", "124747.675000", "124747.678000", "124747.680000", "124747.683000", "124747.685000", "124747.688000", "124747.690000", "124747.693000", "124747.695000", "124747.698000", "124827.648000", "124827.651000", "124827.654000", "124827.656000", "124827.659000", "124827.661000", "124827.664000", "124827.666000", "124827.669000", "124827.672000", "124827.674000", "124827.677000", "124827.679000", "124827.682000", "124827.684000", "124827.687000", "124827.689000", "124827.692000", "124827.694000", "124827.697000", "124907.648000", "124907.651000", "124907.654000", "124907.656000", "124907.659000", "124907.661000", "124907.664000", "124907.666000", "124907.669000", "124907.671000", "124907.674000", "124907.676000", "124907.679000", "124907.682000", "124907.684000", "124907.687000", "124907.689000", "124907.693000", "124907.695000", "124907.698000", "124942.818000", "124942.821000", "124942.824000", "124942.826000", "124942.829000", "124942.831000", "124942.834000", "124942.836000", "124942.839000", "124942.841000", "124942.844000", "124942.846000", "124942.851000", "124942.856000", "124942.860000", "124942.873000", "124942.877000", "124942.880000"],
      "InstanceNumber": [1, 2, 3, 4, 5, 6, 7, 8, 9, 10, 11, 12, 13, 14, 15, 16, 17, 18, 19, 20, 21, 22, 23, 24, 25, 26, 27, 28, 29, 30, 31, 32, 33, 34, 35, 36, 37, 38, 39, 40, 41, 42, 43, 44, 45, 46, 47, 48, 49, 50, 51, 52, 53, 54, 55, 56, 57, 58, 59, 60, 61, 62, 63, 64, 65, 66, 67, 68, 69, 70, 71, 72, 73, 74, 75, 76, 77, 78, 79, 80, 81, 82, 83, 84, 85, 86, 87, 88, 89, 90, 91, 92, 93, 94, 95, 96, 97, 98, 99, 100, 101, 102, 103, 104, 105, 106, 107, 108, 109, 110, 111, 112, 113, 114, 115, 116, 117, 118, 119, 120, 121, 122, 123, 124, 125, 126, 127, 128, 129, 130, 131, 132, 133, 134, 135, 136, 137, 138, 139, 140, 141, 142, 143, 144, 145, 146, 147, 148, 149, 150, 151, 152, 153, 154, 155, 156, 157, 158, 159, 160, 161, 162, 163, 164, 165, 166, 167, 168, 169, 170, 171, 172, 173, 174, 175, 176, 177, 178, 179, 180, 181, 182, 183, 184, 185, 186, 187, 188, 189, 190, 191, 192, 193, 194, 195, 196, 197, 198, 199, 200],
      "LargestImagePixelValue": [3978, 3978, 3980, 3982, 3978, 3979, 3977, 3980, 3978, 3983, 3981, 3983, 3981, 3980, 3980, 3980, 3983, 3978, 3982, 3984, 3977, 3977, 3980, 3979, 3979, 3979, 3978, 3976, 3983, 3979, 3981, 3978, 3977, 3980, 3980, 3979, 3977, 3977, 3978, 3977, 3981, 3979, 3976, 3980, 3975, 3978, 3974, 3976, 3975, 3981, 3978, 3979, 3979, 3978, 3977, 3978, 3978, 3976, 3977, 3978, 3980, 3977, 3976, 3979, 3979, 3977, 3978, 3978, 3976, 3977, 3977, 3979, 3973, 3979, 3976, 3975, 3976, 3977, 3977, 3974, 3975, 3978, 3978, 3974, 3979, 3979, 3977, 3980, 3980, 3977, 3976, 3976, 3978, 3978, 3981, 3977, 3978, 3977, 3977, 3976, 3976, 3976, 3978, 3975, 3974, 3977, 3976, 3976, 3979, 3978, 3976, 3977, 3977, 3977, 3977, 3971, 3976, 3976, 3976, 3974, 3979, 3977, 3978, 3977, 3974, 3977, 3976, 3976, 3976, 3971, 3979, 3979, 3979, 3980, 3978, 3979, 3977, 3979, 3977, 3976, 3975, 3979, 3977, 3981, 3980, 3976, 3977, 3976, 3974, 3978, 3975, 3975, 3975, 3980, 3978, 3977, 3978, 3979, 3976, 3978, 3976, 3974, 3974, 3974, 3979, 3977, 3975, 3972, 3975, 3976, 3973, 3976, 3977, 3972, 3974, 3970, 3969, 3974, 3974, 3974, 3971, 3973, 3973, 3975, 3976, 3976, 3974, 3973, 3972, 3978, 3972, 3972, 3973, 3975, 3971, 3973, 3976, 3973, 3972, 3976],
      "WindowCenter": [1394.0, 1393.0, 1394.0, 1393.0, 1393.0, 1394.0, 1393.0, 1393.0, 1393.0, 1393.0, 1394.0, 1394.0, 1393.0, 1393.0, 1393.0, 1393.0, 1393.0, 1393.0, 1393.0, 1393.0, 1392.0, 1393.0, 1393.0, 1393.0, 1393.0, 1392.0, 1393.0, 1392.0, 1392.0, 1392.0, 1392.0, 1392.0, 1393.0, 1393.0, 1393.0, 1392.0, 1393.0, 1392.0, 1392.0, 1392.0, 1392.0, 1392.0, 1392.0, 1391.0, 1392.0, 1391.0, 1392.0, 1392.0, 1391.0, 1391.0, 1391.0, 1391.0, 1391.0, 1391.0, 1392.0, 1391.0, 1391.0, 1392.0, 1392.0, 1391.0, 1391.0, 1392.0, 1391.0, 1391.0, 1391.0, 1391.0, 1390.0, 1391.0, 1391.0, 1391.0, 1391.0, 1391.0, 1390.0, 1390.0, 1390.0, 1390.0, 1390.0, 1391.0, 1390.0, 1390.0, 1391.0, 1390.0, 1390.0, 1390.0, 1390.0, 1390.0, 1390.0, 1390.0, 1390.0, 1390.0, 1390.0, 1390.0, 1390.0, 1390.0, 1390.0, 1390.0, 1389.0, 1390.0, 1390.0, 1390.0, 1389.0, 1390.0, 1390.0, 1389.0, 1389.0, 1390.0, 1389.0, 1389.0, 1389.0, 1390.0, 1389.0, 1389.0, 1389.0, 1389.0, 1390.0, 1389.0, 1389.0, 1389.0, 1389.0, 1389.0, 1389.0, 1389.0, 1389.0, 1389.0, 1389.0, 1388.0, 1389.0, 1388.0, 1388.0, 1389.0, 1389.0, 1389.0, 1389.0, 1388.0, 1389.0, 1389.0, 1388.0, 1389.0, 1388.0, 1388.0, 1388.0, 1388.0, 1388.0, 1389.0, 1388.0, 1388.0, 1388.0, 1389.0, 1388.0, 1389.0, 1389.0, 1389.0, 1389.0, 1389.0, 1388.0, 1388.0, 1388.0, 1388.0, 1388.0, 1388.0, 1388.0, 1388.0, 1387.0, 1388.0, 1388.0, 1387.0, 1387.0, 1388.0, 1387.0, 1387.0, 1387.0, 1387.0, 1387.0, 1388.0, 1388.0, 1387.0, 1388.0, 1388.0, 1387.0, 1387.0, 1387.0, 1387.0, 1387.0, 1387.0, 1387.0, 1387.0, 1387.0, 1387.0, 1387.0, 1387.0, 1387.0, 1387.0, 1387.0, 1387.0, 1387.0, 1387.0, 1387.0, 1387.0, 1387.0, 1387.0],
      "WindowWidth": [3305.0, 3305.0, 3305.0, 3304.0, 3305.0, 3304.0, 3304.0, 3304.0, 3304.0, 3304.0, 3305.0, 3305.0, 3304.0, 3304.0, 3305.0, 3304.0, 3304.0, 3304.0, 3304.0, 3304.0, 3304.0, 3304.0, 3304.0, 3304.0, 3304.0, 3304.0, 3304.0, 3304.0, 3304.0, 3303.0, 3303.0, 3303.0, 3303.0, 3303.0, 3303.0, 3303.0, 3303.0, 3303.0, 3303.0, 3303.0, 3303.0, 3303.0, 3303.0, 3303.0, 3303.0, 3303.0, 3302.0, 3302.0, 3303.0, 3302.0, 3303.0, 3302.0, 3303.0, 3302.0, 3303.0, 3302.0, 3302.0, 3302.0, 3302.0, 3302.0, 3302.0, 3302.0, 3302.0, 3302.0, 3302.0, 3302.0, 3302.0, 3302.0, 3302.0, 3302.0, 3302.0, 3302.0, 3302.0, 3302.0, 3302.0, 3302.0, 3302.0, 3302.0, 3302.0, 3302.0, 3302.0, 3302.0, 3302.0, 3302.0, 3302.0, 3302.0, 3302.0, 3302.0, 3302.0, 3301.0, 3301.0, 3301.0, 3301.0, 3302.0, 3301.0, 3301.0, 3301.0, 3301.0, 3301.0, 3301.0, 3301.0, 3301.0, 3301.0, 3301.0, 3301.0, 3300.0, 3301.0, 3301.0, 3301.0, 3300.0, 3301.0, 3301.0, 3300.0, 3300.0, 3300.0, 3300.0, 3300.0, 3300.0, 3300.0, 3300.0, 3300.0, 3300.0, 3300.0, 3300.0, 3300.0, 3300.0, 3299.0, 3300.0, 3300.0, 3299.0, 3299.0, 3299.0, 3299.0, 3300.0, 3299.0, 3299.0, 3300.0, 3299.0, 3300.0, 3299.0, 3299.0, 3299.0, 3299.0, 3299.0, 3300.0, 3300.0, 3300.0, 3299.0, 3300.0, 3299.0, 3299.0, 3299.0, 3299.0, 3299.0, 3299.0, 3299.0, 3299.0, 3299.0, 3298.0, 3298.0, 3298.0, 3298.0, 3299.0, 3298.0, 3298.0, 3298.0, 3298.0, 3298.0, 3298.0, 3298.0, 3298.0, 3298.0, 3298.0, 3298.0, 3298.0, 3298.0, 3298.0, 3298.0, 3297.0, 3297.0, 3297.0, 3297.0, 3298.0, 3297.0, 3297.0, 3297.0, 3297.0, 3297.0, 3297.0, 3297.0, 3297.0, 3297.0, 3297.0, 3297.0, 3297.0, 3297.0, 3297.0, 3297.0, 3297.0, 3297.0]
    },
    "slices": {}
  }
}