{
  "AcquisitionMatrixPE": 80,
  "AcquisitionNumber": 1,
  "AcquisitionTime": "12:49:49.520000",
  "BandwidthPerPixelPhaseEncode": 25,
  "BaseResolution": 80,
  "BodyPartExamined": "BRAIN",
  "CoilCombinationMethod": "Sum of Squares",
  "ConsistencyInfo": "N4_VE11C_LATEST_20160120",
  "ConversionSoftware": "dcm2niix",
  "ConversionSoftwareVersion": "v1.0.20220720",
  "DerivedVendorReportedEchoSpacing": 0.0005,
  "DeviceSerialNumber": "66112",
  "DwellTime": 2.7e-06,
  "EchoTime": 0.03,
  "EchoTrainLength": 80,
  "EffectiveEchoSpacing": 0.0005,
  "FlipAngle": 10,
  "HeudiconvVersion": "0.13.1",
  "ImageOrientationPatientDICOM": [0.988794, 0.149071, 0.00805754, -0.143897, 0.937322, 0.317365],
  "ImageOrientationText": "Tra>Cor(18.4)>Sag(-2.3)",
  "ImageType": [
    "ORIGINAL",
    "PRIMARY",
    "M",
    "ND",
    "NORM",
    "MOSAIC"
],
  "ImagingFrequency": 123.252,
  "InPlanePhaseEncodingDirectionDICOM": "COL",
  "InstitutionAddress": "Maynard 3,Hanover,NH,US,03755",
  "InstitutionName": "Dartmouth College - PBS",
  "InstitutionalDepartmentName": "Department",
  "MRAcquisitionType": "2D",
  "MagneticFieldStrength": 3,
  "Manufacturer": "Siemens",
  "ManufacturersModelName": "Prisma",
  "MatrixCoilMode": "SENSE",
  "Modality": "MR",
  "NonlinearGradientCorrection": false,
  "PartialFourier": 1,
  "PatientPosition": "HFS",
  "PercentPhaseFOV": 100,
  "PercentSampling": 100,
  "PhaseEncodingDirection": "j-",
  "PhaseEncodingSteps": 80,
  "PhaseResolution": 1,
  "PixelBandwidth": 2315,
  "ProcedureStepDescription": "dbic^QA",
  "ProtocolName": "func-bold_fa-10",
  "PulseSequenceDetails": "%SiemensSeq%\\ep2d_bold",
  "ReceiveCoilActiveElements": "HC1-7;NC1,2",
  "ReceiveCoilName": "HeadNeck_64",
  "ReconMatrixPE": 80,
  "RepetitionTime": 2,
  "SAR": 0.00758057,
  "ScanOptions": "FS",
  "ScanningSequence": "EP",
  "SequenceName": "*epfid2d1_80",
  "SequenceVariant": "SK",
  "SeriesDescription": "func-bold_fa-10",
  "SeriesNumber": 9,
  "ShimSetting": [4138, -7699, -7508, 210, -75, -211, -26, 88],
  "SliceThickness": 3.5,
  "SliceTiming": [0.99, 0, 1.0575, 0.0675, 1.1225, 0.1325, 1.19, 0.2, 1.255, 0.265, 1.32, 0.33, 1.3875, 0.3975, 1.4525, 0.4625, 1.52, 0.53, 1.585, 0.595, 1.65, 0.66, 1.7175, 0.7275, 1.7825, 0.7925, 1.85, 0.86, 1.915, 0.925],
  "SoftwareVersions": "syngo MR E11",
  "SpacingBetweenSlices": 3.99,
  "StationName": "AWP66112",
  "TotalReadoutTime": 0.0395,
  "TxRefAmp": 212.286,
  "dcmmeta_affine": [
    [-2.966381072998047, -0.43169090151786804, -0.1586313098669052, 138.06117248535156],
    [-0.4472118616104126, 2.811967372894287, 1.2567203044891357, -95.95365905761719],
    [0.024172605946660042, -0.9520936012268066, 3.783594846725464, -13.671119689941406],
    [0.0, 0.0, 0.0, 1.0]
],
  "dcmmeta_reorient_transform": [
    [0.0, -1.0, 0.0, 79.0],
    [1.0, 0.0, 0.0, 0.0],
    [0.0, 0.0, 1.0, 0.0],
    [0.0, 0.0, 0.0, 1.0]
],
  "dcmmeta_shape": [80, 80, 30, 200],
  "dcmmeta_slice_dim": 2,
  "dcmmeta_version": 0.6,
  "global": {
    "const": {
      "AccessionNumber": "qa64",
      "AcquisitionMatrix": [80, 0, 0, 80],
      "AngioFlag": "N",
      "BitsAllocated": 16,
      "BitsStored": 12,
      "BodyPartExamined": "BRAIN",
      "Columns": 480,
      "EchoNumbers": 1,
      "EchoTime": 30.0,
      "EchoTrainLength": 80,
      "FlipAngle": 10.0,
      "HighBit": 11,
      "ImageOrientationPatient": [0.98879372231332, 0.14907062365856, 0.00805753534443, -0.1438969709792, 0.93732247337483, 0.31736452645108],
      "ImagePositionPatient": [-610.89563538303, -778.02762817642, -284.13974951352],
      "ImageType": [
        "ORIGINAL",
        "PRIMARY",
        "M",
        "ND",
        "NORM",
        "MOSAIC"
],
      "ImagedNucleus": "1H",
      "ImagingFrequency": 123.252358,
      "InPlanePhaseEncodingDirection": "COL",
      "MRAcquisitionType": "2D",
      "MagneticFieldStrength": 3.0,
      "Manufacturer": "SIEMENS",
      "ManufacturerModelName": "Prisma",
      "Modality": "MR",
      "NumberOfAverages": 1.0,
      "NumberOfPhaseEncodingSteps": 80,
      "PercentPhaseFieldOfView": 100.0,
      "PercentSampling": 100.0,
      "PerformedProcedureStepStartTime": "123430.629000",
      "PhotometricInterpretation": "MONOCHROME2",
      "PixelBandwidth": 2315.0,
      "PixelRepresentation": 0,
      "PixelSpacing": [3.0, 3.0],
      "ProtocolName": "func-bold_fa-10",
      "RepetitionTime": 2000.0,
      "Rows": 480,
      "SAR": 0.00758056704533,
      "SamplesPerPixel": 1,
      "ScanOptions": "FS",
      "ScanningSequence": "EP",
      "SequenceName": "*epfid2d1_80",
      "SequenceVariant": "SK",
      "SeriesDescription": "func-bold_fa-10",
      "SeriesNumber": 9,
      "SeriesTime": "125047.721000",
      "SliceLocation": -48.675116150094,
      "SliceThickness": 3.5,
      "SmallestImagePixelValue": 0,
      "SoftwareVersions": "syngo MR E11",
      "SpacingBetweenSlices": 3.9900000018808,
      "SpecificCharacterSet": "ISO_IR 100",
      "StudyID": "1",
      "StudyTime": "123430.556000",
      "TransmitCoilName": "Body",
      "VariableFlipAngleFlag": "N",
      "WindowCenterWidthExplanation": "Algo1",
      "dBdt": 0.0},
    "slices": {}
  },
  "time": {
    "samples": {
      "AcquisitionNumber": [1, 2, 3, 4, 5, 6, 7, 8, 9, 10, 11, 12, 13, 14, 15, 16, 17, 18, 19, 20, 21, 22, 23, 24, 25, 26, 27, 28, 29, 30, 31, 32, 33, 34, 35, 36, 37, 38, 39, 40, 41, 42, 43, 44, 45, 46, 47, 48, 49, 50, 51, 52, 53, 54, 55, 56, 57, 58, 59, 60, 61, 62, 63, 64, 65, 66, 67, 68, 69, 70, 71, 72, 73, 74, 75, 76, 77, 78, 79, 80, 81, 82, 83, 84, 85, 86, 87, 88, 89, 90, 91, 92, 93, 94, 95, 96, 97, 98, 99, 100, 101, 102, 103, 104, 105, 106, 107, 108, 109, 110, 111, 112, 113, 114, 115, 116, 117, 118, 119, 120, 121, 122, 123, 124, 125, 126, 127, 128, 129, 130, 131, 132, 133, 134, 135, 136, 137, 138, 139, 140, 141, 142, 143, 144, 145, 146, 147, 148, 149, 150, 151, 152, 153, 154, 155, 156, 157, 158, 159, 160, 161, 162, 163, 164, 165, 166, 167, 168, 169, 170, 171, 172, 173, 174, 175, 176, 177, 178, 179, 180, 181, 182, 183, 184, 185, 186, 187, 188, 189, 190, 191, 192, 193, 194, 195, 196, 197, 198, 199, 200],
      "AcquisitionTime": ["124949.520000", "124951.520000", "124953.520000", "124955.520000", "124957.520000", "124959.520000", "125001.520000", "125003.520000", "125005.520000", "125007.520000", "125009.520000", "125011.520000", "125013.520000", "125015.520000", "125017.520000", "125019.520000", "125021.520000", "125023.520000", "125025.520000", "125027.520000", "125029.520000", "125031.520000", "125033.520000", "125035.520000", "125037.520000", "125039.520000", "125041.520000", "125043.520000", "125045.520000", "125047.520000", "125049.520000", "125051.520000", "125053.520000", "125055.520000", "125057.520000", "125059.520000", "125101.520000", "125103.520000", "125105.520000", "125107.520000", "125109.520000", "125111.520000", "125113.520000", "125115.520000", "125117.520000", "125119.520000", "125121.520000", "125123.520000", "125125.520000", "125127.520000", "125129.520000", "125131.520000", "125133.520000", "125135.520000", "125137.520000", "125139.520000", "125141.520000", "125143.520000", "125145.520000", "125147.520000", "125149.520000", "125151.520000", "125153.520000", "125155.520000", "125157.520000", "125159.520000", "125201.520000", "125203.520000", "125205.520000", "125207.520000", "125209.520000", "125211.520000", "125213.520000", "125215.520000", "125217.520000", "125219.520000", "125221.520000", "125223.520000", "125225.520000", "125227.520000", "125229.520000", "125231.520000", "125233.520000", "125235.520000", "125237.520000", "125239.520000", "125241.520000", "125243.520000", "125245.520000", "125247.520000", "125249.520000", "125251.520000", "125253.520000", "125255.520000", "125257.520000", "125259.520000", "125301.520000", "125303.520000", "125305.520000", "125307.520000", "125309.520000", "125311.520000", "125313.520000", "125315.520000", "125317.520000", "125319.520000", "125321.520000", "125323.520000", "125325.520000", "125327.520000", "125329.520000", "125331.520000", "125333.520000", "125335.520000", "125337.520000", "125339.520000", "125341.520000", "125343.520000", "125345.520000", "125347.520000", "125349.520000", "125351.520000", "125353.520000", "125355.520000", "125357.520000", "125359.520000", "125401.520000", "125403.520000", "125405.520000", "125407.520000", "125409.520000", "125411.520000", "125413.520000", "125415.520000", "125417.520000", "125419.520000", "125421.520000", "125423.520000", "125425.520000", "125427.520000", "125429.520000", "125431.520000", "125433.520000", "125435.520000", "125437.520000", "125439.520000", "125441.520000", "125443.520000", "125445.520000", "125447.520000", "125449.520000", "125451.520000", "125453.520000", "125455.520000", "125457.520000", "125459.520000", "125501.520000", "125503.520000", "125505.520000", "125507.520000", "125509.520000", "125511.520000", "125513.520000", "125515.520000", "125517.520000", "125519.520000", "125521.520000", "125523.520000", "125525.520000", "125527.520000", "125529.520000", "125531.520000", "125533.520000", "125535.520000", "125537.520000", "125539.520000", "125541.520000", "125543.520000", "125545.520000", "125547.520000", "125549.520000", "125551.520000", "125553.520000", "125555.520000", "125557.520000", "125559.520000", "125601.520000", "125603.520000", "125605.520000", "125607.520000", "125609.520000", "125611.520000", "125613.520000", "125615.520000", "125617.520000", "125619.520000", "125621.520000", "125623.520000", "125625.520000", "125627.520000"],
      "ContentTime": ["125047.724000", "125047.728000", "125047.730000", "125047.733000", "125047.735000", "125047.738000", "125047.740000", "125047.743000", "125047.745000", "125047.748000", "125047.750000", "125047.753000", "125047.755000", "125047.758000", "125047.760000", "125047.763000", "125047.770000", "125047.773000", "125047.775000", "125047.778000", "125047.780000", "125047.783000", "125047.785000", "125047.788000", "125047.790000", "125047.793000", "125047.795000", "125047.798000", "125047.801000", "125127.720000", "125127.723000", "125127.726000", "125127.728000", "125127.731000", "125127.733000", "125127.736000", "125127.738000", "125127.741000", "125127.744000", "125127.746000", "125127.748000", "125127.757000", "125127.759000", "125127.762000", "125127.764000", "125127.767000", "125127.769000", "125127.772000", "125127.774000", "125207.720000", "125207.723000", "125207.726000", "125207.728000", "125207.731000", "125207.733000", "125207.736000", "125207.738000", "125207.741000", "125207.743000", "125207.746000", "125207.748000", "125207.751000", "125207.753000", "125207.756000", "125207.759000", "125207.761000", "125207.764000", "125207.766000", "125207.769000", "125247.720000", "125247.723000", "125247.726000", "125247.728000", "125247.731000", "125247.733000", "125247.736000", "125247.738000", "125247.741000", "125247.743000", "125247.746000", "125247.748000", "125247.751000", "125247.753000", "125247.756000", "125247.758000", "125247.761000", "125247.763000", "125247.766000", "125247.768000", "125327.719000", "125327.722000", "125327.725000", "125327.727000", "125327.730000", "125327.732000", "125327.735000", "125327.737000", "125327.740000", "125327.742000", "125327.745000", "125327.747000", "125327.750000", "125327.753000", "125327.755000", "125327.758000", "125327.760000", "125327.763000", "125327.765000", "125327.768000", "125407.720000", "125407.723000", "125407.726000", "125407.728000", "125407.731000", "125407.733000", "125407.736000", "125407.738000", "125407.741000", "125407.744000", "125407.746000", "125407.749000", "125407.751000", "125407.754000", "125407.756000", "125407.758000", "125407.761000", "125407.764000", "125407.766000", "125407.769000", "125447.720000", "125447.723000", "125447.726000", "125447.728000", "125447.731000", "125447.733000", "125447.736000", "125447.738000", "125447.741000", "125447.743000", "125447.746000", "125447.748000", "125447.751000", "125447.753000", "125447.756000", "125447.758000", "125447.761000", "125447.763000", "125447.766000", "125447.768000", "125527.719000", "125527.722000", "125527.725000", "125527.727000", "125527.730000", "125527.732000", "125527.735000", "125527.738000", "125527.740000", "125527.743000", "125527.745000", "125527.748000", "125527.750000", "125527.753000", "125527.755000", "125527.758000", "125527.760000", "125527.763000", "125527.765000", "125527.768000", "125607.720000", "125607.723000", "125607.726000", "125607.728000", "125607.731000", "125607.733000", "125607.736000", "125607.738000", "125607.741000", "125607.743000", "125607.746000", "125607.749000", "125607.751000", "125607.754000", "125607.756000", "125607.758000", "125607.761000", "125607.764000", "125607.766000", "125607.769000", "125629.318000", "125629.321000", "125629.323000", "125629.326000", "125629.328000", "125629.331000", "125629.334000", "125629.336000", "125629.339000", "125629.341000", "125629.344000"],
      "InstanceCreationTime": ["125047.724000", "125047.728000", "125047.730000", "125047.733000", "125047.735000", "125047.738000", "125047.740000", "125047.743000", "125047.745000", "125047.748000", "125047.750000", "125047.753000", "125047.755000", "125047.758000", "125047.760000", "125047.763000", "125047.770000", "125047.773000", "125047.775000", "125047.778000", "125047.780000", "125047.783000", "125047.785000", "125047.788000", "125047.790000", "125047.793000", "125047.795000", "125047.798000", "125047.801000", "125127.720000", "125127.723000", "125127.726000", "125127.728000", "125127.731000", "125127.733000", "125127.736000", "125127.738000", "125127.741000", "125127.744000", "125127.746000", "125127.748000", "125127.757000", "125127.759000", "125127.762000", "125127.764000", "125127.767000", "125127.769000", "125127.772000", "125127.774000", "125207.720000", "125207.723000", "125207.726000", "125207.728000", "125207.731000", "125207.733000", "125207.736000", "125207.738000", "125207.741000", "125207.743000", "125207.746000", "125207.748000", "125207.751000", "125207.753000", "125207.756000", "125207.759000", "125207.761000", "125207.764000", "125207.766000", "125207.769000", "125247.720000", "125247.723000", "125247.726000", "125247.728000", "125247.731000", "125247.733000", "125247.736000", "125247.738000", "125247.741000", "125247.743000", "125247.746000", "125247.748000", "125247.751000", "125247.753000", "125247.756000", "125247.758000", "125247.761000", "125247.763000", "125247.766000", "125247.768000", "125327.719000", "125327.722000", "125327.725000", "125327.727000", "125327.730000", "125327.732000", "125327.735000", "125327.737000", "125327.740000", "125327.742000", "125327.745000", "125327.747000", "125327.750000", "125327.753000", "125327.755000", "125327.758000", "125327.760000", "125327.763000", "125327.765000", "125327.768000", "125407.720000", "125407.723000", "125407.726000", "125407.728000", "125407.731000", "125407.733000", "125407.736000", "125407.738000", "125407.741000", "125407.744000", "125407.746000", "125407.749000", "125407.751000", "125407.754000", "125407.756000", "125407.758000", "125407.761000", "125407.764000", "125407.766000", "125407.769000", "125447.720000", "125447.723000", "125447.726000", "125447.728000", "125447.731000", "125447.733000", "125447.736000", "125447.738000", "125447.741000", "125447.743000", "125447.746000", "125447.748000", "125447.751000", "125447.753000", "125447.756000", "125447.758000", "125447.761000", "125447.763000", "125447.766000", "125447.768000", "125527.719000", "125527.722000", "125527.725000", "125527.727000", "125527.730000", "125527.732000", "125527.735000", "125527.738000", "125527.740000", "125527.743000", "125527.745000", "125527.748000", "125527.750000", "125527.753000", "125527.755000", "125527.758000", "125527.760000", "125527.763000", "125527.765000", "125527.768000", "125607.720000", "125607.723000", "125607.726000", "125607.728000", "125607.731000", "125607.733000", "125607.736000", "125607.738000", "125607.741000", "125607.743000", "125607.746000", "125607.749000", "125607.751000", "125607.754000", "125607.756000", "125607.758000", "125607.761000", "125607.764000", "125607.766000", "125607.769000", "125629.318000", "125629.321000", "125629.323000", "125629.326000", "125629.328000", "125629.331000", "125629.334000", "125629.336000", "125629.339000", "125629.341000", "125629.344000"],
      "InstanceNumber": [1, 2, 3, 4, 5, 6, 7, 8, 9, 10, 11, 12, 13, 14, 15, 16, 17, 18, 19, 20, 21, 22, 23, 24, 25, 26, 27, 28, 29, 30, 31, 32, 33, 34, 35, 36, 37, 38, 39, 40, 41, 42, 43, 44, 45, 46, 47, 48, 49, 50, 51, 52, 53, 54, 55, 56, 57, 58, 59, 60, 61, 62, 63, 64, 65, 66, 67, 68, 69, 70, 71, 72, 73, 74, 75, 76, 77, 78, 79, 80, 81, 82, 83, 84, 85, 86, 87, 88, 89, 90, 91, 92, 93, 94, 95, 96, 97, 98, 99, 100, 101, 102, 103, 104, 105, 106, 107, 108, 109, 110, 111, 112, 113, 114, 115, 116, 117, 118, 119, 120, 121, 122, 123, 124, 125, 126, 127, 128, 129, 130, 131, 132, 133, 134, 135, 136, 137, 138, 139, 140, 141, 142, 143, 144, 145, 146, 147, 148, 149, 150, 151, 152, 153, 154, 155, 156, 157, 158, 159, 160, 161, 162, 163, 164, 165, 166, 167, 168, 169, 170, 171, 172, 173, 174, 175, 176, 177, 178, 179, 180, 181, 182, 183, 184, 185, 186, 187, 188, 189, 190, 191, 192, 193, 194, 195, 196, 197, 198, 199, 200],
      "LargestImagePixelValue": [676, 673, 672, 676, 672, 675, 674, 674, 675, 672, 674, 669, 671, 673, 672, 672, 676, 675, 678, 676, 673, 674, 673, 675, 672, 672, 673, 677, 672, 672, 674, 675, 673, 673, 672, 674, 675, 673, 675, 674, 672, 674, 671, 674, 675, 673, 674, 673, 677, 674, 673, 671, 673, 672, 675, 676, 674, 673, 673, 670, 671, 676, 674, 673, 675, 672, 671, 672, 672, 676, 676, 671, 675, 671, 677, 674, 672, 672, 673, 673, 672, 674, 670, 672, 674, 671, 672, 670, 676, 672, 672, 676, 674, 673, 674, 679, 673, 671, 671, 672, 675, 668, 671, 671, 674, 673, 677, 671, 673, 673, 672, 675, 672, 673, 674, 671, 673, 673, 674, 672, 673, 674, 675, 673, 670, 673, 675, 672, 673, 673, 673, 673, 672, 671, 674, 670, 671, 670, 673, 672, 671, 673, 672, 675, 674, 672, 673, 671, 676, 674, 675, 673, 672, 675, 672, 673, 673, 674, 671, 673, 670, 672, 673, 670, 671, 673, 676, 674, 673, 669, 673, 671, 673, 670, 672, 671, 669, 668, 672, 674, 669, 673, 673, 673, 670, 674, 672, 671, 669, 670, 673, 676, 673, 671, 672, 671, 671, 675, 668, 670],
      "WindowCenter": [456.0, 456.0, 456.0, 456.0, 456.0, 456.0, 455.0, 455.0, 456.0, 455.0, 456.0, 454.0, 455.0, 455.0, 455.0, 455.0, 455.0, 455.0, 455.0, 455.0, 455.0, 455.0, 455.0, 455.0, 455.0, 455.0, 455.0, 455.0, 455.0, 455.0, 455.0, 455.0, 455.0, 455.0, 455.0, 455.0, 455.0, 455.0, 455.0, 455.0, 455.0, 455.0, 455.0, 455.0, 455.0, 455.0, 455.0, 455.0, 455.0, 455.0, 455.0, 455.0, 455.0, 455.0, 455.0, 454.0, 455.0, 455.0, 455.0, 455.0, 455.0, 455.0, 454.0, 455.0, 455.0, 455.0, 455.0, 455.0, 455.0, 455.0, 455.0, 455.0, 455.0, 455.0, 455.0, 455.0, 455.0, 455.0, 455.0, 455.0, 455.0, 455.0, 455.0, 455.0, 455.0, 455.0, 455.0, 455.0, 455.0, 455.0, 454.0, 455.0, 455.0, 455.0, 455.0, 455.0, 454.0, 454.0, 454.0, 454.0, 455.0, 454.0, 454.0, 454.0, 454.0, 455.0, 454.0, 455.0, 454.0, 454.0, 455.0, 454.0, 454.0, 454.0, 454.0, 454.0, 454.0, 454.0, 454.0, 454.0, 454.0, 454.0, 454.0, 454.0, 454.0, 454.0, 454.0, 454.0, 454.0, 454.0, 454.0, 454.0, 454.0, 454.0, 454.0, 454.0, 454.0, 454.0, 454.0, 454.0, 454.0, 454.0, 454.0, 454.0, 454.0, 454.0, 454.0, 454.0, 454.0, 454.0, 454.0, 454.0, 454.0, 454.0, 454.0, 454.0, 454.0, 454.0, 454.0, 454.0, 454.0, 454.0, 454.0, 454.0, 454.0, 454.0, 454.0, 454.0, 454.0, 454.0, 454.0, 454.0, 454.0, 454.0, 454.0, 454.0, 453.0, 454.0, 454.0, 454.0, 453.0, 454.0, 454.0, 454.0, 454.0, 454.0, 454.0, 454.0, 453.0, 454.0, 454.0, 454.0, 454.0, 454.0, 454.0, 453.0, 454.0, 454.0, 453.0, 454.0],
      "WindowWidth": [945.0, 945.0, 945.0, 945.0, 945.0, 945.0, 945.0, 944.0, 945.0, 944.0, 945.0, 944.0, 944.0, 944.0, 944.0, 945.0, 944.0, 944.0, 944.0, 944.0, 944.0, 944.0, 944.0, 944.0, 944.0, 944.0, 944.0, 944.0, 944.0, 944.0, 944.0, 944.0, 944.0, 944.0, 944.0, 944.0, 944.0, 944.0, 944.0, 944.0, 944.0, 944.0, 944.0, 944.0, 944.0, 944.0, 944.0, 944.0, 944.0, 944.0, 944.0, 944.0, 944.0, 944.0, 944.0, 943.0, 944.0, 944.0, 944.0, 944.0, 944.0, 944.0, 943.0, 944.0, 944.0, 944.0, 944.0, 944.0, 944.0, 944.0, 944.0, 944.0, 944.0, 944.0, 944.0, 944.0, 944.0, 944.0, 944.0, 944.0, 944.0, 944.0, 944.0, 944.0, 944.0, 944.0, 944.0, 944.0, 944.0, 944.0, 943.0, 944.0, 944.0, 944.0, 944.0, 944.0, 943.0, 943.0, 943.0, 943.0, 943.0, 942.0, 943.0, 943.0, 943.0, 944.0, 943.0, 944.0, 943.0, 943.0, 943.0, 943.0, 943.0, 943.0, 943.0, 943.0, 943.0, 943.0, 943.0, 943.0, 943.0, 943.0, 943.0, 943.0, 943.0, 943.0, 943.0, 943.0, 943.0, 943.0, 943.0, 943.0, 943.0, 943.0, 943.0, 943.0, 943.0, 943.0, 943.0, 943.0, 943.0, 943.0, 943.0, 943.0, 942.0, 942.0, 942.0, 942.0, 942.0, 942.0, 942.0, 942.0, 942.0, 942.0, 942.0, 942.0, 942.0, 942.0, 942.0, 942.0, 942.0, 942.0, 942.0, 942.0, 942.0, 942.0, 942.0, 942.0, 942.0, 942.0, 942.0, 942.0, 942.0, 942.0, 942.0, 942.0, 942.0, 942.0, 942.0, 942.0, 942.0, 942.0, 942.0, 942.0, 942.0, 942.0, 942.0, 942.0, 942.0, 942.0, 942.0, 942.0, 942.0, 942.0, 942.0, 941.0, 942.0, 942.0, 941.0, 942.0]
    },
    "slices": {}
  }
}