{
  "AcquisitionMatrixPE": 80,
  "AcquisitionNumber": 1,
  "AcquisitionTime": "12:36:14.220000",
  "BandwidthPerPixelPhaseEncode": 48.077,
  "BaseResolution": 80,
  "BodyPartExamined": "BRAIN",
  "CoilCombinationMethod": "Sum of Squares",
  "ConsistencyInfo": "N4_VE11C_LATEST_20160120",
  "ConversionSoftware": "dcm2niix",
  "ConversionSoftwareVersion": "v1.0.20220720",
  "DerivedVendorReportedEchoSpacing": 0.000519999,
  "DeviceSerialNumber": "66112",
  "DwellTime": 2.7e-06,
  "EchoTime": 0.035,
  "EchoTrainLength": 39,
  "EffectiveEchoSpacing": 0.00026,
  "FlipAngle": 90,
  "HeudiconvVersion": "0.13.1",
  "ImageOrientationPatientDICOM": [0.988794, 0.149071, 0.00805754, -0.143897, 0.937322, 0.317365],
  "ImageOrientationText": "Tra>Cor(18.4)>Sag(-2.3)",
  "ImageType": [
    "ORIGINAL",
    "PRIMARY",
    "M",
    "ND",
    "NORM",
    "MOSAIC"
],
  "ImagingFrequency": 123.252,
  "InPlanePhaseEncodingDirectionDICOM": "COL",
  "InstitutionAddress": "Maynard 3,Hanover,NH,US,03755",
  "InstitutionName": "Dartmouth College - PBS",
  "InstitutionalDepartmentName": "Department",
  "MRAcquisitionType": "2D",
  "MagneticFieldStrength": 3,
  "Manufacturer": "Siemens",
  "ManufacturersModelName": "Prisma",
  "MatrixCoilMode": "GRAPPA",
  "Modality": "MR",
  "NonlinearGradientCorrection": false,
  "ParallelReductionFactorInPlane": 2,
  "PartialFourier": 1,
  "PatientPosition": "HFS",
  "PercentPhaseFOV": 100,
  "PercentSampling": 100,
  "PhaseEncodingDirection": "j-",
  "PhaseEncodingSteps": 79,
  "PhaseResolution": 1,
  "PixelBandwidth": 2315,
  "ProcedureStepDescription": "dbic^QA",
  "ProtocolName": "func-bold_task-rest_acq-p2",
  "PulseSequenceDetails": "%SiemensSeq%\\ep2d_bold",
  "ReceiveCoilActiveElements": "HC1-7;NC1,2",
  "ReceiveCoilName": "HeadNeck_64",
  "ReconMatrixPE": 80,
  "RefLinesPE": 24,
  "RepetitionTime": 2,
  "SAR": 0.0359603,
  "ScanOptions": "FS",
  "ScanningSequence": "EP",
  "SequenceName": "*epfid2d1_80",
  "SequenceVariant": "SK",
  "SeriesDescription": "func-bold_task-rest_acq-p2",
  "SeriesNumber": 5,
  "ShimSetting": [4138, -7699, -7508, 209, -75, -213, -27, 88],
  "SliceThickness": 3.5,
  "SliceTiming": [0.99, 0, 1.055, 0.065, 1.12, 0.13, 1.1875, 0.1975, 1.2525, 0.2625, 1.32, 0.33, 1.385, 0.395, 1.45, 0.46, 1.5175, 0.5275, 1.5825, 0.5925, 1.65, 0.66, 1.715, 0.725, 1.78, 0.79, 1.8475, 0.8575, 1.9125, 0.9225],
  "SoftwareVersions": "syngo MR E11",
  "SpacingBetweenSlices": 3.99,
  "StationName": "AWP66112",
  "TaskName": "rest",
  "TotalReadoutTime": 0.02054,
  "TxRefAmp": 212.286,
  "dcmmeta_affine": [
    [-2.966381072998047, -0.43169090151786804, -0.1586313098669052, 140.28697204589844],
    [-0.4472118616104126, 2.811967372894287, 1.2567203044891357, -97.86992645263672],
    [0.024172605946660042, -0.9520936012268066, 3.783594846725464, -14.28902816772461],
    [0.0, 0.0, 0.0, 1.0]
],
  "dcmmeta_reorient_transform": [
    [0.0, -1.0, 0.0, 79.0],
    [1.0, 0.0, 0.0, 0.0],
    [0.0, 0.0, 1.0, 0.0],
    [0.0, 0.0, 0.0, 1.0]
],
  "dcmmeta_shape": [80, 80, 30, 200],
  "dcmmeta_slice_dim": 2,
  "dcmmeta_version": 0.6,
  "global": {
    "const": {
      "AccessionNumber": "qa64",
      "AcquisitionMatrix": [80, 0, 0, 80],
      "AngioFlag": "N",
      "BitsAllocated": 16,
      "BitsStored": 12,
      "BodyPartExamined": "BRAIN",
      "Columns": 480,
      "EchoNumbers": 1,
      "EchoTime": 35.0,
      "EchoTrainLength": 39,
      "FlipAngle": 90.0,
      "HighBit": 11,
      "ImageOrientationPatient": [0.98879372231332, 0.14907062365856, 0.00805753534443, -0.1438969709792, 0.93732247337483, 0.31736452645108],
      "ImagePositionPatient": [-613.12143685092, -776.11135553619, -284.7576579913],
      "ImageType": [
        "ORIGINAL",
        "PRIMARY",
        "M",
        "ND",
        "NORM",
        "MOSAIC"
],
      "ImagedNucleus": "1H",
      "ImagingFrequency": 123.252349,
      "InPlanePhaseEncodingDirection": "COL",
      "MRAcquisitionType": "2D",
      "MagneticFieldStrength": 3.0,
      "Manufacturer": "SIEMENS",
      "ManufacturerModelName": "Prisma",
      "Modality": "MR",
      "NumberOfAverages": 1.0,
      "NumberOfPhaseEncodingSteps": 79,
      "PercentPhaseFieldOfView": 100.0,
      "PercentSampling": 100.0,
      "PerformedProcedureStepStartTime": "123430.629000",
      "PhotometricInterpretation": "MONOCHROME2",
      "PixelBandwidth": 2315.0,
      "PixelRepresentation": 0,
      "PixelSpacing": [3.0, 3.0],
      "ProtocolName": "func-bold_task-rest_acq-p2",
      "RepetitionTime": 2000.0,
      "Rows": 480,
      "SAR": 0.03596034377048,
      "SamplesPerPixel": 1,
      "ScanOptions": "FS",
      "ScanningSequence": "EP",
      "SequenceName": "*epfid2d1_80",
      "SequenceVariant": "SK",
      "SeriesDescription": "func-bold_task-rest_acq-p2",
      "SeriesNumber": 5,
      "SeriesTime": "123707.790000",
      "SliceLocation": -49.953115135834,
      "SliceThickness": 3.5,
      "SmallestImagePixelValue": 0,
      "SoftwareVersions": "syngo MR E11",
      "SpacingBetweenSlices": 3.9899999966406,
      "SpecificCharacterSet": "ISO_IR 100",
      "StudyID": "1",
      "StudyTime": "123430.556000",
      "TransmitCoilName": "Body",
      "VariableFlipAngleFlag": "N",
      "WindowCenterWidthExplanation": "Algo1",
      "dBdt": 0.0},
    "slices": {}
  },
  "time": {
    "samples": {
      "AcquisitionNumber": [1, 2, 3, 4, 5, 6, 7, 8, 9, 10, 11, 12, 13, 14, 15, 16, 17, 18, 19, 20, 21, 22, 23, 24, 25, 26, 27, 28, 29, 30, 31, 32, 33, 34, 35, 36, 37, 38, 39, 40, 41, 42, 43, 44, 45, 46, 47, 48, 49, 50, 51, 52, 53, 54, 55, 56, 57, 58, 59, 60, 61, 62, 63, 64, 65, 66, 67, 68, 69, 70, 71, 72, 73, 74, 75, 76, 77, 78, 79, 80, 81, 82, 83, 84, 85, 86, 87, 88, 89, 90, 91, 92, 93, 94, 95, 96, 97, 98, 99, 100, 101, 102, 103, 104, 105, 106, 107, 108, 109, 110, 111, 112, 113, 114, 115, 116, 117, 118, 119, 120, 121, 122, 123, 124, 125, 126, 127, 128, 129, 130, 131, 132, 133, 134, 135, 136, 137, 138, 139, 140, 141, 142, 143, 144, 145, 146, 147, 148, 149, 150, 151, 152, 153, 154, 155, 156, 157, 158, 159, 160, 161, 162, 163, 164, 165, 166, 167, 168, 169, 170, 171, 172, 173, 174, 175, 176, 177, 178, 179, 180, 181, 182, 183, 184, 185, 186, 187, 188, 189, 190, 191, 192, 193, 194, 195, 196, 197, 198, 199, 200],
      "AcquisitionTime": ["123614.220000", "123616.220000", "123618.220000", "123620.220000", "123622.220000", "123624.220000", "123626.220000", "123628.220000", "123630.220000", "123632.220000", "123634.220000", "123636.220000", "123638.220000", "123640.220000", "123642.220000", "123644.220000", "123646.220000", "123648.220000", "123650.220000", "123652.220000", "123654.220000", "123656.220000", "123658.220000", "123700.220000", "123702.220000", "123704.220000", "123706.220000", "123708.220000", "123710.220000", "123712.220000", "123714.220000", "123716.220000", "123718.220000", "123720.220000", "123722.220000", "123724.220000", "123726.220000", "123728.220000", "123730.220000", "123732.220000", "123734.220000", "123736.220000", "123738.220000", "123740.220000", "123742.220000", "123744.220000", "123746.220000", "123748.220000", "123750.220000", "123752.220000", "123754.220000", "123756.220000", "123758.220000", "123800.220000", "123802.220000", "123804.220000", "123806.220000", "123808.220000", "123810.220000", "123812.220000", "123814.220000", "123816.220000", "123818.220000", "123820.220000", "123822.220000", "123824.220000", "123826.220000", "123828.220000", "123830.220000", "123832.220000", "123834.220000", "123836.220000", "123838.220000", "123840.220000", "123842.220000", "123844.220000", "123846.220000", "123848.220000", "123850.220000", "123852.220000", "123854.220000", "123856.220000", "123858.220000", "123900.220000", "123902.220000", "123904.220000", "123906.220000", "123908.220000", "123910.220000", "123912.220000", "123914.220000", "123916.220000", "123918.220000", "123920.220000", "123922.220000", "123924.220000", "123926.220000", "123928.220000", "123930.220000", "123932.220000", "123934.220000", "123936.220000", "123938.220000", "123940.220000", "123942.220000", "123944.220000", "123946.220000", "123948.220000", "123950.220000", "123952.220000", "123954.220000", "123956.220000", "123958.220000", "124000.220000", "124002.220000", "124004.220000", "124006.220000", "124008.220000", "124010.220000", "124012.220000", "124014.220000", "124016.220000", "124018.220000", "124020.220000", "124022.220000", "124024.220000", "124026.220000", "124028.220000", "124030.220000", "124032.220000", "124034.220000", "124036.220000", "124038.220000", "124040.220000", "124042.220000", "124044.220000", "124046.220000", "124048.220000", "124050.220000", "124052.220000", "124054.220000", "124056.220000", "124058.220000", "124100.220000", "124102.220000", "124104.220000", "124106.220000", "124108.220000", "124110.220000", "124112.220000", "124114.220000", "124116.220000", "124118.220000", "124120.220000", "124122.220000", "124124.220000", "124126.220000", "124128.220000", "124130.220000", "124132.220000", "124134.220000", "124136.220000", "124138.220000", "124140.220000", "124142.220000", "124144.220000", "124146.220000", "124148.220000", "124150.220000", "124152.220000", "124154.220000", "124156.220000", "124158.220000", "124200.220000", "124202.220000", "124204.220000", "124206.220000", "124208.220000", "124210.220000", "124212.220000", "124214.220000", "124216.220000", "124218.220000", "124220.220000", "124222.220000", "124224.220000", "124226.220000", "124228.220000", "124230.220000", "124232.220000", "124234.220000", "124236.220000", "124238.220000", "124240.220000", "124242.220000", "124244.220000", "124246.220000", "124248.220000", "124250.220000", "124252.220000"],
      "ContentTime": ["123707.896000", "123707.900000", "123707.903000", "123707.905000", "123707.908000", "123707.911000", "123707.913000", "123707.916000", "123707.918000", "123707.921000", "123707.923000", "123707.926000", "123707.929000", "123707.931000", "123707.934000", "123707.936000", "123707.939000", "123707.941000", "123707.944000", "123707.947000", "123707.949000", "123707.952000", "123707.955000", "123707.957000", "123707.960000", "123707.963000", "123747.790000", "123747.792000", "123747.795000", "123747.797000", "123747.800000", "123747.803000", "123747.805000", "123747.808000", "123747.811000", "123747.813000", "123747.816000", "123747.818000", "123747.821000", "123747.823000", "123747.826000", "123747.829000", "123747.831000", "123747.834000", "123747.836000", "123747.850000", "123827.790000", "123827.792000", "123827.795000", "123827.797000", "123827.800000", "123827.803000", "123827.805000", "123827.808000", "123827.811000", "123827.813000", "123827.816000", "123827.818000", "123827.821000", "123827.824000", "123827.826000", "123827.829000", "123827.831000", "123827.834000", "123827.837000", "123827.839000", "123907.790000", "123907.792000", "123907.795000", "123907.797000", "123907.800000", "123907.803000", "123907.805000", "123907.808000", "123907.811000", "123907.813000", "123907.816000", "123907.818000", "123907.821000", "123907.824000", "123907.826000", "123907.829000", "123907.831000", "123907.834000", "123907.837000", "123907.839000", "123947.789000", "123947.791000", "123947.794000", "123947.796000", "123947.799000", "123947.802000", "123947.804000", "123947.807000", "123947.810000", "123947.812000", "123947.815000", "123947.817000", "123947.820000", "123947.822000", "123947.825000", "123947.828000", "123947.830000", "123947.833000", "123947.835000", "123947.838000", "124027.790000", "124027.804000", "124027.806000", "124027.809000", "124027.812000", "124027.814000", "124027.817000", "124027.819000", "124027.822000", "124027.825000", "124027.827000", "124027.830000", "124027.832000", "124027.835000", "124027.838000", "124027.840000", "124027.843000", "124027.845000", "124027.848000", "124027.851000", "124107.790000", "124107.792000", "124107.813000", "124107.816000", "124107.818000", "124107.821000", "124107.824000", "124107.826000", "124107.829000", "124107.831000", "124107.834000", "124107.837000", "124107.839000", "124107.842000", "124107.844000", "124107.847000", "124107.850000", "124107.852000", "124107.855000", "124107.857000", "124147.789000", "124147.791000", "124147.794000", "124147.797000", "124147.799000", "124147.802000", "124147.804000", "124147.807000", "124147.810000", "124147.812000", "124147.815000", "124147.817000", "124147.820000", "124147.823000", "124147.825000", "124147.828000", "124147.830000", "124147.833000", "124147.835000", "124147.838000", "124227.790000", "124227.797000", "124227.799000", "124227.802000", "124227.805000", "124227.807000", "124227.810000", "124227.813000", "124227.816000", "124227.818000", "124227.821000", "124227.823000", "124227.826000", "124227.829000", "124227.831000", "124227.834000", "124227.836000", "124227.839000", "124227.842000", "124227.844000", "124253.992000", "124253.995000", "124253.997000", "124254.000000", "124254.003000", "124254.005000", "124254.008000", "124254.010000", "124254.013000", "124254.016000", "124254.018000", "124254.027000", "124254.032000", "124254.035000"],
      "InstanceCreationTime": ["123707.896000", "123707.900000", "123707.903000", "123707.905000", "123707.908000", "123707.911000", "123707.913000", "123707.916000", "123707.918000", "123707.921000", "123707.923000", "123707.926000", "123707.929000", "123707.931000", "123707.934000", "123707.936000", "123707.939000", "123707.941000", "123707.944000", "123707.947000", "123707.949000", "123707.952000", "123707.955000", "123707.957000", "123707.960000", "123707.963000", "123747.790000", "123747.792000", "123747.795000", "123747.797000", "123747.800000", "123747.803000", "123747.805000", "123747.808000", "123747.811000", "123747.813000", "123747.816000", "123747.818000", "123747.821000", "123747.823000", "123747.826000", "123747.829000", "123747.831000", "123747.834000", "123747.836000", "123747.850000", "123827.790000", "123827.792000", "123827.795000", "123827.797000", "123827.800000", "123827.803000", "123827.805000", "123827.808000", "123827.811000", "123827.813000", "123827.816000", "123827.818000", "123827.821000", "123827.824000", "123827.826000", "123827.829000", "123827.831000", "123827.834000", "123827.837000", "123827.839000", "123907.790000", "123907.792000", "123907.795000", "123907.797000", "123907.800000", "123907.803000", "123907.805000", "123907.808000", "123907.811000", "123907.813000", "123907.816000", "123907.818000", "123907.821000", "123907.824000", "123907.826000", "123907.829000", "123907.831000", "123907.834000", "123907.837000", "123907.839000", "123947.789000", "123947.791000", "123947.794000", "123947.796000", "123947.799000", "123947.802000", "123947.804000", "123947.807000", "123947.810000", "123947.812000", "123947.815000", "123947.817000", "123947.820000", "123947.822000", "123947.825000", "123947.828000", "123947.830000", "123947.833000", "123947.835000", "123947.838000", "124027.790000", "124027.804000", "124027.806000", "124027.809000", "124027.812000", "124027.814000", "124027.817000", "124027.819000", "124027.822000", "124027.825000", "124027.827000", "124027.830000", "124027.832000", "124027.835000", "124027.838000", "124027.840000", "124027.843000", "124027.845000", "124027.848000", "124027.851000", "124107.790000", "124107.792000", "124107.813000", "124107.816000", "124107.818000", "124107.821000", "124107.824000", "124107.826000", "124107.829000", "124107.831000", "124107.834000", "124107.837000", "124107.839000", "124107.842000", "124107.844000", "124107.847000", "124107.850000", "124107.852000", "124107.855000", "124107.857000", "124147.789000", "124147.791000", "124147.794000", "124147.797000", "124147.799000", "124147.802000", "124147.804000", "124147.807000", "124147.810000", "124147.812000", "124147.815000", "124147.817000", "124147.820000", "124147.823000", "124147.825000", "124147.828000", "124147.830000", "124147.833000", "124147.835000", "124147.838000", "124227.790000", "124227.797000", "124227.799000", "124227.802000", "124227.805000", "124227.807000", "124227.810000", "124227.813000", "124227.816000", "124227.818000", "124227.821000", "124227.823000", "124227.826000", "124227.829000", "124227.831000", "124227.834000", "124227.836000", "124227.839000", "124227.842000", "124227.844000", "124253.992000", "124253.995000", "124253.997000", "124254.000000", "124254.003000", "124254.005000", "124254.008000", "124254.010000", "124254.013000", "124254.016000", "124254.018000", "124254.027000", "124254.032000", "124254.035000"],
      "InstanceNumber": [1, 2, 3, 4, 5, 6, 7, 8, 9, 10, 11, 12, 13, 14, 15, 16, 17, 18, 19, 20, 21, 22, 23, 24, 25, 26, 27, 28, 29, 30, 31, 32, 33, 34, 35, 36, 37, 38, 39, 40, 41, 42, 43, 44, 45, 46, 47, 48, 49, 50, 51, 52, 53, 54, 55, 56, 57, 58, 59, 60, 61, 62, 63, 64, 65, 66, 67, 68, 69, 70, 71, 72, 73, 74, 75, 76, 77, 78, 79, 80, 81, 82, 83, 84, 85, 86, 87, 88, 89, 90, 91, 92, 93, 94, 95, 96, 97, 98, 99, 100, 101, 102, 103, 104, 105, 106, 107, 108, 109, 110, 111, 112, 113, 114, 115, 116, 117, 118, 119, 120, 121, 122, 123, 124, 125, 126, 127, 128, 129, 130, 131, 132, 133, 134, 135, 136, 137, 138, 139, 140, 141, 142, 143, 144, 145, 146, 147, 148, 149, 150, 151, 152, 153, 154, 155, 156, 157, 158, 159, 160, 161, 162, 163, 164, 165, 166, 167, 168, 169, 170, 171, 172, 173, 174, 175, 176, 177, 178, 179, 180, 181, 182, 183, 184, 185, 186, 187, 188, 189, 190, 191, 192, 193, 194, 195, 196, 197, 198, 199, 200],
      "LargestImagePixelValue": [3993, 3987, 3989, 3986, 3985, 3995, 3990, 3995, 3993, 3981, 3990, 3990, 3983, 3988, 3992, 3986, 3983, 3986, 3990, 3992, 3988, 3984, 3997, 3986, 3993, 3987, 3988, 3983, 3995, 3983, 3992, 3995, 3995, 3982, 3985, 3976, 3981, 3981, 3997, 3981, 3989, 3980, 3986, 3989, 3990, 3976, 3979, 3975, 3997, 3980, 3979, 3983, 3985, 3986, 3986, 3989, 3981, 3981, 3983, 3980, 3988, 3982, 3972, 3981, 3998, 3986, 3973, 3981, 3983, 3985, 3984, 3990, 3997, 3988, 3985, 3987, 3986, 3969, 3988, 3989, 3983, 3978, 3988, 3978, 3977, 3976, 3994, 3978, 3982, 3975, 3980, 3986, 3982, 3971, 3987, 3978, 3971, 3967, 3979, 3991, 3984, 3991, 3987, 3983, 3991, 3981, 3974, 3987, 3978, 3992, 3985, 3982, 3971, 3985, 3981, 3976, 3987, 3992, 3980, 3974, 3969, 3983, 3976, 3974, 3986, 3976, 3991, 3974, 3974, 3982, 3987, 3985, 3977, 3970, 3974, 3975, 3987, 3984, 3979, 3972, 3980, 3980, 3972, 3984, 3982, 3979, 3967, 3975, 3981, 3962, 3969, 3978, 3981, 3980, 3978, 3981, 3981, 3972, 3973, 3971, 3974, 3978, 3975, 3977, 3970, 3977, 3979, 3971, 3972, 3979, 3978, 3966, 3977, 3988, 3981, 3983, 3970, 3959, 3979, 3979, 3977, 3979, 3984, 3975, 3971, 3969, 3968, 3974, 3972, 3973, 3970, 3986, 3964, 3982, 3970, 3980, 3980, 3983, 3977, 3979],
      "WindowCenter": [1478.0, 1477.0, 1477.0, 1478.0, 1477.0, 1477.0, 1477.0, 1477.0, 1476.0, 1477.0, 1476.0, 1476.0, 1477.0, 1477.0, 1476.0, 1476.0, 1476.0, 1476.0, 1476.0, 1476.0, 1476.0, 1476.0, 1476.0, 1475.0, 1475.0, 1476.0, 1475.0, 1475.0, 1476.0, 1475.0, 1475.0, 1475.0, 1476.0, 1476.0, 1475.0, 1475.0, 1475.0, 1476.0, 1475.0, 1476.0, 1475.0, 1475.0, 1475.0, 1474.0, 1474.0, 1474.0, 1475.0, 1474.0, 1474.0, 1475.0, 1475.0, 1475.0, 1474.0, 1474.0, 1473.0, 1475.0, 1475.0, 1474.0, 1475.0, 1474.0, 1474.0, 1475.0, 1475.0, 1473.0, 1474.0, 1473.0, 1474.0, 1474.0, 1474.0, 1474.0, 1474.0, 1474.0, 1474.0, 1473.0, 1473.0, 1473.0, 1473.0, 1474.0, 1474.0, 1474.0, 1474.0, 1473.0, 1473.0, 1472.0, 1472.0, 1473.0, 1473.0, 1473.0, 1473.0, 1473.0, 1472.0, 1473.0, 1473.0, 1473.0, 1473.0, 1473.0, 1472.0, 1473.0, 1473.0, 1473.0, 1473.0, 1472.0, 1472.0, 1472.0, 1473.0, 1472.0, 1473.0, 1473.0, 1474.0, 1473.0, 1473.0, 1472.0, 1472.0, 1472.0, 1472.0, 1472.0, 1472.0, 1472.0, 1471.0, 1472.0, 1473.0, 1472.0, 1472.0, 1471.0, 1471.0, 1472.0, 1471.0, 1472.0, 1472.0, 1471.0, 1472.0, 1471.0, 1472.0, 1472.0, 1471.0, 1471.0, 1471.0, 1471.0, 1472.0, 1472.0, 1471.0, 1471.0, 1471.0, 1472.0, 1471.0, 1471.0, 1471.0, 1471.0, 1470.0, 1470.0, 1470.0, 1471.0, 1470.0, 1470.0, 1471.0, 1471.0, 1471.0, 1471.0, 1470.0, 1470.0, 1470.0, 1470.0, 1471.0, 1470.0, 1470.0, 1471.0, 1470.0, 1470.0, 1470.0, 1470.0, 1469.0, 1470.0, 1470.0, 1469.0, 1470.0, 1470.0, 1470.0, 1470.0, 1470.0, 1470.0, 1470.0, 1469.0, 1470.0, 1470.0, 1469.0, 1469.0, 1469.0, 1469.0, 1469.0, 1469.0, 1469.0, 1470.0, 1470.0, 1468.0, 1469.0, 1469.0, 1469.0, 1468.0, 1469.0, 1469.0],
      "WindowWidth": [3366.0, 3365.0, 3365.0, 3364.0, 3365.0, 3364.0, 3364.0, 3364.0, 3364.0, 3364.0, 3364.0, 3364.0, 3364.0, 3364.0, 3364.0, 3364.0, 3364.0, 3364.0, 3363.0, 3363.0, 3363.0, 3363.0, 3363.0, 3363.0, 3363.0, 3363.0, 3363.0, 3363.0, 3363.0, 3363.0, 3363.0, 3363.0, 3363.0, 3363.0, 3363.0, 3363.0, 3363.0, 3362.0, 3363.0, 3362.0, 3363.0, 3362.0, 3362.0, 3362.0, 3362.0, 3362.0, 3362.0, 3362.0, 3362.0, 3362.0, 3362.0, 3362.0, 3362.0, 3362.0, 3362.0, 3361.0, 3361.0, 3362.0, 3361.0, 3362.0, 3362.0, 3361.0, 3361.0, 3362.0, 3361.0, 3361.0, 3361.0, 3361.0, 3361.0, 3361.0, 3361.0, 3361.0, 3361.0, 3361.0, 3361.0, 3361.0, 3361.0, 3360.0, 3360.0, 3360.0, 3360.0, 3361.0, 3360.0, 3361.0, 3361.0, 3360.0, 3360.0, 3360.0, 3360.0, 3360.0, 3360.0, 3360.0, 3360.0, 3360.0, 3360.0, 3360.0, 3360.0, 3360.0, 3360.0, 3359.0, 3360.0, 3359.0, 3359.0, 3359.0, 3359.0, 3359.0, 3359.0, 3359.0, 3358.0, 3359.0, 3359.0, 3359.0, 3359.0, 3359.0, 3359.0, 3359.0, 3359.0, 3359.0, 3359.0, 3359.0, 3358.0, 3359.0, 3358.0, 3358.0, 3358.0, 3358.0, 3358.0, 3358.0, 3358.0, 3358.0, 3358.0, 3358.0, 3358.0, 3358.0, 3358.0, 3358.0, 3358.0, 3358.0, 3357.0, 3357.0, 3358.0, 3358.0, 3358.0, 3357.0, 3358.0, 3358.0, 3357.0, 3357.0, 3358.0, 3358.0, 3358.0, 3357.0, 3357.0, 3357.0, 3357.0, 3357.0, 3357.0, 3357.0, 3357.0, 3357.0, 3357.0, 3357.0, 3356.0, 3357.0, 3357.0, 3356.0, 3357.0, 3357.0, 3357.0, 3357.0, 3357.0, 3356.0, 3356.0, 3357.0, 3356.0, 3356.0, 3356.0, 3356.0, 3356.0, 3356.0, 3356.0, 3356.0, 3356.0, 3356.0, 3356.0, 3356.0, 3356.0, 3356.0, 3356.0, 3356.0, 3355.0, 3355.0, 3355.0, 3356.0, 3355.0, 3355.0, 3355.0, 3356.0, 3355.0, 3355.0]
    },
    "slices": {}
  }
}