{
  "AcquisitionMatrixPE": 80,
  "AcquisitionNumber": 1,
  "AcquisitionTime": "08:39:24.727500",
  "BandwidthPerPixelPhaseEncode": 48.077,
  "BaseResolution": 80,
  "BodyPartExamined": "BRAIN",
  "CoilCombinationMethod": "Sum of Squares",
  "ConsistencyInfo": "N4_VE11E_LATEST_20181129",
  "ConversionSoftware": "dcm2niix",
  "ConversionSoftwareVersion": "v1.0.20220720",
  "DerivedVendorReportedEchoSpacing": 0.000519999,
  "DeviceSerialNumber": "66112",
  "DwellTime": 2.7e-06,
  "EchoTime": 0.035,
  "EchoTrainLength": 39,
  "EffectiveEchoSpacing": 0.00026,
  "FlipAngle": 90,
  "HeudiconvVersion": "0.13.1",
  "ImageOrientationPatientDICOM": [0.986369, -0.164497, 0.00421607, 0.155343, 0.939318, 0.30586],
  "ImageOrientationText": "Tra>Cor(17.5)>Sag(3.1)",
  "ImageType": [
    "ORIGINAL",
    "PRIMARY",
    "M",
    "ND",
    "NORM",
    "MOSAIC"
],
  "ImagingFrequency": 123.259,
  "InPlanePhaseEncodingDirectionDICOM": "COL",
  "InstitutionAddress": "Maynard 3,Hanover,NH,US,03755",
  "InstitutionName": "Dartmouth College - PBS",
  "InstitutionalDepartmentName": "Department",
  "MRAcquisitionType": "2D",
  "MagneticFieldStrength": 3,
  "Manufacturer": "Siemens",
  "ManufacturersModelName": "Prisma",
  "MatrixCoilMode": "GRAPPA",
  "Modality": "MR",
  "NonlinearGradientCorrection": false,
  "ParallelReductionFactorInPlane": 2,
  "PartialFourier": 1,
  "PatientPosition": "HFS",
  "PercentPhaseFOV": 100,
  "PercentSampling": 100,
  "PhaseEncodingDirection": "j-",
  "PhaseEncodingSteps": 79,
  "PhaseResolution": 1,
  "PixelBandwidth": 2315,
  "ProcedureStepDescription": "dbic^QA",
  "ProtocolName": "func-bold_task-rest_acq-p2",
  "PulseSequenceDetails": "%SiemensSeq%\\ep2d_bold",
  "ReceiveCoilActiveElements": "HC1-7;NC1,2",
  "ReceiveCoilName": "HeadNeck_64",
  "ReconMatrixPE": 80,
  "RefLinesPE": 24,
  "RepetitionTime": 2,
  "SAR": 0.0359434,
  "ScanOptions": "FS",
  "ScanningSequence": "EP",
  "SequenceName": "*epfid2d1_80",
  "SequenceVariant": "SK",
  "SeriesDescription": "func-bold_task-rest_acq-p2",
  "SeriesNumber": 5,
  "ShimSetting": [4214, -7737, -7492, -140, -153, -237, -66, 92],
  "SliceThickness": 3.5,
  "SliceTiming": [0.99, 0, 1.055, 0.065, 1.1225, 0.1325, 1.1875, 0.1975, 1.2525, 0.2625, 1.32, 0.33, 1.385, 0.395, 1.4525, 0.4625, 1.5175, 0.5275, 1.5825, 0.5925, 1.65, 0.66, 1.715, 0.725, 1.7825, 0.7925, 1.8475, 0.8575, 1.9125, 0.9225],
  "SoftwareVersions": "syngo MR E11",
  "SpacingBetweenSlices": 3.99,
  "StationName": "AWP66112",
  "TaskName": "rest",
  "TotalReadoutTime": 0.02054,
  "TxRefAmp": 214.875,
  "dcmmeta_affine": [
    [-2.9591057300567627, 0.46602967381477356, 0.21655037999153137, 99.63496398925781],
    [0.49349161982536316, 2.8179540634155273, 1.201130986213684, -142.3094482421875],
    [0.012648210860788822, -0.9175786972045898, 3.798748731613159, -30.506019592285156],
    [0.0, 0.0, 0.0, 1.0]
],
  "dcmmeta_reorient_transform": [
    [0.0, -1.0, 0.0, 79.0],
    [1.0, 0.0, 0.0, 0.0],
    [0.0, 0.0, 1.0, 0.0],
    [0.0, 0.0, 0.0, 1.0]
],
  "dcmmeta_shape": [80, 80, 30, 200],
  "dcmmeta_slice_dim": 2,
  "dcmmeta_version": 0.6,
  "global": {
    "const": {
      "AccessionNumber": "qa64",
      "AcquisitionMatrix": [80, 0, 0, 80],
      "AngioFlag": "N",
      "BitsAllocated": 16,
      "BitsStored": 12,
      "BodyPartExamined": "BRAIN",
      "Columns": 480,
      "EchoNumbers": 1,
      "EchoTime": 35.0,
      "EchoTrainLength": 39,
      "FlipAngle": 90.0,
      "HighBit": 11,
      "ImageOrientationPatient": [0.98636853887354, -0.1644972044528, 0.0042160701723, 0.15534322377881, 0.93931805453801, 0.30585956784926],
      "ImagePositionPatient": [-821.47836770216, -545.20143637014, -289.04011916556],
      "ImageType": [
        "ORIGINAL",
        "PRIMARY",
        "M",
        "ND",
        "NORM",
        "MOSAIC"
],
      "ImagedNucleus": "1H",
      "ImagingFrequency": 123.259125,
      "InPlanePhaseEncodingDirection": "COL",
      "MRAcquisitionType": "2D",
      "MagneticFieldStrength": 3.0,
      "Manufacturer": "SIEMENS",
      "ManufacturerModelName": "Prisma",
      "Modality": "MR",
      "NumberOfAverages": 1.0,
      "NumberOfPhaseEncodingSteps": 79,
      "PercentPhaseFieldOfView": 100.0,
      "PercentSampling": 100.0,
      "PerformedProcedureStepStartTime": "083527.253000",
      "PhotometricInterpretation": "MONOCHROME2",
      "PixelBandwidth": 2315.0,
      "PixelRepresentation": 0,
      "PixelSpacing": [3.0, 3.0],
      "ProtocolName": "func-bold_task-rest_acq-p2",
      "RepetitionTime": 2000.0,
      "Rows": 480,
      "SAR": 0.0359433921501,
      "SamplesPerPixel": 1,
      "ScanOptions": "FS",
      "ScanningSequence": "EP",
      "SequenceName": "*epfid2d1_80",
      "SequenceVariant": "SK",
      "SeriesDescription": "func-bold_task-rest_acq-p2",
      "SeriesNumber": 5,
      "SeriesTime": "084004.918000",
      "SliceLocation": -66.476438328376,
      "SliceThickness": 3.5,
      "SmallestImagePixelValue": 0,
      "SoftwareVersions": "syngo MR E11",
      "SpacingBetweenSlices": 3.9900001327879,
      "SpecificCharacterSet": "ISO_IR 100",
      "StudyID": "7",
      "StudyTime": "083527.143000",
      "TransmitCoilName": "Body",
      "VariableFlipAngleFlag": "N",
      "WindowCenterWidthExplanation": "Algo1"
    },
    "slices": {}
  },
  "time": {
    "samples": {
      "AcquisitionNumber": [1, 2, 3, 4, 5, 6, 7, 8, 9, 10, 11, 12, 13, 14, 15, 16, 17, 18, 19, 20, 21, 22, 23, 24, 25, 26, 27, 28, 29, 30, 31, 32, 33, 34, 35, 36, 37, 38, 39, 40, 41, 42, 43, 44, 45, 46, 47, 48, 49, 50, 51, 52, 53, 54, 55, 56, 57, 58, 59, 60, 61, 62, 63, 64, 65, 66, 67, 68, 69, 70, 71, 72, 73, 74, 75, 76, 77, 78, 79, 80, 81, 82, 83, 84, 85, 86, 87, 88, 89, 90, 91, 92, 93, 94, 95, 96, 97, 98, 99, 100, 101, 102, 103, 104, 105, 106, 107, 108, 109, 110, 111, 112, 113, 114, 115, 116, 117, 118, 119, 120, 121, 122, 123, 124, 125, 126, 127, 128, 129, 130, 131, 132, 133, 134, 135, 136, 137, 138, 139, 140, 141, 142, 143, 144, 145, 146, 147, 148, 149, 150, 151, 152, 153, 154, 155, 156, 157, 158, 159, 160, 161, 162, 163, 164, 165, 166, 167, 168, 169, 170, 171, 172, 173, 174, 175, 176, 177, 178, 179, 180, 181, 182, 183, 184, 185, 186, 187, 188, 189, 190, 191, 192, 193, 194, 195, 196, 197, 198, 199, 200],
      "AcquisitionTime": ["083924.727500", "083926.727500", "083928.727500", "083930.727500", "083932.727500", "083934.727500", "083936.727500", "083938.727500", "083940.727500", "083942.727500", "083944.727500", "083946.727500", "083948.727500", "083950.727500", "083952.727500", "083954.727500", "083956.727500", "083958.727500", "084000.727500", "084002.727500", "084004.727500", "084006.727500", "084008.727500", "084010.727500", "084012.727500", "084014.727500", "084016.727500", "084018.727500", "084020.727500", "084022.727500", "084024.727500", "084026.727500", "084028.727500", "084030.727500", "084032.727500", "084034.727500", "084036.727500", "084038.727500", "084040.727500", "084042.727500", "084044.727500", "084046.727500", "084048.727500", "084050.727500", "084052.727500", "084054.727500", "084056.727500", "084058.727500", "084100.727500", "084102.727500", "084104.727500", "084106.727500", "084108.727500", "084110.727500", "084112.727500", "084114.727500", "084116.727500", "084118.727500", "084120.727500", "084122.727500", "084124.727500", "084126.727500", "084128.727500", "084130.727500", "084132.727500", "084134.727500", "084136.727500", "084138.727500", "084140.727500", "084142.727500", "084144.727500", "084146.727500", "084148.727500", "084150.727500", "084152.727500", "084154.727500", "084156.727500", "084158.727500", "084200.727500", "084202.727500", "084204.727500", "084206.727500", "084208.727500", "084210.727500", "084212.727500", "084214.727500", "084216.727500", "084218.727500", "084220.727500", "084222.727500", "084224.727500", "084226.727500", "084228.727500", "084230.727500", "084232.727500", "084234.727500", "084236.727500", "084238.727500", "084240.727500", "084242.727500", "084244.727500", "084246.727500", "084248.727500", "084250.727500", "084252.727500", "084254.727500", "084256.727500", "084258.727500", "084300.727500", "084302.727500", "084304.727500", "084306.727500", "084308.727500", "084310.727500", "084312.727500", "084314.727500", "084316.727500", "084318.727500", "084320.727500", "084322.727500", "084324.727500", "084326.727500", "084328.727500", "084330.727500", "084332.727500", "084334.727500", "084336.727500", "084338.727500", "084340.727500", "084342.727500", "084344.727500", "084346.727500", "084348.727500", "084350.727500", "084352.727500", "084354.727500", "084356.727500", "084358.727500", "084400.727500", "084402.727500", "084404.727500", "084406.727500", "084408.727500", "084410.727500", "084412.727500", "084414.727500", "084416.727500", "084418.727500", "084420.727500", "084422.727500", "084424.727500", "084426.727500", "084428.727500", "084430.727500", "084432.727500", "084434.727500", "084436.727500", "084438.727500", "084440.727500", "084442.727500", "084444.727500", "084446.727500", "084448.727500", "084450.727500", "084452.727500", "084454.727500", "084456.727500", "084458.727500", "084500.727500", "084502.727500", "084504.727500", "084506.727500", "084508.727500", "084510.727500", "084512.727500", "084514.727500", "084516.727500", "084518.727500", "084520.727500", "084522.727500", "084524.727500", "084526.727500", "084528.727500", "084530.727500", "084532.727500", "084534.727500", "084536.727500", "084538.727500", "084540.727500", "084542.727500", "084544.727500", "084546.727500", "084548.727500", "084550.727500", "084552.727500", "084554.727500", "084556.727500", "084558.727500", "084600.727500", "084602.727500"],
      "ContentTime": ["084004.922000", "084004.925000", "084004.927000", "084004.934000", "084004.936000", "084004.942000", "084004.944000", "084004.946000", "084004.949000", "084004.951000", "084004.953000", "084004.956000", "084004.958000", "084004.961000", "084004.963000", "084004.966000", "084004.968000", "084004.970000", "084004.973000", "084004.975000", "084044.916000", "084044.919000", "084044.928000", "084044.930000", "084044.932000", "084044.935000", "084044.937000", "084044.939000", "084044.942000", "084044.944000", "084044.947000", "084044.949000", "084044.951000", "084044.954000", "084044.956000", "084044.958000", "084044.961000", "084044.963000", "084044.969000", "084044.972000", "084104.916000", "084104.919000", "084104.921000", "084104.924000", "084104.926000", "084104.928000", "084104.932000", "084104.934000", "084104.937000", "084104.939000", "084144.917000", "084144.919000", "084144.921000", "084144.924000", "084144.926000", "084144.929000", "084144.931000", "084144.933000", "084144.936000", "084144.938000", "084144.941000", "084144.943000", "084144.946000", "084144.949000", "084144.951000", "084144.953000", "084144.956000", "084144.958000", "084144.961000", "084144.963000", "084224.916000", "084224.919000", "084224.921000", "084224.924000", "084224.926000", "084224.928000", "084224.931000", "084224.933000", "084224.936000", "084224.938000", "084224.940000", "084224.943000", "084224.945000", "084224.952000", "084224.954000", "084224.956000", "084224.959000", "084224.961000", "084224.964000", "084224.966000", "084304.916000", "084304.919000", "084304.921000", "084304.923000", "084304.926000", "084304.928000", "084304.931000", "084304.933000", "084304.935000", "084304.938000", "084304.940000", "084304.942000", "084304.945000", "084304.947000", "084304.950000", "084304.952000", "084304.954000", "084304.966000", "084304.968000", "084304.970000", "084344.916000", "084344.919000", "084344.921000", "084344.923000", "084344.926000", "084344.929000", "084344.931000", "084344.933000", "084344.936000", "084344.938000", "084344.941000", "084344.943000", "084344.945000", "084344.948000", "084344.950000", "084344.952000", "084344.955000", "084344.957000", "084344.960000", "084344.962000", "084424.916000", "084424.919000", "084424.921000", "084424.924000", "084424.926000", "084424.929000", "084424.931000", "084424.933000", "084424.936000", "084424.938000", "084424.941000", "084424.943000", "084424.945000", "084424.948000", "084424.950000", "084424.952000", "084424.955000", "084424.957000", "084424.972000", "084424.975000", "084504.916000", "084504.919000", "084504.921000", "084504.924000", "084504.926000", "084504.928000", "084504.931000", "084504.934000", "084504.936000", "084504.939000", "084504.941000", "084504.943000", "084504.946000", "084504.948000", "084504.950000", "084504.953000", "084504.955000", "084504.958000", "084504.960000", "084504.962000", "084544.916000", "084544.919000", "084544.921000", "084544.923000", "084544.926000", "084544.928000", "084544.931000", "084544.933000", "084544.936000", "084544.938000", "084544.940000", "084544.943000", "084544.945000", "084544.948000", "084544.950000", "084544.952000", "084544.955000", "084544.957000", "084544.959000", "084544.962000", "084604.517000", "084604.520000", "084604.522000", "084604.524000", "084604.527000", "084604.529000", "084604.532000", "084604.534000", "084604.537000", "084604.539000"],
      "InstanceCreationTime": ["084004.922000", "084004.925000", "084004.927000", "084004.934000", "084004.936000", "084004.942000", "084004.944000", "084004.946000", "084004.949000", "084004.951000", "084004.953000", "084004.956000", "084004.958000", "084004.961000", "084004.963000", "084004.966000", "084004.968000", "084004.970000", "084004.973000", "084004.975000", "084044.916000", "084044.919000", "084044.928000", "084044.930000", "084044.932000", "084044.935000", "084044.937000", "084044.939000", "084044.942000", "084044.944000", "084044.947000", "084044.949000", "084044.951000", "084044.954000", "084044.956000", "084044.958000", "084044.961000", "084044.963000", "084044.969000", "084044.972000", "084104.916000", "084104.919000", "084104.921000", "084104.924000", "084104.926000", "084104.928000", "084104.932000", "084104.934000", "084104.937000", "084104.939000", "084144.917000", "084144.919000", "084144.921000", "084144.924000", "084144.926000", "084144.929000", "084144.931000", "084144.933000", "084144.936000", "084144.938000", "084144.941000", "084144.943000", "084144.946000", "084144.949000", "084144.951000", "084144.953000", "084144.956000", "084144.958000", "084144.961000", "084144.963000", "084224.916000", "084224.919000", "084224.921000", "084224.924000", "084224.926000", "084224.928000", "084224.931000", "084224.933000", "084224.936000", "084224.938000", "084224.940000", "084224.943000", "084224.945000", "084224.952000", "084224.954000", "084224.956000", "084224.959000", "084224.961000", "084224.964000", "084224.966000", "084304.916000", "084304.919000", "084304.921000", "084304.923000", "084304.926000", "084304.928000", "084304.931000", "084304.933000", "084304.935000", "084304.938000", "084304.940000", "084304.942000", "084304.945000", "084304.947000", "084304.950000", "084304.952000", "084304.954000", "084304.966000", "084304.968000", "084304.970000", "084344.916000", "084344.919000", "084344.921000", "084344.923000", "084344.926000", "084344.929000", "084344.931000", "084344.933000", "084344.936000", "084344.938000", "084344.941000", "084344.943000", "084344.945000", "084344.948000", "084344.950000", "084344.952000", "084344.955000", "084344.957000", "084344.960000", "084344.962000", "084424.916000", "084424.919000", "084424.921000", "084424.924000", "084424.926000", "084424.929000", "084424.931000", "084424.933000", "084424.936000", "084424.938000", "084424.941000", "084424.943000", "084424.945000", "084424.948000", "084424.950000", "084424.952000", "084424.955000", "084424.957000", "084424.972000", "084424.975000", "084504.916000", "084504.919000", "084504.921000", "084504.924000", "084504.926000", "084504.928000", "084504.931000", "084504.934000", "084504.936000", "084504.939000", "084504.941000", "084504.943000", "084504.946000", "084504.948000", "084504.950000", "084504.953000", "084504.955000", "084504.958000", "084504.960000", "084504.962000", "084544.916000", "084544.919000", "084544.921000", "084544.923000", "084544.926000", "084544.928000", "084544.931000", "084544.933000", "084544.936000", "084544.938000", "084544.940000", "084544.943000", "084544.945000", "084544.948000", "084544.950000", "084544.952000", "084544.955000", "084544.957000", "084544.959000", "084544.962000", "084604.517000", "084604.520000", "084604.522000", "084604.524000", "084604.527000", "084604.529000", "084604.532000", "084604.534000", "084604.537000", "084604.539000"],
      "InstanceNumber": [1, 2, 3, 4, 5, 6, 7, 8, 9, 10, 11, 12, 13, 14, 15, 16, 17, 18, 19, 20, 21, 22, 23, 24, 25, 26, 27, 28, 29, 30, 31, 32, 33, 34, 35, 36, 37, 38, 39, 40, 41, 42, 43, 44, 45, 46, 47, 48, 49, 50, 51, 52, 53, 54, 55, 56, 57, 58, 59, 60, 61, 62, 63, 64, 65, 66, 67, 68, 69, 70, 71, 72, 73, 74, 75, 76, 77, 78, 79, 80, 81, 82, 83, 84, 85, 86, 87, 88, 89, 90, 91, 92, 93, 94, 95, 96, 97, 98, 99, 100, 101, 102, 103, 104, 105, 106, 107, 108, 109, 110, 111, 112, 113, 114, 115, 116, 117, 118, 119, 120, 121, 122, 123, 124, 125, 126, 127, 128, 129, 130, 131, 132, 133, 134, 135, 136, 137, 138, 139, 140, 141, 142, 143, 144, 145, 146, 147, 148, 149, 150, 151, 152, 153, 154, 155, 156, 157, 158, 159, 160, 161, 162, 163, 164, 165, 166, 167, 168, 169, 170, 171, 172, 173, 174, 175, 176, 177, 178, 179, 180, 181, 182, 183, 184, 185, 186, 187, 188, 189, 190, 191, 192, 193, 194, 195, 196, 197, 198, 199, 200],
      "LargestImagePixelValue": [3880, 3885, 3874, 3892, 3876, 3873, 3874, 3878, 3887, 3877, 3879, 3881, 3866, 3867, 3878, 3875, 3876, 3870, 3864, 3878, 3865, 3878, 3864, 3877, 3875, 3890, 3868, 3883, 3858, 3867, 3875, 3878, 3878, 3870, 3854, 3878, 3870, 3884, 3878, 3879, 3881, 3875, 3889, 3857, 3877, 3872, 3880, 3885, 3863, 3866, 3865, 3867, 3883, 3864, 3872, 3881, 3869, 3890, 3881, 3879, 3868, 3882, 3883, 3886, 3875, 3872, 3880, 3868, 3868, 3886, 3879, 3874, 3872, 3891, 3884, 3884, 3857, 3861, 3881, 3872, 3872, 3873, 3884, 3874, 3878, 3875, 3888, 3867, 3882, 3870, 3887, 3885, 3872, 3870, 3874, 3883, 3871, 3869, 3880, 3881, 3872, 3873, 3874, 3875, 3872, 3879, 3882, 3881, 3880, 3866, 3869, 3871, 3891, 3878, 3871, 3881, 3874, 3883, 3892, 3871, 3876, 3871, 3864, 3883, 3872, 3879, 3877, 3875, 3887, 3868, 3869, 3879, 3859, 3896, 3885, 3877, 3881, 3873, 3881, 3882, 3892, 3892, 3900, 3870, 3890, 3873, 3858, 3876, 3882, 3866, 3880, 3875, 3884, 3879, 3883, 3877, 3884, 3894, 3881, 3874, 3879, 3885, 3884, 3880, 3884, 3899, 3861, 3879, 3885, 3879, 3877, 3882, 3878, 3881, 3889, 3880, 3884, 3880, 3885, 3863, 3874, 3888, 3884, 3875, 3864, 3872, 3890, 3884, 3882, 3878, 3881, 3893, 3879, 3878, 3872, 3887, 3883, 3889, 3878, 3876],
      "WindowCenter": [1456.0, 1456.0, 1456.0, 1456.0, 1456.0, 1455.0, 1455.0, 1455.0, 1455.0, 1455.0, 1455.0, 1455.0, 1456.0, 1455.0, 1454.0, 1455.0, 1455.0, 1455.0, 1455.0, 1455.0, 1455.0, 1455.0, 1455.0, 1455.0, 1455.0, 1455.0, 1455.0, 1454.0, 1455.0, 1454.0, 1454.0, 1455.0, 1454.0, 1454.0, 1455.0, 1455.0, 1454.0, 1454.0, 1454.0, 1455.0, 1454.0, 1454.0, 1454.0, 1454.0, 1454.0, 1453.0, 1454.0, 1454.0, 1454.0, 1454.0, 1454.0, 1454.0, 1454.0, 1454.0, 1454.0, 1453.0, 1454.0, 1453.0, 1453.0, 1453.0, 1453.0, 1454.0, 1453.0, 1454.0, 1454.0, 1454.0, 1453.0, 1453.0, 1454.0, 1454.0, 1453.0, 1454.0, 1453.0, 1453.0, 1453.0, 1453.0, 1453.0, 1453.0, 1453.0, 1454.0, 1453.0, 1453.0, 1453.0, 1453.0, 1453.0, 1453.0, 1453.0, 1453.0, 1453.0, 1452.0, 1453.0, 1453.0, 1453.0, 1452.0, 1453.0, 1453.0, 1453.0, 1453.0, 1453.0, 1453.0, 1453.0, 1453.0, 1453.0, 1452.0, 1453.0, 1453.0, 1453.0, 1453.0, 1453.0, 1453.0, 1452.0, 1453.0, 1452.0, 1452.0, 1452.0, 1452.0, 1453.0, 1452.0, 1452.0, 1453.0, 1453.0, 1452.0, 1452.0, 1453.0, 1453.0, 1452.0, 1452.0, 1452.0, 1452.0, 1452.0, 1452.0, 1452.0, 1452.0, 1452.0, 1452.0, 1452.0, 1452.0, 1453.0, 1452.0, 1452.0, 1452.0, 1452.0, 1452.0, 1452.0, 1452.0, 1452.0, 1452.0, 1452.0, 1452.0, 1452.0, 1452.0, 1452.0, 1452.0, 1452.0, 1452.0, 1452.0, 1452.0, 1452.0, 1452.0, 1452.0, 1451.0, 1451.0, 1452.0, 1452.0, 1452.0, 1452.0, 1452.0, 1451.0, 1451.0, 1451.0, 1451.0, 1452.0, 1452.0, 1451.0, 1451.0, 1452.0, 1452.0, 1451.0, 1450.0, 1451.0, 1452.0, 1451.0, 1451.0, 1451.0, 1451.0, 1451.0, 1450.0, 1451.0, 1451.0, 1452.0, 1451.0, 1451.0, 1451.0, 1451.0, 1451.0, 1451.0, 1450.0, 1451.0, 1451.0, 1452.0],
      "WindowWidth": [3328.0, 3326.0, 3326.0, 3326.0, 3326.0, 3327.0, 3326.0, 3326.0, 3327.0, 3327.0, 3326.0, 3326.0, 3326.0, 3326.0, 3327.0, 3326.0, 3327.0, 3327.0, 3326.0, 3326.0, 3326.0, 3327.0, 3326.0, 3326.0, 3326.0, 3326.0, 3326.0, 3327.0, 3327.0, 3327.0, 3327.0, 3326.0, 3327.0, 3327.0, 3326.0, 3326.0, 3327.0, 3326.0, 3326.0, 3326.0, 3326.0, 3326.0, 3326.0, 3326.0, 3326.0, 3326.0, 3326.0, 3326.0, 3326.0, 3326.0, 3326.0, 3326.0, 3326.0, 3326.0, 3326.0, 3326.0, 3326.0, 3326.0, 3326.0, 3326.0, 3326.0, 3326.0, 3326.0, 3326.0, 3326.0, 3326.0, 3326.0, 3326.0, 3326.0, 3325.0, 3326.0, 3326.0, 3326.0, 3326.0, 3326.0, 3326.0, 3326.0, 3326.0, 3326.0, 3326.0, 3326.0, 3326.0, 3326.0, 3326.0, 3326.0, 3326.0, 3326.0, 3326.0, 3326.0, 3326.0, 3326.0, 3326.0, 3326.0, 3326.0, 3326.0, 3326.0, 3326.0, 3326.0, 3326.0, 3326.0, 3326.0, 3326.0, 3326.0, 3326.0, 3326.0, 3326.0, 3326.0, 3326.0, 3326.0, 3326.0, 3326.0, 3326.0, 3326.0, 3326.0, 3326.0, 3326.0, 3325.0, 3326.0, 3326.0, 3326.0, 3326.0, 3325.0, 3325.0, 3326.0, 3325.0, 3325.0, 3325.0, 3325.0, 3325.0, 3325.0, 3325.0, 3326.0, 3325.0, 3325.0, 3326.0, 3325.0, 3325.0, 3325.0, 3325.0, 3325.0, 3326.0, 3325.0, 3325.0, 3325.0, 3325.0, 3325.0, 3325.0, 3325.0, 3325.0, 3325.0, 3325.0, 3325.0, 3325.0, 3325.0, 3325.0, 3325.0, 3325.0, 3325.0, 3325.0, 3325.0, 3325.0, 3325.0, 3325.0, 3325.0, 3325.0, 3325.0, 3325.0, 3325.0, 3325.0, 3325.0, 3326.0, 3325.0, 3325.0, 3325.0, 3325.0, 3325.0, 3325.0, 3325.0, 3326.0, 3325.0, 3325.0, 3325.0, 3325.0, 3325.0, 3325.0, 3325.0, 3326.0, 3325.0, 3325.0, 3325.0, 3325.0, 3325.0, 3325.0, 3325.0, 3325.0, 3325.0, 3326.0, 3325.0, 3325.0, 3325.0]
    },
    "slices": {}
  }
}