{
  "AcquisitionMatrixPE": 80,
  "AcquisitionNumber": 1,
  "AcquisitionTime": "12:28:20.132500",
  "BandwidthPerPixelPhaseEncode": 44.643,
  "BaseResolution": 80,
  "BodyPartExamined": "BRAIN",
  "CoilCombinationMethod": "Sum of Squares",
  "ConsistencyInfo": "N4_VE11C_LATEST_20160120",
  "ConversionSoftware": "dcm2niix",
  "ConversionSoftwareVersion": "v1.0.20220720",
  "DerivedVendorReportedEchoSpacing": 0.000559998,
  "DeviceSerialNumber": "66112",
  "DwellTime": 2.7e-06,
  "EchoTime": 0.035,
  "EchoTrainLength": 39,
  "EffectiveEchoSpacing": 0.000279999,
  "FlipAngle": 90,
  "HeudiconvVersion": "0.13.1",
  "ImageOrientationPatientDICOM": [0.977067, 0.212614, 0.0116096, -0.2059, 0.929504, 0.305985],
  "ImageOrientationText": "Tra>Cor(17.6)>Sag(-3.1)",
  "ImageType": [
    "ORIGINAL",
    "PRIMARY",
    "M",
    "ND",
    "NORM",
    "MOSAIC"
],
  "ImagingFrequency": 123.252,
  "InPlanePhaseEncodingDirectionDICOM": "COL",
  "InstitutionAddress": "Maynard 3,Hanover,NH,US,03755",
  "InstitutionName": "Dartmouth College - PBS",
  "InstitutionalDepartmentName": "Department",
  "MRAcquisitionType": "2D",
  "MagneticFieldStrength": 3,
  "Manufacturer": "Siemens",
  "ManufacturersModelName": "Prisma",
  "Modality": "MR",
  "MultibandAccelerationFactor": 4,
  "NonlinearGradientCorrection": false,
  "ParallelReductionFactorInPlane": 2,
  "PartialFourier": 1,
  "PatientPosition": "HFS",
  "PercentPhaseFOV": 100,
  "PercentSampling": 100,
  "PhaseEncodingDirection": "j-",
  "PhaseEncodingSteps": 79,
  "PhaseResolution": 1,
  "PixelBandwidth": 2315,
  "ProcedureStepDescription": "dbic^QA",
  "ProtocolName": "func-bold_task-rest_acq-p2-s4-3.5mm",
  "PulseSequenceDetails": "%SiemensSeq%\\ep2d_bold",
  "ReceiveCoilActiveElements": "HEA;HEP",
  "ReceiveCoilName": "Head_32",
  "ReconMatrixPE": 80,
  "RefLinesPE": 24,
  "RepetitionTime": 2,
  "SAR": 0.0208381,
  "ScanOptions": "FS",
  "ScanningSequence": "EP",
  "SequenceName": "*epfid2d1_80",
  "SequenceVariant": "SK",
  "SeriesDescription": "func-bold_task-rest_acq-p2-s4-3.5mm",
  "SeriesNumber": 7,
  "ShimSetting": [4145, -7690, -7507, 319, -15, -163, -77, 43],
  "SliceThickness": 3.5,
  "SliceTiming": [1.485, 0, 0.99, 0.2475, 1.2375, 0.7425, 1.7325, 0.495, 1.485, 0, 0.99, 0.2475, 1.2375, 0.7425, 1.7325, 0.495, 1.485, 0, 0.99, 0.2475, 1.2375, 0.7425, 1.7325, 0.495, 1.485, 0, 0.99, 0.2475, 1.2375, 0.7425, 1.7325, 0.495],
  "SoftwareVersions": "syngo MR E11",
  "SpacingBetweenSlices": 3.99,
  "StationName": "AWP66112",
  "TaskName": "rest",
  "TotalReadoutTime": 0.0221199,
  "TxRefAmp": 234.145,
  "dcmmeta_affine": [
    [-2.931201696395874, -0.61770099401474, -0.21651966869831085, 147.24598693847656],
    [-0.6378434300422668, 2.78851318359375, 1.202418565750122, -97.99251556396484],
    [0.03482887148857117, -0.9179540872573853, 3.7983429431915283, -28.83740234375],
    [0.0, 0.0, 0.0, 1.0]
],
  "dcmmeta_reorient_transform": [
    [0.0, -1.0, 0.0, 79.0],
    [1.0, 0.0, 0.0, 0.0],
    [0.0, 0.0, 1.0, 0.0],
    [0.0, 0.0, 0.0, 1.0]
],
  "dcmmeta_shape": [80, 80, 32, 200],
  "dcmmeta_slice_dim": 2,
  "dcmmeta_version": 0.6,
  "global": {
    "const": {
      "AccessionNumber": "qa",
      "AcquisitionMatrix": [80, 0, 0, 80],
      "AngioFlag": "N",
      "BitsAllocated": 16,
      "BitsStored": 12,
      "BodyPartExamined": "BRAIN",
      "Columns": 480,
      "EchoNumbers": 1,
      "EchoTime": 35.0,
      "EchoTrainLength": 39,
      "FlipAngle": 90.0,
      "HighBit": 11,
      "ImageOrientationPatient": [0.9770671926293, 0.21261448142341, 0.01160962430724, -0.2059003343961, 0.92950439186375, 0.30598470190775],
      "ImagePositionPatient": [-561.14771591941, -807.57135063809, -291.91237211967],
      "ImageType": [
        "ORIGINAL",
        "PRIMARY",
        "M",
        "ND",
        "NORM",
        "MOSAIC"
],
      "ImagedNucleus": "1H",
      "ImagingFrequency": 123.252436,
      "InPlanePhaseEncodingDirection": "COL",
      "MRAcquisitionType": "2D",
      "MagneticFieldStrength": 3.0,
      "Manufacturer": "SIEMENS",
      "ManufacturerModelName": "Prisma",
      "Modality": "MR",
      "NumberOfAverages": 1.0,
      "NumberOfPhaseEncodingSteps": 79,
      "PercentPhaseFieldOfView": 100.0,
      "PercentSampling": 100.0,
      "PerformedProcedureStepStartTime": "115415.689000",
      "PhotometricInterpretation": "MONOCHROME2",
      "PixelBandwidth": 2315.0,
      "PixelRepresentation": 0,
      "PixelSpacing": [3.0, 3.0],
      "ProtocolName": "func-bold_task-rest_acq-p2-s4-3.5mm",
      "RepetitionTime": 2000.0,
      "Rows": 480,
      "SAR": 0.02083810677178,
      "SamplesPerPixel": 1,
      "ScanOptions": "FS",
      "ScanningSequence": "EP",
      "SequenceName": "*epfid2d1_80",
      "SequenceVariant": "SK",
      "SeriesDescription": "func-bold_task-rest_acq-p2-s4-3.5mm",
      "SeriesNumber": 7,
      "SeriesTime": "122918.742000",
      "SliceLocation": -64.973436617058,
      "SliceThickness": 3.5,
      "SmallestImagePixelValue": 0,
      "SoftwareVersions": "syngo MR E11",
      "SpacingBetweenSlices": 3.9900000283848,
      "SpecificCharacterSet": "ISO_IR 100",
      "StudyID": "66",
      "StudyTime": "115415.627000",
      "TransmitCoilName": "Body",
      "VariableFlipAngleFlag": "N",
      "WindowCenterWidthExplanation": "Algo1",
      "dBdt": 0.0},
    "slices": {}
  },
  "time": {
    "samples": {
      "AcquisitionNumber": [1, 2, 3, 4, 5, 6, 7, 8, 9, 10, 11, 12, 13, 14, 15, 16, 17, 18, 19, 20, 21, 22, 23, 24, 25, 26, 27, 28, 29, 30, 31, 32, 33, 34, 35, 36, 37, 38, 39, 40, 41, 42, 43, 44, 45, 46, 47, 48, 49, 50, 51, 52, 53, 54, 55, 56, 57, 58, 59, 60, 61, 62, 63, 64, 65, 66, 67, 68, 69, 70, 71, 72, 73, 74, 75, 76, 77, 78, 79, 80, 81, 82, 83, 84, 85, 86, 87, 88, 89, 90, 91, 92, 93, 94, 95, 96, 97, 98, 99, 100, 101, 102, 103, 104, 105, 106, 107, 108, 109, 110, 111, 112, 113, 114, 115, 116, 117, 118, 119, 120, 121, 122, 123, 124, 125, 126, 127, 128, 129, 130, 131, 132, 133, 134, 135, 136, 137, 138, 139, 140, 141, 142, 143, 144, 145, 146, 147, 148, 149, 150, 151, 152, 153, 154, 155, 156, 157, 158, 159, 160, 161, 162, 163, 164, 165, 166, 167, 168, 169, 170, 171, 172, 173, 174, 175, 176, 177, 178, 179, 180, 181, 182, 183, 184, 185, 186, 187, 188, 189, 190, 191, 192, 193, 194, 195, 196, 197, 198, 199, 200],
      "AcquisitionTime": ["122820.132500", "122822.132500", "122824.132500", "122826.132500", "122828.132500", "122830.132500", "122832.132500", "122834.132500", "122836.132500", "122838.132500", "122840.132500", "122842.132500", "122844.132500", "122846.132500", "122848.132500", "122850.132500", "122852.132500", "122854.132500", "122856.132500", "122858.132500", "122900.132500", "122902.132500", "122904.132500", "122906.132500", "122908.132500", "122910.132500", "122912.132500", "122914.132500", "122916.132500", "122918.132500", "122920.132500", "122922.132500", "122924.132500", "122926.132500", "122928.132500", "122930.132500", "122932.132500", "122934.132500", "122936.132500", "122938.132500", "122940.132500", "122942.132500", "122944.132500", "122946.132500", "122948.132500", "122950.132500", "122952.132500", "122954.132500", "122956.132500", "122958.132500", "123000.132500", "123002.132500", "123004.132500", "123006.132500", "123008.132500", "123010.132500", "123012.132500", "123014.132500", "123016.132500", "123018.132500", "123020.132500", "123022.132500", "123024.132500", "123026.132500", "123028.132500", "123030.132500", "123032.132500", "123034.132500", "123036.132500", "123038.132500", "123040.132500", "123042.132500", "123044.132500", "123046.132500", "123048.132500", "123050.132500", "123052.132500", "123054.132500", "123056.132500", "123058.132500", "123100.132500", "123102.132500", "123104.132500", "123106.132500", "123108.132500", "123110.132500", "123112.132500", "123114.132500", "123116.132500", "123118.132500", "123120.132500", "123122.132500", "123124.132500", "123126.132500", "123128.132500", "123130.132500", "123132.132500", "123134.132500", "123136.132500", "123138.132500", "123140.132500", "123142.132500", "123144.132500", "123146.132500", "123148.132500", "123150.132500", "123152.132500", "123154.132500", "123156.132500", "123158.132500", "123200.132500", "123202.132500", "123204.132500", "123206.132500", "123208.132500", "123210.132500", "123212.132500", "123214.132500", "123216.132500", "123218.132500", "123220.132500", "123222.132500", "123224.132500", "123226.132500", "123228.132500", "123230.132500", "123232.132500", "123234.132500", "123236.132500", "123238.132500", "123240.132500", "123242.132500", "123244.132500", "123246.132500", "123248.132500", "123250.132500", "123252.132500", "123254.132500", "123256.132500", "123258.132500", "123300.132500", "123302.132500", "123304.132500", "123306.132500", "123308.132500", "123310.132500", "123312.132500", "123314.132500", "123316.132500", "123318.132500", "123320.132500", "123322.132500", "123324.132500", "123326.132500", "123328.132500", "123330.132500", "123332.132500", "123334.132500", "123336.132500", "123338.132500", "123340.132500", "123342.132500", "123344.132500", "123346.132500", "123348.132500", "123350.132500", "123352.132500", "123354.132500", "123356.132500", "123358.132500", "123400.132500", "123402.132500", "123404.132500", "123406.132500", "123408.132500", "123410.132500", "123412.132500", "123414.132500", "123416.132500", "123418.132500", "123420.132500", "123422.132500", "123424.132500", "123426.132500", "123428.132500", "123430.132500", "123432.132500", "123434.132500", "123436.132500", "123438.132500", "123440.132500", "123442.132500", "123444.132500", "123446.132500", "123448.132500", "123450.132500", "123452.132500", "123454.132500", "123456.132500", "123458.132500"],
      "ContentTime": ["122918.745000", "122918.753000", "122918.756000", "122918.759000", "122918.762000", "122918.764000", "122918.767000", "122918.917000", "122918.920000", "122918.922000", "122918.925000", "122918.928000", "122918.930000", "122918.933000", "122918.935000", "122918.938000", "122918.941000", "122918.943000", "122918.946000", "122918.949000", "122918.951000", "122918.954000", "122918.957000", "122918.959000", "122918.962000", "122918.965000", "122918.967000", "122918.970000", "122918.973000", "122958.741000", "122958.744000", "122958.746000", "122958.749000", "122958.752000", "122958.754000", "122958.757000", "122958.760000", "122958.762000", "122958.765000", "122958.768000", "122958.771000", "122958.774000", "122958.776000", "122958.779000", "122958.782000", "122958.785000", "122958.787000", "122958.790000", "122958.793000", "123038.740000", "123038.743000", "123038.745000", "123038.748000", "123038.750000", "123038.753000", "123038.756000", "123038.759000", "123038.761000", "123038.764000", "123038.766000", "123038.769000", "123038.772000", "123038.775000", "123038.778000", "123038.780000", "123038.783000", "123038.786000", "123038.789000", "123038.792000", "123118.740000", "123118.743000", "123118.746000", "123118.748000", "123118.751000", "123118.754000", "123118.756000", "123118.759000", "123118.762000", "123118.764000", "123118.767000", "123118.769000", "123118.772000", "123118.775000", "123118.777000", "123118.780000", "123118.783000", "123118.785000", "123118.788000", "123118.791000", "123158.741000", "123158.743000", "123158.746000", "123158.749000", "123158.751000", "123158.754000", "123158.757000", "123158.759000", "123158.762000", "123158.764000", "123158.767000", "123158.949000", "123158.952000", "123158.954000", "123158.957000", "123158.960000", "123158.962000", "123158.965000", "123158.967000", "123158.970000", "123238.741000", "123238.743000", "123238.746000", "123238.749000", "123238.751000", "123238.754000", "123238.757000", "123238.763000", "123238.765000", "123238.768000", "123238.771000", "123238.774000", "123238.776000", "123238.779000", "123238.782000", "123238.784000", "123238.787000", "123238.789000", "123238.792000", "123238.795000", "123318.740000", "123318.743000", "123318.755000", "123318.758000", "123318.760000", "123318.763000", "123318.766000", "123318.769000", "123318.771000", "123318.774000", "123318.777000", "123318.779000", "123318.782000", "123318.785000", "123318.787000", "123318.790000", "123318.792000", "123318.795000", "123318.798000", "123318.800000", "123358.741000", "123358.744000", "123358.746000", "123358.749000", "123358.752000", "123358.754000", "123358.757000", "123358.760000", "123358.762000", "123358.765000", "123358.768000", "123358.770000", "123358.773000", "123358.775000", "123358.778000", "123358.781000", "123358.783000", "123358.786000", "123358.789000", "123358.791000", "123438.740000", "123438.743000", "123438.746000", "123438.749000", "123438.751000", "123438.754000", "123438.757000", "123438.759000", "123438.762000", "123438.764000", "123438.767000", "123438.770000", "123438.773000", "123438.775000", "123438.778000", "123438.780000", "123438.783000", "123438.786000", "123438.798000", "123438.800000", "123459.369000", "123459.372000", "123459.374000", "123459.377000", "123459.380000", "123459.383000", "123459.385000", "123459.388000", "123459.391000", "123459.393000", "123459.396000"],
      "InstanceCreationTime": ["122918.745000", "122918.753000", "122918.756000", "122918.759000", "122918.762000", "122918.764000", "122918.767000", "122918.917000", "122918.920000", "122918.922000", "122918.925000", "122918.928000", "122918.930000", "122918.933000", "122918.935000", "122918.938000", "122918.941000", "122918.943000", "122918.946000", "122918.949000", "122918.951000", "122918.954000", "122918.957000", "122918.959000", "122918.962000", "122918.965000", "122918.967000", "122918.970000", "122918.973000", "122958.741000", "122958.744000", "122958.746000", "122958.749000", "122958.752000", "122958.754000", "122958.757000", "122958.760000", "122958.762000", "122958.765000", "122958.768000", "122958.771000", "122958.774000", "122958.776000", "122958.779000", "122958.782000", "122958.785000", "122958.787000", "122958.790000", "122958.793000", "123038.740000", "123038.743000", "123038.745000", "123038.748000", "123038.750000", "123038.753000", "123038.756000", "123038.759000", "123038.761000", "123038.764000", "123038.766000", "123038.769000", "123038.772000", "123038.775000", "123038.778000", "123038.780000", "123038.783000", "123038.786000", "123038.789000", "123038.792000", "123118.740000", "123118.743000", "123118.746000", "123118.748000", "123118.751000", "123118.754000", "123118.756000", "123118.759000", "123118.762000", "123118.764000", "123118.767000", "123118.769000", "123118.772000", "123118.775000", "123118.777000", "123118.780000", "123118.783000", "123118.785000", "123118.788000", "123118.791000", "123158.741000", "123158.743000", "123158.746000", "123158.749000", "123158.751000", "123158.754000", "123158.757000", "123158.759000", "123158.762000", "123158.764000", "123158.767000", "123158.949000", "123158.952000", "123158.954000", "123158.957000", "123158.960000", "123158.962000", "123158.965000", "123158.967000", "123158.970000", "123238.741000", "123238.743000", "123238.746000", "123238.749000", "123238.751000", "123238.754000", "123238.757000", "123238.763000", "123238.765000", "123238.768000", "123238.771000", "123238.774000", "123238.776000", "123238.779000", "123238.782000", "123238.784000", "123238.787000", "123238.789000", "123238.792000", "123238.795000", "123318.740000", "123318.743000", "123318.755000", "123318.758000", "123318.760000", "123318.763000", "123318.766000", "123318.769000", "123318.771000", "123318.774000", "123318.777000", "123318.779000", "123318.782000", "123318.785000", "123318.787000", "123318.790000", "123318.792000", "123318.795000", "123318.798000", "123318.800000", "123358.741000", "123358.744000", "123358.746000", "123358.749000", "123358.752000", "123358.754000", "123358.757000", "123358.760000", "123358.762000", "123358.765000", "123358.768000", "123358.770000", "123358.773000", "123358.775000", "123358.778000", "123358.781000", "123358.783000", "123358.786000", "123358.789000", "123358.791000", "123438.740000", "123438.743000", "123438.746000", "123438.749000", "123438.751000", "123438.754000", "123438.757000", "123438.759000", "123438.762000", "123438.764000", "123438.767000", "123438.770000", "123438.773000", "123438.775000", "123438.778000", "123438.780000", "123438.783000", "123438.786000", "123438.798000", "123438.800000", "123459.369000", "123459.372000", "123459.374000", "123459.377000", "123459.380000", "123459.383000", "123459.385000", "123459.388000", "123459.391000", "123459.393000", "123459.396000"],
      "InstanceNumber": [1, 2, 3, 4, 5, 6, 7, 8, 9, 10, 11, 12, 13, 14, 15, 16, 17, 18, 19, 20, 21, 22, 23, 24, 25, 26, 27, 28, 29, 30, 31, 32, 33, 34, 35, 36, 37, 38, 39, 40, 41, 42, 43, 44, 45, 46, 47, 48, 49, 50, 51, 52, 53, 54, 55, 56, 57, 58, 59, 60, 61, 62, 63, 64, 65, 66, 67, 68, 69, 70, 71, 72, 73, 74, 75, 76, 77, 78, 79, 80, 81, 82, 83, 84, 85, 86, 87, 88, 89, 90, 91, 92, 93, 94, 95, 96, 97, 98, 99, 100, 101, 102, 103, 104, 105, 106, 107, 108, 109, 110, 111, 112, 113, 114, 115, 116, 117, 118, 119, 120, 121, 122, 123, 124, 125, 126, 127, 128, 129, 130, 131, 132, 133, 134, 135, 136, 137, 138, 139, 140, 141, 142, 143, 144, 145, 146, 147, 148, 149, 150, 151, 152, 153, 154, 155, 156, 157, 158, 159, 160, 161, 162, 163, 164, 165, 166, 167, 168, 169, 170, 171, 172, 173, 174, 175, 176, 177, 178, 179, 180, 181, 182, 183, 184, 185, 186, 187, 188, 189, 190, 191, 192, 193, 194, 195, 196, 197, 198, 199, 200],
      "LargestImagePixelValue": [1915, 1921, 1916, 1920, 1913, 1916, 1919, 1908, 1918, 1920, 1921, 1917, 1917, 1918, 1916, 1915, 1918, 1920, 1924, 1918, 1920, 1914, 1920, 1920, 1916, 1915, 1916, 1921, 1918, 1917, 1918, 1923, 1918, 1918, 1917, 1918, 1916, 1918, 1919, 1916, 1918, 1912, 1917, 1919, 1918, 1918, 1914, 1916, 1920, 1914, 1917, 1918, 1919, 1921, 1920, 1917, 1918, 1921, 1924, 1923, 1919, 1918, 1920, 1922, 1917, 1920, 1916, 1922, 1920, 1916, 1918, 1919, 1921, 1916, 1918, 1922, 1922, 1916, 1915, 1919, 1919, 1921, 1915, 1918, 1921, 1916, 1919, 1923, 1915, 1916, 1918, 1920, 1917, 1915, 1920, 1922, 1922, 1920, 1916, 1919, 1919, 1919, 1916, 1919, 1919, 1915, 1920, 1915, 1917, 1913, 1917, 1918, 1919, 1919, 1916, 1921, 1922, 1918, 1920, 1918, 1919, 1918, 1921, 1918, 1917, 1918, 1918, 1918, 1923, 1917, 1920, 1919, 1919, 1922, 1922, 1918, 1919, 1921, 1917, 1918, 1916, 1917, 1921, 1920, 1920, 1922, 1919, 1922, 1920, 1922, 1919, 1915, 1918, 1920, 1918, 1916, 1918, 1918, 1921, 1919, 1917, 1917, 1919, 1921, 1924, 1917, 1918, 1924, 1919, 1922, 1917, 1917, 1925, 1918, 1919, 1914, 1916, 1922, 1920, 1912, 1919, 1917, 1919, 1916, 1921, 1921, 1918, 1919, 1918, 1925, 1921, 1916, 1918, 1917, 1917, 1917, 1923, 1918, 1916, 1921],
      "WindowCenter": [899.0, 899.0, 900.0, 900.0, 900.0, 899.0, 899.0, 900.0, 900.0, 900.0, 900.0, 900.0, 900.0, 900.0, 900.0, 900.0, 900.0, 900.0, 900.0, 900.0, 900.0, 900.0, 900.0, 900.0, 900.0, 900.0, 900.0, 900.0, 900.0, 900.0, 900.0, 900.0, 900.0, 899.0, 900.0, 900.0, 900.0, 900.0, 900.0, 900.0, 900.0, 900.0, 900.0, 900.0, 900.0, 900.0, 899.0, 900.0, 900.0, 900.0, 900.0, 900.0, 900.0, 900.0, 900.0, 900.0, 900.0, 900.0, 900.0, 900.0, 900.0, 900.0, 900.0, 900.0, 900.0, 900.0, 900.0, 900.0, 900.0, 900.0, 900.0, 900.0, 900.0, 900.0, 900.0, 900.0, 900.0, 900.0, 900.0, 900.0, 900.0, 900.0, 900.0, 900.0, 900.0, 900.0, 900.0, 900.0, 900.0, 900.0, 900.0, 900.0, 900.0, 900.0, 900.0, 900.0, 900.0, 900.0, 900.0, 900.0, 900.0, 900.0, 900.0, 900.0, 900.0, 900.0, 900.0, 900.0, 900.0, 900.0, 900.0, 900.0, 900.0, 900.0, 900.0, 900.0, 900.0, 900.0, 900.0, 900.0, 900.0, 900.0, 900.0, 900.0, 900.0, 900.0, 900.0, 900.0, 900.0, 900.0, 900.0, 900.0, 900.0, 900.0, 900.0, 900.0, 900.0, 900.0, 900.0, 900.0, 900.0, 900.0, 900.0, 900.0, 900.0, 900.0, 900.0, 900.0, 900.0, 900.0, 900.0, 900.0, 900.0, 900.0, 900.0, 900.0, 900.0, 900.0, 900.0, 900.0, 900.0, 900.0, 900.0, 900.0, 900.0, 900.0, 900.0, 900.0, 900.0, 900.0, 900.0, 900.0, 900.0, 900.0, 900.0, 900.0, 900.0, 900.0, 900.0, 900.0, 900.0, 900.0, 900.0, 900.0, 900.0, 900.0, 900.0, 900.0, 900.0, 900.0, 900.0, 900.0, 900.0, 900.0, 900.0, 900.0, 900.0, 900.0, 900.0, 900.0],
      "WindowWidth": [2022.0, 2022.0, 2022.0, 2022.0, 2022.0, 2022.0, 2022.0, 2022.0, 2022.0, 2022.0, 2023.0, 2023.0, 2022.0, 2023.0, 2023.0, 2023.0, 2023.0, 2023.0, 2023.0, 2023.0, 2023.0, 2022.0, 2023.0, 2023.0, 2023.0, 2023.0, 2023.0, 2023.0, 2023.0, 2023.0, 2023.0, 2023.0, 2022.0, 2023.0, 2022.0, 2022.0, 2022.0, 2023.0, 2022.0, 2023.0, 2023.0, 2023.0, 2022.0, 2022.0, 2023.0, 2023.0, 2022.0, 2023.0, 2022.0, 2023.0, 2023.0, 2023.0, 2023.0, 2023.0, 2022.0, 2023.0, 2023.0, 2023.0, 2023.0, 2023.0, 2023.0, 2023.0, 2023.0, 2023.0, 2023.0, 2023.0, 2023.0, 2023.0, 2023.0, 2023.0, 2023.0, 2023.0, 2023.0, 2023.0, 2023.0, 2023.0, 2023.0, 2023.0, 2023.0, 2023.0, 2023.0, 2023.0, 2023.0, 2023.0, 2023.0, 2023.0, 2022.0, 2023.0, 2023.0, 2023.0, 2023.0, 2023.0, 2023.0, 2023.0, 2023.0, 2023.0, 2023.0, 2023.0, 2023.0, 2023.0, 2023.0, 2023.0, 2023.0, 2023.0, 2023.0, 2023.0, 2023.0, 2022.0, 2022.0, 2023.0, 2023.0, 2023.0, 2023.0, 2023.0, 2023.0, 2023.0, 2023.0, 2023.0, 2023.0, 2023.0, 2023.0, 2023.0, 2023.0, 2023.0, 2023.0, 2023.0, 2023.0, 2023.0, 2023.0, 2023.0, 2023.0, 2023.0, 2023.0, 2023.0, 2023.0, 2023.0, 2023.0, 2023.0, 2023.0, 2023.0, 2023.0, 2023.0, 2023.0, 2023.0, 2023.0, 2023.0, 2023.0, 2023.0, 2023.0, 2023.0, 2023.0, 2023.0, 2023.0, 2023.0, 2023.0, 2024.0, 2023.0, 2023.0, 2023.0, 2023.0, 2023.0, 2023.0, 2024.0, 2023.0, 2023.0, 2023.0, 2023.0, 2023.0, 2023.0, 2023.0, 2023.0, 2023.0, 2023.0, 2023.0, 2023.0, 2023.0, 2023.0, 2023.0, 2023.0, 2023.0, 2023.0, 2024.0, 2023.0, 2023.0, 2023.0, 2023.0, 2023.0, 2023.0, 2023.0, 2023.0, 2023.0, 2023.0, 2023.0, 2023.0, 2023.0, 2023.0, 2023.0, 2023.0, 2023.0, 2023.0]
    },
    "slices": {}
  }
}