{
  "AcquisitionMatrixPE": 80,
  "AcquisitionNumber": 1,
  "AcquisitionTime": "12:21:26.200000",
  "BandwidthPerPixelPhaseEncode": 48.077,
  "BaseResolution": 80,
  "BodyPartExamined": "BRAIN",
  "CoilCombinationMethod": "Sum of Squares",
  "ConsistencyInfo": "N4_VE11C_LATEST_20160120",
  "ConversionSoftware": "dcm2niix",
  "ConversionSoftwareVersion": "v1.0.20220720",
  "DerivedVendorReportedEchoSpacing": 0.000519999,
  "DeviceSerialNumber": "66112",
  "DwellTime": 2.7e-06,
  "EchoTime": 0.035,
  "EchoTrainLength": 39,
  "EffectiveEchoSpacing": 0.00026,
  "FlipAngle": 90,
  "HeudiconvVersion": "0.13.1",
  "ImageOrientationPatientDICOM": [0.977067, 0.212614, 0.0116096, -0.2059, 0.929504, 0.305985],
  "ImageOrientationText": "Tra>Cor(17.6)>Sag(-3.1)",
  "ImageType": [
    "ORIGINAL",
    "PRIMARY",
    "M",
    "ND",
    "NORM",
    "MOSAIC"
],
  "ImagingFrequency": 123.252,
  "InPlanePhaseEncodingDirectionDICOM": "COL",
  "InstitutionAddress": "Maynard 3,Hanover,NH,US,03755",
  "InstitutionName": "Dartmouth College - PBS",
  "InstitutionalDepartmentName": "Department",
  "MRAcquisitionType": "2D",
  "MagneticFieldStrength": 3,
  "Manufacturer": "Siemens",
  "ManufacturersModelName": "Prisma",
  "MatrixCoilMode": "GRAPPA",
  "Modality": "MR",
  "NonlinearGradientCorrection": false,
  "ParallelReductionFactorInPlane": 2,
  "PartialFourier": 1,
  "PatientPosition": "HFS",
  "PercentPhaseFOV": 100,
  "PercentSampling": 100,
  "PhaseEncodingDirection": "j-",
  "PhaseEncodingSteps": 79,
  "PhaseResolution": 1,
  "PixelBandwidth": 2315,
  "ProcedureStepDescription": "dbic^QA",
  "ProtocolName": "func-bold_task-rest_acq-p2",
  "PulseSequenceDetails": "%SiemensSeq%\\ep2d_bold",
  "ReceiveCoilActiveElements": "HEA;HEP",
  "ReceiveCoilName": "Head_32",
  "ReconMatrixPE": 80,
  "RefLinesPE": 24,
  "RepetitionTime": 2,
  "SAR": 0.0554162,
  "ScanOptions": "FS",
  "ScanningSequence": "EP",
  "SequenceName": "*epfid2d1_80",
  "SequenceVariant": "SK",
  "SeriesDescription": "func-bold_task-rest_acq-p2",
  "SeriesNumber": 5,
  "ShimSetting": [4144, -7690, -7507, 328, -10, -162, -77, 42],
  "SliceThickness": 3.5,
  "SliceTiming": [0.99, 0, 1.055, 0.065, 1.12, 0.1325, 1.1875, 0.1975, 1.2525, 0.2625, 1.32, 0.33, 1.385, 0.395, 1.45, 0.4625, 1.5175, 0.5275, 1.5825, 0.5925, 1.65, 0.66, 1.715, 0.725, 1.78, 0.7925, 1.8475, 0.8575, 1.9125, 0.9225],
  "SoftwareVersions": "syngo MR E11",
  "SpacingBetweenSlices": 3.99,
  "StationName": "AWP66112",
  "TaskName": "rest",
  "TotalReadoutTime": 0.02054,
  "TxRefAmp": 234.145,
  "dcmmeta_affine": [
    [-2.931201696395874, -0.61770099401474, -0.21651966869831085, 147.0294647216797],
    [-0.6378434300422668, 2.78851318359375, 1.202418565750122, -96.79009246826172],
    [0.03482887148857117, -0.9179540872573853, 3.7983429431915283, -25.039058685302734],
    [0.0, 0.0, 0.0, 1.0]
],
  "dcmmeta_reorient_transform": [
    [0.0, -1.0, 0.0, 79.0],
    [1.0, 0.0, 0.0, 0.0],
    [0.0, 0.0, 1.0, 0.0],
    [0.0, 0.0, 0.0, 1.0]
],
  "dcmmeta_shape": [80, 80, 30, 200],
  "dcmmeta_slice_dim": 2,
  "dcmmeta_version": 0.6,
  "global": {
    "const": {
      "AccessionNumber": "qa",
      "AcquisitionMatrix": [80, 0, 0, 80],
      "AngioFlag": "N",
      "BitsAllocated": 16,
      "BitsStored": 12,
      "BodyPartExamined": "BRAIN",
      "Columns": 480,
      "EchoNumbers": 1,
      "EchoTime": 35.0,
      "EchoTrainLength": 39,
      "FlipAngle": 90.0,
      "HighBit": 11,
      "ImageOrientationPatient": [0.9770671926293, 0.21261448142341, 0.01160962430724, -0.2059003343961, 0.92950439186375, 0.30598470190775],
      "ImagePositionPatient": [-560.9311960868, -808.77376896542, -288.11402846122],
      "ImageType": [
        "ORIGINAL",
        "PRIMARY",
        "M",
        "ND",
        "NORM",
        "MOSAIC"
],
      "ImagedNucleus": "1H",
      "ImagingFrequency": 123.252433,
      "InPlanePhaseEncodingDirection": "COL",
      "MRAcquisitionType": "2D",
      "MagneticFieldStrength": 3.0,
      "Manufacturer": "SIEMENS",
      "ManufacturerModelName": "Prisma",
      "Modality": "MR",
      "NumberOfAverages": 1.0,
      "NumberOfPhaseEncodingSteps": 79,
      "PercentPhaseFieldOfView": 100.0,
      "PercentSampling": 100.0,
      "PerformedProcedureStepStartTime": "115415.689000",
      "PhotometricInterpretation": "MONOCHROME2",
      "PixelBandwidth": 2315.0,
      "PixelRepresentation": 0,
      "PixelSpacing": [3.0, 3.0],
      "ProtocolName": "func-bold_task-rest_acq-p2",
      "RepetitionTime": 2000.0,
      "Rows": 480,
      "SAR": 0.05541620051569,
      "SamplesPerPixel": 1,
      "ScanOptions": "FS",
      "ScanningSequence": "EP",
      "SequenceName": "*epfid2d1_80",
      "SequenceVariant": "SK",
      "SeriesDescription": "func-bold_task-rest_acq-p2",
      "SeriesNumber": 5,
      "SeriesTime": "122218.990000",
      "SliceLocation": -60.983435962988,
      "SliceThickness": 3.5,
      "SmallestImagePixelValue": 0,
      "SoftwareVersions": "syngo MR E11",
      "SpacingBetweenSlices": 3.9899999755469,
      "SpecificCharacterSet": "ISO_IR 100",
      "StudyID": "66",
      "StudyTime": "115415.627000",
      "TransmitCoilName": "Body",
      "VariableFlipAngleFlag": "N",
      "WindowCenterWidthExplanation": "Algo1",
      "dBdt": 0.0},
    "slices": {}
  },
  "time": {
    "samples": {
      "AcquisitionNumber": [1, 2, 3, 4, 5, 6, 7, 8, 9, 10, 11, 12, 13, 14, 15, 16, 17, 18, 19, 20, 21, 22, 23, 24, 25, 26, 27, 28, 29, 30, 31, 32, 33, 34, 35, 36, 37, 38, 39, 40, 41, 42, 43, 44, 45, 46, 47, 48, 49, 50, 51, 52, 53, 54, 55, 56, 57, 58, 59, 60, 61, 62, 63, 64, 65, 66, 67, 68, 69, 70, 71, 72, 73, 74, 75, 76, 77, 78, 79, 80, 81, 82, 83, 84, 85, 86, 87, 88, 89, 90, 91, 92, 93, 94, 95, 96, 97, 98, 99, 100, 101, 102, 103, 104, 105, 106, 107, 108, 109, 110, 111, 112, 113, 114, 115, 116, 117, 118, 119, 120, 121, 122, 123, 124, 125, 126, 127, 128, 129, 130, 131, 132, 133, 134, 135, 136, 137, 138, 139, 140, 141, 142, 143, 144, 145, 146, 147, 148, 149, 150, 151, 152, 153, 154, 155, 156, 157, 158, 159, 160, 161, 162, 163, 164, 165, 166, 167, 168, 169, 170, 171, 172, 173, 174, 175, 176, 177, 178, 179, 180, 181, 182, 183, 184, 185, 186, 187, 188, 189, 190, 191, 192, 193, 194, 195, 196, 197, 198, 199, 200],
      "AcquisitionTime": ["122126.200000", "122128.200000", "122130.200000", "122132.200000", "122134.200000", "122136.200000", "122138.200000", "122140.200000", "122142.200000", "122144.200000", "122146.200000", "122148.200000", "122150.200000", "122152.200000", "122154.200000", "122156.200000", "122158.200000", "122200.200000", "122202.200000", "122204.200000", "122206.200000", "122208.200000", "122210.200000", "122212.200000", "122214.200000", "122216.200000", "122218.200000", "122220.200000", "122222.200000", "122224.200000", "122226.200000", "122228.200000", "122230.200000", "122232.200000", "122234.200000", "122236.200000", "122238.200000", "122240.200000", "122242.200000", "122244.200000", "122246.200000", "122248.200000", "122250.200000", "122252.200000", "122254.200000", "122256.200000", "122258.200000", "122300.200000", "122302.200000", "122304.200000", "122306.200000", "122308.200000", "122310.200000", "122312.200000", "122314.200000", "122316.200000", "122318.200000", "122320.200000", "122322.200000", "122324.200000", "122326.200000", "122328.200000", "122330.200000", "122332.200000", "122334.200000", "122336.200000", "122338.200000", "122340.200000", "122342.200000", "122344.200000", "122346.200000", "122348.200000", "122350.200000", "122352.200000", "122354.200000", "122356.200000", "122358.200000", "122400.200000", "122402.200000", "122404.200000", "122406.200000", "122408.200000", "122410.200000", "122412.200000", "122414.200000", "122416.200000", "122418.200000", "122420.200000", "122422.200000", "122424.200000", "122426.200000", "122428.200000", "122430.200000", "122432.200000", "122434.200000", "122436.200000", "122438.200000", "122440.200000", "122442.200000", "122444.200000", "122446.200000", "122448.200000", "122450.200000", "122452.200000", "122454.200000", "122456.200000", "122458.200000", "122500.200000", "122502.200000", "122504.200000", "122506.200000", "122508.200000", "122510.200000", "122512.200000", "122514.200000", "122516.200000", "122518.200000", "122520.200000", "122522.200000", "122524.200000", "122526.200000", "122528.200000", "122530.200000", "122532.200000", "122534.200000", "122536.200000", "122538.200000", "122540.200000", "122542.200000", "122544.200000", "122546.200000", "122548.200000", "122550.200000", "122552.200000", "122554.200000", "122556.200000", "122558.200000", "122600.200000", "122602.200000", "122604.200000", "122606.200000", "122608.200000", "122610.200000", "122612.200000", "122614.200000", "122616.200000", "122618.200000", "122620.200000", "122622.200000", "122624.200000", "122626.200000", "122628.200000", "122630.200000", "122632.200000", "122634.200000", "122636.200000", "122638.200000", "122640.200000", "122642.200000", "122644.200000", "122646.200000", "122648.200000", "122650.200000", "122652.200000", "122654.200000", "122656.200000", "122658.200000", "122700.200000", "122702.200000", "122704.200000", "122706.200000", "122708.200000", "122710.200000", "122712.200000", "122714.200000", "122716.200000", "122718.200000", "122720.200000", "122722.200000", "122724.200000", "122726.200000", "122728.200000", "122730.200000", "122732.200000", "122734.200000", "122736.200000", "122738.200000", "122740.200000", "122742.200000", "122744.200000", "122746.200000", "122748.200000", "122750.200000", "122752.200000", "122754.200000", "122756.200000", "122758.200000", "122800.200000", "122802.200000", "122804.200000"],
      "ContentTime": ["122218.994000", "122218.998000", "122219.001000", "122219.004000", "122219.006000", "122219.009000", "122219.012000", "122219.014000", "122219.017000", "122219.019000", "122219.032000", "122219.034000", "122219.037000", "122219.040000", "122219.042000", "122219.045000", "122219.048000", "122219.050000", "122219.053000", "122219.055000", "122219.062000", "122219.065000", "122219.068000", "122219.070000", "122219.073000", "122219.076000", "122258.989000", "122258.991000", "122258.994000", "122258.997000", "122259.000000", "122259.003000", "122259.005000", "122259.008000", "122259.011000", "122259.014000", "122259.016000", "122259.019000", "122259.022000", "122259.024000", "122259.027000", "122259.030000", "122259.032000", "122259.035000", "122259.038000", "122259.040000", "122338.988000", "122338.991000", "122338.993000", "122338.996000", "122339.000000", "122339.003000", "122339.005000", "122339.008000", "122339.010000", "122339.013000", "122339.016000", "122339.018000", "122339.021000", "122339.024000", "122339.026000", "122339.029000", "122339.031000", "122339.034000", "122339.037000", "122339.039000", "122418.988000", "122418.990000", "122418.993000", "122418.996000", "122419.000000", "122419.003000", "122419.005000", "122419.008000", "122419.010000", "122419.013000", "122419.015000", "122419.018000", "122419.021000", "122419.024000", "122419.026000", "122419.029000", "122419.031000", "122419.034000", "122419.037000", "122419.039000", "122458.989000", "122458.991000", "122458.994000", "122458.997000", "122459.000000", "122459.003000", "122459.005000", "122459.008000", "122459.011000", "122459.013000", "122459.016000", "122459.018000", "122459.021000", "122459.025000", "122459.028000", "122459.031000", "122459.034000", "122459.036000", "122459.039000", "122459.042000", "122518.989000", "122518.991000", "122518.994000", "122518.997000", "122519.001000", "122519.003000", "122519.006000", "122519.009000", "122519.011000", "122519.014000", "122558.988000", "122558.991000", "122558.993000", "122558.996000", "122559.000000", "122559.002000", "122559.005000", "122559.008000", "122559.011000", "122559.013000", "122559.016000", "122559.019000", "122559.021000", "122559.024000", "122559.026000", "122559.029000", "122559.032000", "122559.034000", "122559.037000", "122559.039000", "122638.988000", "122638.990000", "122638.993000", "122638.996000", "122638.998000", "122639.002000", "122639.005000", "122639.007000", "122639.010000", "122639.013000", "122639.015000", "122639.018000", "122639.021000", "122639.023000", "122639.026000", "122639.028000", "122639.031000", "122639.034000", "122639.036000", "122639.039000", "122718.989000", "122718.992000", "122718.994000", "122718.997000", "122719.000000", "122719.002000", "122719.005000", "122719.008000", "122719.011000", "122719.013000", "122719.016000", "122719.018000", "122719.028000", "122719.031000", "122719.033000", "122719.036000", "122719.039000", "122719.041000", "122719.044000", "122719.046000", "122758.989000", "122758.991000", "122758.994000", "122758.997000", "122759.001000", "122759.003000", "122759.006000", "122759.009000", "122759.011000", "122759.014000", "122759.017000", "122759.019000", "122759.022000", "122759.025000", "122759.028000", "122759.030000", "122759.033000", "122759.036000", "122759.038000", "122759.041000", "122805.406000", "122805.409000", "122805.412000", "122805.415000"],
      "InstanceCreationTime": ["122218.994000", "122218.998000", "122219.001000", "122219.004000", "122219.006000", "122219.009000", "122219.012000", "122219.014000", "122219.017000", "122219.019000", "122219.032000", "122219.034000", "122219.037000", "122219.040000", "122219.042000", "122219.045000", "122219.048000", "122219.050000", "122219.053000", "122219.055000", "122219.062000", "122219.065000", "122219.068000", "122219.070000", "122219.073000", "122219.076000", "122258.989000", "122258.991000", "122258.994000", "122258.997000", "122259.000000", "122259.003000", "122259.005000", "122259.008000", "122259.011000", "122259.014000", "122259.016000", "122259.019000", "122259.022000", "122259.024000", "122259.027000", "122259.030000", "122259.032000", "122259.035000", "122259.038000", "122259.040000", "122338.988000", "122338.991000", "122338.993000", "122338.996000", "122339.000000", "122339.003000", "122339.005000", "122339.008000", "122339.010000", "122339.013000", "122339.016000", "122339.018000", "122339.021000", "122339.024000", "122339.026000", "122339.029000", "122339.031000", "122339.034000", "122339.037000", "122339.039000", "122418.988000", "122418.990000", "122418.993000", "122418.996000", "122419.000000", "122419.003000", "122419.005000", "122419.008000", "122419.010000", "122419.013000", "122419.015000", "122419.018000", "122419.021000", "122419.024000", "122419.026000", "122419.029000", "122419.031000", "122419.034000", "122419.037000", "122419.039000", "122458.989000", "122458.991000", "122458.994000", "122458.997000", "122459.000000", "122459.003000", "122459.005000", "122459.008000", "122459.011000", "122459.013000", "122459.016000", "122459.018000", "122459.021000", "122459.025000", "122459.028000", "122459.031000", "122459.034000", "122459.036000", "122459.039000", "122459.042000", "122518.989000", "122518.991000", "122518.994000", "122518.997000", "122519.001000", "122519.003000", "122519.006000", "122519.009000", "122519.011000", "122519.014000", "122558.988000", "122558.991000", "122558.993000", "122558.996000", "122559.000000", "122559.002000", "122559.005000", "122559.008000", "122559.011000", "122559.013000", "122559.016000", "122559.019000", "122559.021000", "122559.024000", "122559.026000", "122559.029000", "122559.032000", "122559.034000", "122559.037000", "122559.039000", "122638.988000", "122638.990000", "122638.993000", "122638.996000", "122638.998000", "122639.002000", "122639.005000", "122639.007000", "122639.010000", "122639.013000", "122639.015000", "122639.018000", "122639.021000", "122639.023000", "122639.026000", "122639.028000", "122639.031000", "122639.034000", "122639.036000", "122639.039000", "122718.989000", "122718.992000", "122718.994000", "122718.997000", "122719.000000", "122719.002000", "122719.005000", "122719.008000", "122719.011000", "122719.013000", "122719.016000", "122719.018000", "122719.028000", "122719.031000", "122719.033000", "122719.036000", "122719.039000", "122719.041000", "122719.044000", "122719.046000", "122758.989000", "122758.991000", "122758.994000", "122758.997000", "122759.001000", "122759.003000", "122759.006000", "122759.009000", "122759.011000", "122759.014000", "122759.017000", "122759.019000", "122759.022000", "122759.025000", "122759.028000", "122759.030000", "122759.033000", "122759.036000", "122759.038000", "122759.041000", "122805.406000", "122805.409000", "122805.412000", "122805.415000"],
      "InstanceNumber": [1, 2, 3, 4, 5, 6, 7, 8, 9, 10, 11, 12, 13, 14, 15, 16, 17, 18, 19, 20, 21, 22, 23, 24, 25, 26, 27, 28, 29, 30, 31, 32, 33, 34, 35, 36, 37, 38, 39, 40, 41, 42, 43, 44, 45, 46, 47, 48, 49, 50, 51, 52, 53, 54, 55, 56, 57, 58, 59, 60, 61, 62, 63, 64, 65, 66, 67, 68, 69, 70, 71, 72, 73, 74, 75, 76, 77, 78, 79, 80, 81, 82, 83, 84, 85, 86, 87, 88, 89, 90, 91, 92, 93, 94, 95, 96, 97, 98, 99, 100, 101, 102, 103, 104, 105, 106, 107, 108, 109, 110, 111, 112, 113, 114, 115, 116, 117, 118, 119, 120, 121, 122, 123, 124, 125, 126, 127, 128, 129, 130, 131, 132, 133, 134, 135, 136, 137, 138, 139, 140, 141, 142, 143, 144, 145, 146, 147, 148, 149, 150, 151, 152, 153, 154, 155, 156, 157, 158, 159, 160, 161, 162, 163, 164, 165, 166, 167, 168, 169, 170, 171, 172, 173, 174, 175, 176, 177, 178, 179, 180, 181, 182, 183, 184, 185, 186, 187, 188, 189, 190, 191, 192, 193, 194, 195, 196, 197, 198, 199, 200],
      "LargestImagePixelValue": [1931, 1928, 1920, 1931, 1927, 1929, 1930, 1932, 1928, 1928, 1929, 1927, 1931, 1931, 1932, 1926, 1934, 1929, 1935, 1927, 1923, 1926, 1926, 1928, 1924, 1928, 1927, 1927, 1931, 1932, 1929, 1926, 1929, 1932, 1925, 1927, 1933, 1928, 1925, 1930, 1928, 1924, 1929, 1927, 1924, 1923, 1932, 1923, 1929, 1922, 1927, 1934, 1924, 1932, 1928, 1925, 1935, 1928, 1933, 1932, 1927, 1931, 1926, 1930, 1929, 1931, 1922, 1926, 1936, 1923, 1928, 1925, 1929, 1936, 1926, 1924, 1923, 1923, 1936, 1928, 1930, 1924, 1923, 1929, 1931, 1932, 1927, 1928, 1928, 1929, 1927, 1929, 1924, 1927, 1926, 1925, 1928, 1927, 1927, 1926, 1933, 1935, 1927, 1924, 1927, 1934, 1928, 1926, 1934, 1930, 1927, 1930, 1927, 1928, 1924, 1931, 1927, 1929, 1936, 1929, 1928, 1931, 1920, 1923, 1923, 1935, 1927, 1932, 1929, 1933, 1923, 1925, 1924, 1930, 1932, 1932, 1931, 1929, 1927, 1927, 1931, 1924, 1924, 1929, 1929, 1931, 1926, 1930, 1928, 1923, 1938, 1920, 1928, 1929, 1936, 1931, 1928, 1927, 1923, 1924, 1927, 1926, 1929, 1925, 1934, 1930, 1933, 1927, 1932, 1920, 1925, 1924, 1931, 1930, 1920, 1923, 1933, 1923, 1920, 1929, 1925, 1925, 1926, 1925, 1928, 1922, 1928, 1926, 1921, 1926, 1927, 1929, 1923, 1928, 1923, 1926, 1932, 1927, 1927, 1934],
      "WindowCenter": [961.0, 961.0, 961.0, 961.0, 961.0, 962.0, 962.0, 961.0, 962.0, 962.0, 961.0, 961.0, 962.0, 962.0, 961.0, 961.0, 962.0, 961.0, 961.0, 961.0, 961.0, 961.0, 961.0, 961.0, 961.0, 961.0, 961.0, 961.0, 961.0, 961.0, 961.0, 961.0, 961.0, 961.0, 961.0, 961.0, 961.0, 961.0, 961.0, 961.0, 961.0, 961.0, 961.0, 961.0, 961.0, 961.0, 961.0, 961.0, 960.0, 960.0, 960.0, 960.0, 960.0, 961.0, 961.0, 960.0, 961.0, 961.0, 961.0, 960.0, 960.0, 961.0, 961.0, 960.0, 960.0, 960.0, 961.0, 960.0, 961.0, 962.0, 960.0, 960.0, 960.0, 960.0, 961.0, 960.0, 961.0, 960.0, 961.0, 961.0, 961.0, 961.0, 960.0, 961.0, 960.0, 960.0, 960.0, 961.0, 960.0, 960.0, 960.0, 961.0, 960.0, 960.0, 961.0, 961.0, 960.0, 961.0, 960.0, 960.0, 961.0, 960.0, 961.0, 960.0, 961.0, 961.0, 960.0, 961.0, 961.0, 960.0, 961.0, 960.0, 960.0, 960.0, 961.0, 961.0, 960.0, 960.0, 960.0, 960.0, 960.0, 961.0, 960.0, 960.0, 960.0, 961.0, 961.0, 960.0, 961.0, 960.0, 960.0, 961.0, 961.0, 960.0, 961.0, 960.0, 960.0, 960.0, 961.0, 961.0, 960.0, 960.0, 960.0, 960.0, 960.0, 960.0, 960.0, 960.0, 960.0, 961.0, 960.0, 960.0, 961.0, 961.0, 961.0, 961.0, 960.0, 961.0, 960.0, 960.0, 960.0, 960.0, 960.0, 961.0, 961.0, 960.0, 960.0, 960.0, 960.0, 960.0, 960.0, 960.0, 960.0, 960.0, 961.0, 961.0, 961.0, 960.0, 960.0, 960.0, 960.0, 960.0, 960.0, 960.0, 960.0, 960.0, 960.0, 960.0, 961.0, 960.0, 960.0, 961.0, 960.0, 960.0, 960.0, 960.0, 961.0, 960.0, 960.0, 960.0],
      "WindowWidth": [2085.0, 2084.0, 2085.0, 2085.0, 2085.0, 2086.0, 2085.0, 2085.0, 2086.0, 2086.0, 2084.0, 2084.0, 2085.0, 2086.0, 2085.0, 2084.0, 2085.0, 2085.0, 2084.0, 2084.0, 2085.0, 2084.0, 2084.0, 2085.0, 2084.0, 2084.0, 2085.0, 2085.0, 2084.0, 2084.0, 2085.0, 2085.0, 2084.0, 2084.0, 2084.0, 2085.0, 2085.0, 2085.0, 2084.0, 2084.0, 2084.0, 2084.0, 2084.0, 2085.0, 2084.0, 2084.0, 2084.0, 2084.0, 2084.0, 2084.0, 2084.0, 2084.0, 2084.0, 2084.0, 2085.0, 2084.0, 2084.0, 2084.0, 2085.0, 2084.0, 2084.0, 2084.0, 2084.0, 2084.0, 2084.0, 2084.0, 2084.0, 2084.0, 2084.0, 2085.0, 2084.0, 2083.0, 2083.0, 2083.0, 2084.0, 2083.0, 2084.0, 2084.0, 2084.0, 2084.0, 2084.0, 2084.0, 2083.0, 2084.0, 2083.0, 2083.0, 2084.0, 2084.0, 2083.0, 2083.0, 2083.0, 2084.0, 2083.0, 2083.0, 2084.0, 2084.0, 2083.0, 2084.0, 2083.0, 2083.0, 2084.0, 2083.0, 2084.0, 2083.0, 2084.0, 2084.0, 2083.0, 2083.0, 2083.0, 2083.0, 2084.0, 2083.0, 2083.0, 2083.0, 2083.0, 2083.0, 2083.0, 2083.0, 2083.0, 2083.0, 2083.0, 2083.0, 2082.0, 2083.0, 2083.0, 2083.0, 2083.0, 2083.0, 2083.0, 2083.0, 2083.0, 2083.0, 2083.0, 2083.0, 2083.0, 2083.0, 2083.0, 2083.0, 2083.0, 2083.0, 2083.0, 2083.0, 2083.0, 2083.0, 2083.0, 2083.0, 2083.0, 2083.0, 2083.0, 2083.0, 2083.0, 2083.0, 2083.0, 2083.0, 2083.0, 2083.0, 2083.0, 2083.0, 2083.0, 2082.0, 2082.0, 2082.0, 2083.0, 2083.0, 2083.0, 2083.0, 2083.0, 2082.0, 2083.0, 2083.0, 2082.0, 2083.0, 2082.0, 2082.0, 2083.0, 2083.0, 2083.0, 2082.0, 2082.0, 2082.0, 2082.0, 2082.0, 2082.0, 2082.0, 2082.0, 2083.0, 2082.0, 2082.0, 2083.0, 2082.0, 2082.0, 2083.0, 2082.0, 2082.0, 2082.0, 2082.0, 2083.0, 2082.0, 2082.0, 2082.0]
    },
    "slices": {}
  }
}