{
  "AcquisitionMatrixPE": 80,
  "AcquisitionNumber": 1,
  "AcquisitionTime": "08:59:34.530000",
  "BandwidthPerPixelPhaseEncode": 25,
  "BaseResolution": 80,
  "BodyPartExamined": "BRAIN",
  "CoilCombinationMethod": "Sum of Squares",
  "ConsistencyInfo": "N4_VE11C_LATEST_20160120",
  "ConversionSoftware": "dcm2niix",
  "ConversionSoftwareVersion": "v1.0.20220720",
  "DerivedVendorReportedEchoSpacing": 0.0005,
  "DeviceSerialNumber": "66112",
  "DwellTime": 2.7e-06,
  "EchoTime": 0.03,
  "EchoTrainLength": 80,
  "EffectiveEchoSpacing": 0.0005,
  "FlipAngle": 10,
  "HeudiconvVersion": "0.13.1",
  "ImageOrientationPatientDICOM": [0.985021, -0.17243, -0.00133734, 0.164129, 0.935164, 0.313894],
  "ImageOrientationText": "Tra>Cor(18.0)>Sag(3.0)",
  "ImageType": [
    "ORIGINAL",
    "PRIMARY",
    "M",
    "ND",
    "NORM",
    "MOSAIC"
],
  "ImagingFrequency": 123.252,
  "InPlanePhaseEncodingDirectionDICOM": "COL",
  "InstitutionAddress": "Maynard 3,Hanover,NH,US,03755",
  "InstitutionName": "Dartmouth College - PBS",
  "InstitutionalDepartmentName": "Department",
  "MRAcquisitionType": "2D",
  "MagneticFieldStrength": 3,
  "Manufacturer": "Siemens",
  "ManufacturersModelName": "Prisma",
  "MatrixCoilMode": "SENSE",
  "Modality": "MR",
  "NonlinearGradientCorrection": false,
  "PartialFourier": 1,
  "PatientPosition": "HFS",
  "PercentPhaseFOV": 100,
  "PercentSampling": 100,
  "PhaseEncodingDirection": "j-",
  "PhaseEncodingSteps": 80,
  "PhaseResolution": 1,
  "PixelBandwidth": 2315,
  "ProcedureStepDescription": "dbic^QA",
  "ProtocolName": "func-bold_fa-10",
  "PulseSequenceDetails": "%SiemensSeq%\\ep2d_bold",
  "ReceiveCoilActiveElements": "HC1-7;NC1,2",
  "ReceiveCoilName": "HeadNeck_64",
  "ReconMatrixPE": 80,
  "RepetitionTime": 2,
  "SAR": 0.00861906,
  "ScanOptions": "FS",
  "ScanningSequence": "EP",
  "SequenceName": "*epfid2d1_80",
  "SequenceVariant": "SK",
  "SeriesDescription": "func-bold_fa-10",
  "SeriesNumber": 9,
  "ShimSetting": [4140, -7700, -7505, 145, -73, -211, -20, 83],
  "SliceThickness": 3.5,
  "SliceTiming": [0.99, 0, 1.0575, 0.0675, 1.1225, 0.1325, 1.1875, 0.1975, 1.255, 0.265, 1.32, 0.33, 1.3875, 0.3975, 1.4525, 0.4625, 1.5175, 0.5275, 1.585, 0.595, 1.65, 0.66, 1.7175, 0.7275, 1.7825, 0.7925, 1.8475, 0.8575, 1.915, 0.925],
  "SoftwareVersions": "syngo MR E11",
  "SpacingBetweenSlices": 3.99,
  "StationName": "AWP66112",
  "TotalReadoutTime": 0.0395,
  "TxRefAmp": 215.372,
  "dcmmeta_affine": [
    [-2.9550623893737793, 0.4923873245716095, 0.2109682261943817, 97.07510375976562],
    [0.5172913670539856, 2.805492877960205, 1.234552025794983, -122.36711883544922],
    [-0.00401201331987977, -0.9416818022727966, 3.7883338928222656, -26.582733154296875],
    [0.0, 0.0, 0.0, 1.0]
],
  "dcmmeta_reorient_transform": [
    [0.0, -1.0, 0.0, 79.0],
    [1.0, 0.0, 0.0, 0.0],
    [0.0, 0.0, 1.0, 0.0],
    [0.0, 0.0, 0.0, 1.0]
],
  "dcmmeta_shape": [80, 80, 30, 200],
  "dcmmeta_slice_dim": 2,
  "dcmmeta_version": 0.6,
  "global": {
    "const": {
      "AccessionNumber": "qa64",
      "AcquisitionMatrix": [80, 0, 0, 80],
      "AngioFlag": "N",
      "BitsAllocated": 16,
      "BitsStored": 12,
      "BodyPartExamined": "BRAIN",
      "Columns": 480,
      "EchoNumbers": 1,
      "EchoTime": 30.0,
      "EchoTrainLength": 80,
      "FlipAngle": 10.0,
      "HighBit": 11,
      "ImageOrientationPatient": [0.98502078674683, -0.1724304532391, -0.0013373378054, 0.16412910818895, 0.93516428231943, 0.31389393259361],
      "ImagePositionPatient": [-825.46363572328, -556.90711502496, -288.5095516533],
      "ImageType": [
        "ORIGINAL",
        "PRIMARY",
        "M",
        "ND",
        "NORM",
        "MOSAIC"
],
      "ImagedNucleus": "1H",
      "ImagingFrequency": 123.252375,
      "InPlanePhaseEncodingDirection": "COL",
      "MRAcquisitionType": "2D",
      "MagneticFieldStrength": 3.0,
      "Manufacturer": "SIEMENS",
      "ManufacturerModelName": "Prisma",
      "Modality": "MR",
      "NumberOfAverages": 1.0,
      "NumberOfPhaseEncodingSteps": 80,
      "PercentPhaseFieldOfView": 100.0,
      "PercentSampling": 100.0,
      "PerformedProcedureStepStartTime": "084216.222000",
      "PhotometricInterpretation": "MONOCHROME2",
      "PixelBandwidth": 2315.0,
      "PixelRepresentation": 0,
      "PixelSpacing": [3.0, 3.0],
      "ProtocolName": "func-bold_fa-10",
      "RepetitionTime": 2000.0,
      "Rows": 480,
      "SAR": 0.00861906367314,
      "SamplesPerPixel": 1,
      "ScanOptions": "FS",
      "ScanningSequence": "EP",
      "SequenceName": "*epfid2d1_80",
      "SequenceVariant": "SK",
      "SeriesDescription": "func-bold_fa-10",
      "SeriesNumber": 9,
      "SeriesTime": "090025.499000",
      "SliceLocation": -57.968191098177,
      "SliceThickness": 3.5,
      "SmallestImagePixelValue": 0,
      "SoftwareVersions": "syngo MR E11",
      "SpacingBetweenSlices": 3.9900000047581,
      "SpecificCharacterSet": "ISO_IR 100",
      "StudyID": "48",
      "StudyTime": "084216.126000",
      "TransmitCoilName": "Body",
      "VariableFlipAngleFlag": "N",
      "WindowCenterWidthExplanation": "Algo1",
      "dBdt": 0.0},
    "slices": {}
  },
  "time": {
    "samples": {
      "AcquisitionNumber": [1, 2, 3, 4, 5, 6, 7, 8, 9, 10, 11, 12, 13, 14, 15, 16, 17, 18, 19, 20, 21, 22, 23, 24, 25, 26, 27, 28, 29, 30, 31, 32, 33, 34, 35, 36, 37, 38, 39, 40, 41, 42, 43, 44, 45, 46, 47, 48, 49, 50, 51, 52, 53, 54, 55, 56, 57, 58, 59, 60, 61, 62, 63, 64, 65, 66, 67, 68, 69, 70, 71, 72, 73, 74, 75, 76, 77, 78, 79, 80, 81, 82, 83, 84, 85, 86, 87, 88, 89, 90, 91, 92, 93, 94, 95, 96, 97, 98, 99, 100, 101, 102, 103, 104, 105, 106, 107, 108, 109, 110, 111, 112, 113, 114, 115, 116, 117, 118, 119, 120, 121, 122, 123, 124, 125, 126, 127, 128, 129, 130, 131, 132, 133, 134, 135, 136, 137, 138, 139, 140, 141, 142, 143, 144, 145, 146, 147, 148, 149, 150, 151, 152, 153, 154, 155, 156, 157, 158, 159, 160, 161, 162, 163, 164, 165, 166, 167, 168, 169, 170, 171, 172, 173, 174, 175, 176, 177, 178, 179, 180, 181, 182, 183, 184, 185, 186, 187, 188, 189, 190, 191, 192, 193, 194, 195, 196, 197, 198, 199, 200],
      "AcquisitionTime": ["085934.530000", "085936.530000", "085938.530000", "085940.530000", "085942.530000", "085944.530000", "085946.530000", "085948.530000", "085950.530000", "085952.530000", "085954.530000", "085956.530000", "085958.530000", "090000.530000", "090002.530000", "090004.530000", "090006.530000", "090008.530000", "090010.530000", "090012.530000", "090014.530000", "090016.530000", "090018.530000", "090020.530000", "090022.530000", "090024.530000", "090026.530000", "090028.530000", "090030.530000", "090032.530000", "090034.530000", "090036.530000", "090038.530000", "090040.530000", "090042.530000", "090044.530000", "090046.530000", "090048.530000", "090050.530000", "090052.530000", "090054.530000", "090056.530000", "090058.530000", "090100.530000", "090102.530000", "090104.530000", "090106.530000", "090108.530000", "090110.530000", "090112.530000", "090114.530000", "090116.530000", "090118.530000", "090120.530000", "090122.530000", "090124.530000", "090126.530000", "090128.530000", "090130.530000", "090132.530000", "090134.530000", "090136.530000", "090138.530000", "090140.530000", "090142.530000", "090144.530000", "090146.530000", "090148.530000", "090150.530000", "090152.530000", "090154.530000", "090156.530000", "090158.530000", "090200.530000", "090202.530000", "090204.530000", "090206.530000", "090208.530000", "090210.530000", "090212.530000", "090214.530000", "090216.530000", "090218.530000", "090220.530000", "090222.530000", "090224.530000", "090226.530000", "090228.530000", "090230.530000", "090232.530000", "090234.530000", "090236.530000", "090238.530000", "090240.530000", "090242.530000", "090244.530000", "090246.530000", "090248.530000", "090250.530000", "090252.530000", "090254.530000", "090256.530000", "090258.530000", "090300.530000", "090302.530000", "090304.530000", "090306.530000", "090308.530000", "090310.530000", "090312.530000", "090314.530000", "090316.530000", "090318.530000", "090320.530000", "090322.530000", "090324.530000", "090326.530000", "090328.530000", "090330.530000", "090332.530000", "090334.530000", "090336.530000", "090338.530000", "090340.530000", "090342.530000", "090344.530000", "090346.530000", "090348.530000", "090350.530000", "090352.530000", "090354.530000", "090356.530000", "090358.530000", "090400.530000", "090402.530000", "090404.530000", "090406.530000", "090408.530000", "090410.530000", "090412.530000", "090414.530000", "090416.530000", "090418.530000", "090420.530000", "090422.530000", "090424.530000", "090426.530000", "090428.530000", "090430.530000", "090432.530000", "090434.530000", "090436.530000", "090438.530000", "090440.530000", "090442.530000", "090444.530000", "090446.530000", "090448.530000", "090450.530000", "090452.530000", "090454.530000", "090456.530000", "090458.530000", "090500.530000", "090502.530000", "090504.530000", "090506.530000", "090508.530000", "090510.530000", "090512.530000", "090514.530000", "090516.530000", "090518.530000", "090520.530000", "090522.530000", "090524.530000", "090526.530000", "090528.530000", "090530.530000", "090532.530000", "090534.530000", "090536.530000", "090538.530000", "090540.530000", "090542.530000", "090544.530000", "090546.530000", "090548.530000", "090550.530000", "090552.530000", "090554.530000", "090556.530000", "090558.530000", "090600.530000", "090602.530000", "090604.530000", "090606.530000", "090608.530000", "090610.530000", "090612.530000"],
      "ContentTime": ["090025.502000", "090025.506000", "090025.508000", "090025.511000", "090025.513000", "090025.516000", "090025.519000", "090025.521000", "090025.524000", "090025.526000", "090025.529000", "090025.531000", "090025.534000", "090025.536000", "090025.539000", "090025.541000", "090025.544000", "090025.546000", "090025.549000", "090025.552000", "090025.554000", "090025.557000", "090025.559000", "090025.562000", "090025.564000", "090105.499000", "090105.501000", "090105.504000", "090105.507000", "090105.509000", "090105.511000", "090105.514000", "090105.517000", "090105.519000", "090105.522000", "090105.524000", "090105.527000", "090105.529000", "090105.532000", "090105.534000", "090105.537000", "090105.539000", "090105.542000", "090105.544000", "090105.547000", "090145.497000", "090145.500000", "090145.503000", "090145.505000", "090145.508000", "090145.510000", "090145.513000", "090145.515000", "090145.518000", "090145.520000", "090145.523000", "090145.526000", "090145.528000", "090145.531000", "090145.533000", "090145.536000", "090145.538000", "090145.541000", "090145.543000", "090145.546000", "090225.497000", "090225.500000", "090225.503000", "090225.505000", "090225.508000", "090225.511000", "090225.513000", "090225.516000", "090225.518000", "090225.521000", "090225.523000", "090225.526000", "090225.528000", "090225.531000", "090225.533000", "090225.536000", "090225.538000", "090225.541000", "090225.544000", "090225.546000", "090305.498000", "090305.501000", "090305.504000", "090305.507000", "090305.509000", "090305.512000", "090305.514000", "090305.517000", "090305.519000", "090305.522000", "090305.524000", "090305.527000", "090305.529000", "090305.532000", "090305.535000", "090305.537000", "090305.540000", "090305.542000", "090305.545000", "090305.547000", "090345.498000", "090345.501000", "090345.504000", "090345.506000", "090345.509000", "090345.511000", "090345.514000", "090345.517000", "090345.519000", "090345.522000", "090345.524000", "090345.527000", "090345.529000", "090345.532000", "090345.535000", "090345.537000", "090345.540000", "090345.542000", "090345.545000", "090345.547000", "090425.497000", "090425.500000", "090425.503000", "090425.506000", "090425.508000", "090425.511000", "090425.513000", "090425.516000", "090425.518000", "090425.521000", "090425.523000", "090425.526000", "090425.528000", "090425.531000", "090425.534000", "090425.536000", "090425.539000", "090425.541000", "090425.544000", "090425.546000", "090505.497000", "090505.500000", "090505.503000", "090505.506000", "090505.508000", "090505.511000", "090505.513000", "090505.516000", "090505.518000", "090505.521000", "090505.523000", "090505.526000", "090505.528000", "090505.531000", "090505.534000", "090505.536000", "090505.539000", "090505.541000", "090505.544000", "090505.546000", "090545.499000", "090545.501000", "090545.504000", "090545.507000", "090545.509000", "090545.512000", "090545.514000", "090545.517000", "090545.519000", "090545.522000", "090545.525000", "090545.527000", "090545.530000", "090545.532000", "090545.535000", "090545.537000", "090545.540000", "090545.556000", "090545.559000", "090545.562000", "090613.720000", "090613.723000", "090613.726000", "090613.728000", "090613.731000", "090613.734000", "090613.736000", "090613.739000", "090613.741000", "090613.744000", "090613.746000", "090613.749000", "090613.754000", "090613.760000", "090613.764000"],
      "InstanceCreationTime": ["090025.502000", "090025.506000", "090025.508000", "090025.511000", "090025.513000", "090025.516000", "090025.519000", "090025.521000", "090025.524000", "090025.526000", "090025.529000", "090025.531000", "090025.534000", "090025.536000", "090025.539000", "090025.541000", "090025.544000", "090025.546000", "090025.549000", "090025.552000", "090025.554000", "090025.557000", "090025.559000", "090025.562000", "090025.564000", "090105.499000", "090105.501000", "090105.504000", "090105.507000", "090105.509000", "090105.511000", "090105.514000", "090105.517000", "090105.519000", "090105.522000", "090105.524000", "090105.527000", "090105.529000", "090105.532000", "090105.534000", "090105.537000", "090105.539000", "090105.542000", "090105.544000", "090105.547000", "090145.497000", "090145.500000", "090145.503000", "090145.505000", "090145.508000", "090145.510000", "090145.513000", "090145.515000", "090145.518000", "090145.520000", "090145.523000", "090145.526000", "090145.528000", "090145.531000", "090145.533000", "090145.536000", "090145.538000", "090145.541000", "090145.543000", "090145.546000", "090225.497000", "090225.500000", "090225.503000", "090225.505000", "090225.508000", "090225.511000", "090225.513000", "090225.516000", "090225.518000", "090225.521000", "090225.523000", "090225.526000", "090225.528000", "090225.531000", "090225.533000", "090225.536000", "090225.538000", "090225.541000", "090225.544000", "090225.546000", "090305.498000", "090305.501000", "090305.504000", "090305.507000", "090305.509000", "090305.512000", "090305.514000", "090305.517000", "090305.519000", "090305.522000", "090305.524000", "090305.527000", "090305.529000", "090305.532000", "090305.535000", "090305.537000", "090305.540000", "090305.542000", "090305.545000", "090305.547000", "090345.498000", "090345.501000", "090345.504000", "090345.506000", "090345.509000", "090345.511000", "090345.514000", "090345.517000", "090345.519000", "090345.522000", "090345.524000", "090345.527000", "090345.529000", "090345.532000", "090345.535000", "090345.537000", "090345.540000", "090345.542000", "090345.545000", "090345.547000", "090425.497000", "090425.500000", "090425.503000", "090425.506000", "090425.508000", "090425.511000", "090425.513000", "090425.516000", "090425.518000", "090425.521000", "090425.523000", "090425.526000", "090425.528000", "090425.531000", "090425.534000", "090425.536000", "090425.539000", "090425.541000", "090425.544000", "090425.546000", "090505.497000", "090505.500000", "090505.503000", "090505.506000", "090505.508000", "090505.511000", "090505.513000", "090505.516000", "090505.518000", "090505.521000", "090505.523000", "090505.526000", "090505.528000", "090505.531000", "090505.534000", "090505.536000", "090505.539000", "090505.541000", "090505.544000", "090505.546000", "090545.499000", "090545.501000", "090545.504000", "090545.507000", "090545.509000", "090545.512000", "090545.514000", "090545.517000", "090545.519000", "090545.522000", "090545.525000", "090545.527000", "090545.530000", "090545.532000", "090545.535000", "090545.537000", "090545.540000", "090545.556000", "090545.559000", "090545.562000", "090613.720000", "090613.723000", "090613.726000", "090613.728000", "090613.731000", "090613.734000", "090613.736000", "090613.739000", "090613.741000", "090613.744000", "090613.746000", "090613.749000", "090613.754000", "090613.760000", "090613.764000"],
      "InstanceNumber": [1, 2, 3, 4, 5, 6, 7, 8, 9, 10, 11, 12, 13, 14, 15, 16, 17, 18, 19, 20, 21, 22, 23, 24, 25, 26, 27, 28, 29, 30, 31, 32, 33, 34, 35, 36, 37, 38, 39, 40, 41, 42, 43, 44, 45, 46, 47, 48, 49, 50, 51, 52, 53, 54, 55, 56, 57, 58, 59, 60, 61, 62, 63, 64, 65, 66, 67, 68, 69, 70, 71, 72, 73, 74, 75, 76, 77, 78, 79, 80, 81, 82, 83, 84, 85, 86, 87, 88, 89, 90, 91, 92, 93, 94, 95, 96, 97, 98, 99, 100, 101, 102, 103, 104, 105, 106, 107, 108, 109, 110, 111, 112, 113, 114, 115, 116, 117, 118, 119, 120, 121, 122, 123, 124, 125, 126, 127, 128, 129, 130, 131, 132, 133, 134, 135, 136, 137, 138, 139, 140, 141, 142, 143, 144, 145, 146, 147, 148, 149, 150, 151, 152, 153, 154, 155, 156, 157, 158, 159, 160, 161, 162, 163, 164, 165, 166, 167, 168, 169, 170, 171, 172, 173, 174, 175, 176, 177, 178, 179, 180, 181, 182, 183, 184, 185, 186, 187, 188, 189, 190, 191, 192, 193, 194, 195, 196, 197, 198, 199, 200],
      "LargestImagePixelValue": [600, 603, 599, 602, 599, 599, 597, 598, 598, 600, 599, 597, 599, 598, 600, 605, 602, 600, 600, 598, 601, 600, 598, 597, 599, 598, 598, 598, 599, 599, 603, 598, 599, 599, 600, 600, 600, 601, 598, 598, 600, 598, 601, 598, 597, 598, 600, 599, 600, 598, 598, 600, 598, 598, 598, 600, 600, 597, 598, 597, 598, 598, 598, 599, 600, 597, 599, 598, 597, 598, 596, 598, 602, 598, 599, 599, 597, 597, 598, 600, 599, 599, 598, 597, 599, 596, 596, 597, 599, 596, 600, 601, 599, 599, 600, 598, 598, 603, 596, 596, 598, 599, 596, 597, 599, 598, 598, 600, 599, 598, 597, 598, 598, 598, 599, 598, 596, 598, 598, 595, 597, 598, 596, 598, 598, 597, 598, 597, 596, 601, 599, 600, 600, 597, 597, 595, 598, 598, 597, 596, 598, 601, 598, 597, 600, 596, 600, 596, 597, 596, 599, 599, 598, 597, 599, 598, 598, 597, 599, 598, 598, 599, 599, 598, 597, 597, 599, 596, 596, 600, 597, 600, 597, 598, 597, 597, 596, 597, 596, 599, 599, 600, 598, 598, 598, 599, 600, 599, 597, 599, 596, 599, 598, 594, 598, 596, 598, 599, 598, 596],
      "WindowCenter": [424.0, 424.0, 424.0, 424.0, 424.0, 424.0, 424.0, 423.0, 424.0, 423.0, 423.0, 423.0, 423.0, 424.0, 423.0, 423.0, 423.0, 423.0, 424.0, 423.0, 423.0, 423.0, 423.0, 423.0, 423.0, 423.0, 423.0, 423.0, 423.0, 423.0, 423.0, 423.0, 423.0, 424.0, 423.0, 423.0, 423.0, 423.0, 423.0, 423.0, 423.0, 423.0, 423.0, 423.0, 423.0, 423.0, 423.0, 423.0, 423.0, 423.0, 423.0, 423.0, 423.0, 423.0, 423.0, 423.0, 423.0, 423.0, 423.0, 423.0, 423.0, 423.0, 423.0, 423.0, 423.0, 423.0, 423.0, 423.0, 423.0, 423.0, 423.0, 423.0, 423.0, 423.0, 423.0, 423.0, 423.0, 423.0, 423.0, 423.0, 424.0, 423.0, 423.0, 423.0, 423.0, 423.0, 423.0, 423.0, 423.0, 423.0, 423.0, 423.0, 423.0, 423.0, 423.0, 423.0, 423.0, 424.0, 423.0, 423.0, 423.0, 423.0, 423.0, 423.0, 423.0, 423.0, 423.0, 424.0, 423.0, 423.0, 423.0, 423.0, 423.0, 423.0, 423.0, 423.0, 423.0, 423.0, 423.0, 423.0, 423.0, 423.0, 423.0, 423.0, 423.0, 423.0, 423.0, 423.0, 423.0, 423.0, 423.0, 423.0, 423.0, 423.0, 423.0, 423.0, 423.0, 423.0, 423.0, 423.0, 423.0, 423.0, 423.0, 423.0, 423.0, 423.0, 423.0, 423.0, 423.0, 423.0, 423.0, 423.0, 423.0, 423.0, 423.0, 423.0, 423.0, 423.0, 423.0, 423.0, 423.0, 423.0, 423.0, 423.0, 423.0, 423.0, 423.0, 423.0, 423.0, 423.0, 423.0, 423.0, 423.0, 422.0, 422.0, 422.0, 422.0, 422.0, 422.0, 422.0, 422.0, 422.0, 422.0, 422.0, 422.0, 422.0, 422.0, 422.0, 422.0, 422.0, 422.0, 422.0, 422.0, 422.0, 422.0, 422.0, 422.0, 422.0, 422.0, 422.0],
      "WindowWidth": [886.0, 885.0, 886.0, 886.0, 886.0, 885.0, 885.0, 885.0, 886.0, 885.0, 885.0, 885.0, 885.0, 886.0, 885.0, 885.0, 885.0, 885.0, 887.0, 885.0, 885.0, 885.0, 885.0, 885.0, 885.0, 885.0, 885.0, 885.0, 885.0, 885.0, 885.0, 885.0, 885.0, 887.0, 885.0, 885.0, 885.0, 885.0, 885.0, 885.0, 885.0, 885.0, 885.0, 885.0, 885.0, 885.0, 885.0, 885.0, 885.0, 885.0, 885.0, 885.0, 885.0, 885.0, 885.0, 885.0, 885.0, 885.0, 885.0, 885.0, 885.0, 885.0, 884.0, 885.0, 885.0, 885.0, 884.0, 884.0, 884.0, 884.0, 885.0, 885.0, 885.0, 884.0, 884.0, 884.0, 884.0, 884.0, 884.0, 884.0, 885.0, 884.0, 884.0, 884.0, 884.0, 884.0, 884.0, 883.0, 884.0, 884.0, 884.0, 883.0, 883.0, 884.0, 883.0, 884.0, 883.0, 887.0, 884.0, 883.0, 883.0, 883.0, 883.0, 883.0, 883.0, 883.0, 883.0, 886.0, 883.0, 883.0, 883.0, 883.0, 883.0, 883.0, 883.0, 883.0, 883.0, 883.0, 883.0, 883.0, 883.0, 883.0, 883.0, 883.0, 883.0, 883.0, 884.0, 883.0, 883.0, 883.0, 883.0, 883.0, 883.0, 883.0, 883.0, 883.0, 883.0, 883.0, 883.0, 883.0, 883.0, 883.0, 883.0, 883.0, 883.0, 883.0, 883.0, 883.0, 883.0, 883.0, 883.0, 883.0, 883.0, 883.0, 883.0, 883.0, 883.0, 883.0, 883.0, 883.0, 883.0, 883.0, 883.0, 883.0, 883.0, 883.0, 883.0, 883.0, 883.0, 883.0, 883.0, 883.0, 883.0, 883.0, 883.0, 883.0, 883.0, 883.0, 883.0, 883.0, 883.0, 883.0, 883.0, 883.0, 883.0, 883.0, 882.0, 883.0, 883.0, 883.0, 883.0, 883.0, 883.0, 883.0, 883.0, 883.0, 883.0, 883.0, 883.0, 883.0]
    },
    "slices": {}
  }
}