{
  "AcquisitionMatrixPE": 80,
  "AcquisitionNumber": 1,
  "AcquisitionTime": "08:45:59.810000",
  "BandwidthPerPixelPhaseEncode": 48.077,
  "BaseResolution": 80,
  "BodyPartExamined": "BRAIN",
  "CoilCombinationMethod": "Sum of Squares",
  "ConsistencyInfo": "N4_VE11C_LATEST_20160120",
  "ConversionSoftware": "dcm2niix",
  "ConversionSoftwareVersion": "v1.0.20220720",
  "DerivedVendorReportedEchoSpacing": 0.000519999,
  "DeviceSerialNumber": "66112",
  "DwellTime": 2.7e-06,
  "EchoTime": 0.035,
  "EchoTrainLength": 39,
  "EffectiveEchoSpacing": 0.00026,
  "FlipAngle": 90,
  "HeudiconvVersion": "0.13.1",
  "ImageOrientationPatientDICOM": [0.985021, -0.17243, -0.00133734, 0.164129, 0.935164, 0.313894],
  "ImageOrientationText": "Tra>Cor(18.0)>Sag(3.0)",
  "ImageType": [
    "ORIGINAL",
    "PRIMARY",
    "M",
    "ND",
    "NORM",
    "MOSAIC"
],
  "ImagingFrequency": 123.252,
  "InPlanePhaseEncodingDirectionDICOM": "COL",
  "InstitutionAddress": "Maynard 3,Hanover,NH,US,03755",
  "InstitutionName": "Dartmouth College - PBS",
  "InstitutionalDepartmentName": "Department",
  "MRAcquisitionType": "2D",
  "MagneticFieldStrength": 3,
  "Manufacturer": "Siemens",
  "ManufacturersModelName": "Prisma",
  "MatrixCoilMode": "GRAPPA",
  "Modality": "MR",
  "NonlinearGradientCorrection": false,
  "ParallelReductionFactorInPlane": 2,
  "PartialFourier": 1,
  "PatientPosition": "HFS",
  "PercentPhaseFOV": 100,
  "PercentSampling": 100,
  "PhaseEncodingDirection": "j-",
  "PhaseEncodingSteps": 79,
  "PhaseResolution": 1,
  "PixelBandwidth": 2315,
  "ProcedureStepDescription": "dbic^QA",
  "ProtocolName": "func-bold_task-rest_acq-p2",
  "PulseSequenceDetails": "%SiemensSeq%\\ep2d_bold",
  "ReceiveCoilActiveElements": "HC1-7;NC1,2",
  "ReceiveCoilName": "HeadNeck_64",
  "ReconMatrixPE": 80,
  "RefLinesPE": 24,
  "RepetitionTime": 2,
  "SAR": 0.0408867,
  "ScanOptions": "FS",
  "ScanningSequence": "EP",
  "SequenceName": "*epfid2d1_80",
  "SequenceVariant": "SK",
  "SeriesDescription": "func-bold_task-rest_acq-p2",
  "SeriesNumber": 5,
  "ShimSetting": [4140, -7700, -7505, 144, -73, -211, -21, 84],
  "SliceThickness": 3.5,
  "SliceTiming": [0.99, 0, 1.055, 0.065, 1.12, 0.1325, 1.1875, 0.1975, 1.2525, 0.2625, 1.32, 0.33, 1.385, 0.395, 1.45, 0.46, 1.5175, 0.5275, 1.5825, 0.5925, 1.65, 0.66, 1.715, 0.725, 1.78, 0.79, 1.8475, 0.8575, 1.9125, 0.9225],
  "SoftwareVersions": "syngo MR E11",
  "SpacingBetweenSlices": 3.99,
  "StationName": "AWP66112",
  "TaskName": "rest",
  "TotalReadoutTime": 0.02054,
  "TxRefAmp": 215.372,
  "dcmmeta_affine": [
    [-2.9550623893737793, 0.4923873245716095, 0.2109682261943817, 98.58346557617188],
    [0.5172913670539856, 2.805492877960205, 1.234552025794983, -124.89006805419922],
    [-0.00401201331987977, -0.9416818022727966, 3.7883338928222656, -27.19084930419922],
    [0.0, 0.0, 0.0, 1.0]
],
  "dcmmeta_reorient_transform": [
    [0.0, -1.0, 0.0, 79.0],
    [1.0, 0.0, 0.0, 0.0],
    [0.0, 0.0, 1.0, 0.0],
    [0.0, 0.0, 0.0, 1.0]
],
  "dcmmeta_shape": [80, 80, 30, 200],
  "dcmmeta_slice_dim": 2,
  "dcmmeta_version": 0.6,
  "global": {
    "const": {
      "AccessionNumber": "qa64",
      "AcquisitionMatrix": [80, 0, 0, 80],
      "AngioFlag": "N",
      "BitsAllocated": 16,
      "BitsStored": 12,
      "BodyPartExamined": "BRAIN",
      "Columns": 480,
      "EchoNumbers": 1,
      "EchoTime": 35.0,
      "EchoTrainLength": 39,
      "FlipAngle": 90.0,
      "HighBit": 11,
      "ImageOrientationPatient": [0.98502078674683, -0.1724304532391, -0.0013373378054, 0.16412910818895, 0.93516428231943, 0.31389393259361],
      "ImagePositionPatient": [-826.97199789731, -554.38416628305, -289.1176678032],
      "ImageType": [
        "ORIGINAL",
        "PRIMARY",
        "M",
        "ND",
        "NORM",
        "MOSAIC"
],
      "ImagedNucleus": "1H",
      "ImagingFrequency": 123.252375,
      "InPlanePhaseEncodingDirection": "COL",
      "MRAcquisitionType": "2D",
      "MagneticFieldStrength": 3.0,
      "Manufacturer": "SIEMENS",
      "ManufacturerModelName": "Prisma",
      "Modality": "MR",
      "NumberOfAverages": 1.0,
      "NumberOfPhaseEncodingSteps": 79,
      "PercentPhaseFieldOfView": 100.0,
      "PercentSampling": 100.0,
      "PerformedProcedureStepStartTime": "084216.222000",
      "PhotometricInterpretation": "MONOCHROME2",
      "PixelBandwidth": 2315.0,
      "PixelRepresentation": 0,
      "PixelSpacing": [3.0, 3.0],
      "ProtocolName": "func-bold_task-rest_acq-p2",
      "RepetitionTime": 2000.0,
      "Rows": 480,
      "SAR": 0.04088671379651,
      "SamplesPerPixel": 1,
      "ScanOptions": "FS",
      "ScanningSequence": "EP",
      "SequenceName": "*epfid2d1_80",
      "SequenceVariant": "SK",
      "SeriesDescription": "func-bold_task-rest_acq-p2",
      "SeriesNumber": 5,
      "SeriesTime": "084645.572000",
      "SliceLocation": -59.246447262146,
      "SliceThickness": 3.5,
      "SmallestImagePixelValue": 0,
      "SoftwareVersions": "syngo MR E11",
      "SpacingBetweenSlices": 3.9899999998879,
      "SpecificCharacterSet": "ISO_IR 100",
      "StudyID": "48",
      "StudyTime": "084216.126000",
      "TransmitCoilName": "Body",
      "VariableFlipAngleFlag": "N",
      "WindowCenterWidthExplanation": "Algo1",
      "dBdt": 0.0},
    "slices": {}
  },
  "time": {
    "samples": {
      "AcquisitionNumber": [1, 2, 3, 4, 5, 6, 7, 8, 9, 10, 11, 12, 13, 14, 15, 16, 17, 18, 19, 20, 21, 22, 23, 24, 25, 26, 27, 28, 29, 30, 31, 32, 33, 34, 35, 36, 37, 38, 39, 40, 41, 42, 43, 44, 45, 46, 47, 48, 49, 50, 51, 52, 53, 54, 55, 56, 57, 58, 59, 60, 61, 62, 63, 64, 65, 66, 67, 68, 69, 70, 71, 72, 73, 74, 75, 76, 77, 78, 79, 80, 81, 82, 83, 84, 85, 86, 87, 88, 89, 90, 91, 92, 93, 94, 95, 96, 97, 98, 99, 100, 101, 102, 103, 104, 105, 106, 107, 108, 109, 110, 111, 112, 113, 114, 115, 116, 117, 118, 119, 120, 121, 122, 123, 124, 125, 126, 127, 128, 129, 130, 131, 132, 133, 134, 135, 136, 137, 138, 139, 140, 141, 142, 143, 144, 145, 146, 147, 148, 149, 150, 151, 152, 153, 154, 155, 156, 157, 158, 159, 160, 161, 162, 163, 164, 165, 166, 167, 168, 169, 170, 171, 172, 173, 174, 175, 176, 177, 178, 179, 180, 181, 182, 183, 184, 185, 186, 187, 188, 189, 190, 191, 192, 193, 194, 195, 196, 197, 198, 199, 200],
      "AcquisitionTime": ["084559.810000", "084601.810000", "084603.810000", "084605.810000", "084607.810000", "084609.810000", "084611.810000", "084613.810000", "084615.810000", "084617.810000", "084619.810000", "084621.810000", "084623.810000", "084625.810000", "084627.810000", "084629.810000", "084631.810000", "084633.810000", "084635.810000", "084637.810000", "084639.810000", "084641.810000", "084643.810000", "084645.810000", "084647.810000", "084649.810000", "084651.810000", "084653.810000", "084655.810000", "084657.810000", "084659.810000", "084701.810000", "084703.810000", "084705.810000", "084707.810000", "084709.810000", "084711.810000", "084713.810000", "084715.810000", "084717.810000", "084719.810000", "084721.810000", "084723.810000", "084725.810000", "084727.810000", "084729.810000", "084731.810000", "084733.810000", "084735.810000", "084737.810000", "084739.810000", "084741.810000", "084743.810000", "084745.810000", "084747.810000", "084749.810000", "084751.810000", "084753.810000", "084755.810000", "084757.810000", "084759.810000", "084801.810000", "084803.810000", "084805.810000", "084807.810000", "084809.810000", "084811.810000", "084813.810000", "084815.810000", "084817.810000", "084819.810000", "084821.810000", "084823.810000", "084825.810000", "084827.810000", "084829.810000", "084831.810000", "084833.810000", "084835.810000", "084837.810000", "084839.810000", "084841.810000", "084843.810000", "084845.810000", "084847.810000", "084849.810000", "084851.810000", "084853.810000", "084855.810000", "084857.810000", "084859.810000", "084901.810000", "084903.810000", "084905.810000", "084907.810000", "084909.810000", "084911.810000", "084913.810000", "084915.810000", "084917.810000", "084919.810000", "084921.810000", "084923.810000", "084925.810000", "084927.810000", "084929.810000", "084931.810000", "084933.810000", "084935.810000", "084937.810000", "084939.810000", "084941.810000", "084943.810000", "084945.810000", "084947.810000", "084949.810000", "084951.810000", "084953.810000", "084955.810000", "084957.810000", "084959.810000", "085001.810000", "085003.810000", "085005.810000", "085007.810000", "085009.810000", "085011.810000", "085013.810000", "085015.810000", "085017.810000", "085019.810000", "085021.810000", "085023.810000", "085025.810000", "085027.810000", "085029.810000", "085031.810000", "085033.810000", "085035.810000", "085037.810000", "085039.810000", "085041.810000", "085043.810000", "085045.810000", "085047.810000", "085049.810000", "085051.810000", "085053.810000", "085055.810000", "085057.810000", "085059.810000", "085101.810000", "085103.810000", "085105.810000", "085107.810000", "085109.810000", "085111.810000", "085113.810000", "085115.810000", "085117.810000", "085119.810000", "085121.810000", "085123.810000", "085125.810000", "085127.810000", "085129.810000", "085131.810000", "085133.810000", "085135.810000", "085137.810000", "085139.810000", "085141.810000", "085143.810000", "085145.810000", "085147.810000", "085149.810000", "085151.810000", "085153.810000", "085155.810000", "085157.810000", "085159.810000", "085201.810000", "085203.810000", "085205.810000", "085207.810000", "085209.810000", "085211.810000", "085213.810000", "085215.810000", "085217.810000", "085219.810000", "085221.810000", "085223.810000", "085225.810000", "085227.810000", "085229.810000", "085231.810000", "085233.810000", "085235.810000", "085237.810000"],
      "ContentTime": ["084645.575000", "084645.579000", "084645.581000", "084645.584000", "084645.587000", "084645.589000", "084645.592000", "084645.594000", "084645.600000", "084645.603000", "084645.605000", "084645.608000", "084645.611000", "084645.613000", "084645.616000", "084645.618000", "084645.621000", "084645.623000", "084645.626000", "084645.628000", "084645.631000", "084645.633000", "084645.636000", "084725.571000", "084725.573000", "084725.576000", "084725.578000", "084725.581000", "084725.583000", "084725.586000", "084725.588000", "084725.591000", "084725.594000", "084725.596000", "084725.599000", "084725.601000", "084725.604000", "084725.606000", "084725.609000", "084725.611000", "084725.614000", "084725.616000", "084725.619000", "084805.569000", "084805.572000", "084805.575000", "084805.577000", "084805.580000", "084805.583000", "084805.585000", "084805.588000", "084805.595000", "084805.597000", "084805.600000", "084805.602000", "084805.605000", "084805.607000", "084805.610000", "084805.612000", "084805.615000", "084805.617000", "084805.620000", "084805.622000", "084845.569000", "084845.572000", "084845.575000", "084845.577000", "084845.580000", "084845.582000", "084845.585000", "084845.587000", "084845.590000", "084845.592000", "084845.595000", "084845.597000", "084845.600000", "084845.602000", "084845.605000", "084845.607000", "084845.610000", "084845.612000", "084845.615000", "084845.618000", "084925.571000", "084925.573000", "084925.576000", "084925.589000", "084925.592000", "084925.594000", "084925.597000", "084925.599000", "084925.602000", "084925.604000", "084925.607000", "084925.609000", "084925.612000", "084925.614000", "084925.617000", "084925.619000", "084925.622000", "084925.624000", "084925.627000", "084925.629000", "085005.570000", "085005.573000", "085005.576000", "085005.578000", "085005.581000", "085005.583000", "085005.586000", "085005.589000", "085005.591000", "085005.594000", "085005.596000", "085005.599000", "085005.601000", "085005.604000", "085005.606000", "085005.609000", "085005.611000", "085005.614000", "085005.616000", "085005.619000", "085045.570000", "085045.572000", "085045.575000", "085045.577000", "085045.580000", "085045.582000", "085045.585000", "085045.587000", "085045.590000", "085045.593000", "085045.595000", "085045.598000", "085045.600000", "085045.603000", "085045.605000", "085045.608000", "085045.610000", "085045.613000", "085045.615000", "085045.618000", "085125.570000", "085125.573000", "085125.576000", "085125.578000", "085125.581000", "085125.584000", "085125.586000", "085125.589000", "085125.591000", "085125.594000", "085125.596000", "085125.599000", "085125.601000", "085125.604000", "085125.606000", "085125.609000", "085125.611000", "085125.614000", "085125.616000", "085125.619000", "085205.571000", "085205.573000", "085205.576000", "085205.578000", "085205.581000", "085205.583000", "085205.586000", "085205.588000", "085205.591000", "085205.593000", "085205.596000", "085205.598000", "085205.601000", "085205.604000", "085205.606000", "085205.609000", "085205.611000", "085205.614000", "085205.616000", "085205.619000", "085238.938000", "085238.941000", "085238.943000", "085238.946000", "085238.948000", "085238.951000", "085238.954000", "085238.957000", "085238.959000", "085238.962000", "085238.964000", "085238.968000", "085238.972000", "085238.977000", "085238.982000", "085238.991000", "085238.994000"],
      "InstanceCreationTime": ["084645.575000", "084645.579000", "084645.581000", "084645.584000", "084645.587000", "084645.589000", "084645.592000", "084645.594000", "084645.600000", "084645.603000", "084645.605000", "084645.608000", "084645.611000", "084645.613000", "084645.616000", "084645.618000", "084645.621000", "084645.623000", "084645.626000", "084645.628000", "084645.631000", "084645.633000", "084645.636000", "084725.571000", "084725.573000", "084725.576000", "084725.578000", "084725.581000", "084725.583000", "084725.586000", "084725.588000", "084725.591000", "084725.594000", "084725.596000", "084725.599000", "084725.601000", "084725.604000", "084725.606000", "084725.609000", "084725.611000", "084725.614000", "084725.616000", "084725.619000", "084805.569000", "084805.572000", "084805.575000", "084805.577000", "084805.580000", "084805.583000", "084805.585000", "084805.588000", "084805.595000", "084805.597000", "084805.600000", "084805.602000", "084805.605000", "084805.607000", "084805.610000", "084805.612000", "084805.615000", "084805.617000", "084805.620000", "084805.622000", "084845.569000", "084845.572000", "084845.575000", "084845.577000", "084845.580000", "084845.582000", "084845.585000", "084845.587000", "084845.590000", "084845.592000", "084845.595000", "084845.597000", "084845.600000", "084845.602000", "084845.605000", "084845.607000", "084845.610000", "084845.612000", "084845.615000", "084845.618000", "084925.571000", "084925.573000", "084925.576000", "084925.589000", "084925.592000", "084925.594000", "084925.597000", "084925.599000", "084925.602000", "084925.604000", "084925.607000", "084925.609000", "084925.612000", "084925.614000", "084925.617000", "084925.619000", "084925.622000", "084925.624000", "084925.627000", "084925.629000", "085005.570000", "085005.573000", "085005.576000", "085005.578000", "085005.581000", "085005.583000", "085005.586000", "085005.589000", "085005.591000", "085005.594000", "085005.596000", "085005.599000", "085005.601000", "085005.604000", "085005.606000", "085005.609000", "085005.611000", "085005.614000", "085005.616000", "085005.619000", "085045.570000", "085045.572000", "085045.575000", "085045.577000", "085045.580000", "085045.582000", "085045.585000", "085045.587000", "085045.590000", "085045.593000", "085045.595000", "085045.598000", "085045.600000", "085045.603000", "085045.605000", "085045.608000", "085045.610000", "085045.613000", "085045.615000", "085045.618000", "085125.570000", "085125.573000", "085125.576000", "085125.578000", "085125.581000", "085125.584000", "085125.586000", "085125.589000", "085125.591000", "085125.594000", "085125.596000", "085125.599000", "085125.601000", "085125.604000", "085125.606000", "085125.609000", "085125.611000", "085125.614000", "085125.616000", "085125.619000", "085205.571000", "085205.573000", "085205.576000", "085205.578000", "085205.581000", "085205.583000", "085205.586000", "085205.588000", "085205.591000", "085205.593000", "085205.596000", "085205.598000", "085205.601000", "085205.604000", "085205.606000", "085205.609000", "085205.611000", "085205.614000", "085205.616000", "085205.619000", "085238.938000", "085238.941000", "085238.943000", "085238.946000", "085238.948000", "085238.951000", "085238.954000", "085238.957000", "085238.959000", "085238.962000", "085238.964000", "085238.968000", "085238.972000", "085238.977000", "085238.982000", "085238.991000", "085238.994000"],
      "InstanceNumber": [1, 2, 3, 4, 5, 6, 7, 8, 9, 10, 11, 12, 13, 14, 15, 16, 17, 18, 19, 20, 21, 22, 23, 24, 25, 26, 27, 28, 29, 30, 31, 32, 33, 34, 35, 36, 37, 38, 39, 40, 41, 42, 43, 44, 45, 46, 47, 48, 49, 50, 51, 52, 53, 54, 55, 56, 57, 58, 59, 60, 61, 62, 63, 64, 65, 66, 67, 68, 69, 70, 71, 72, 73, 74, 75, 76, 77, 78, 79, 80, 81, 82, 83, 84, 85, 86, 87, 88, 89, 90, 91, 92, 93, 94, 95, 96, 97, 98, 99, 100, 101, 102, 103, 104, 105, 106, 107, 108, 109, 110, 111, 112, 113, 114, 115, 116, 117, 118, 119, 120, 121, 122, 123, 124, 125, 126, 127, 128, 129, 130, 131, 132, 133, 134, 135, 136, 137, 138, 139, 140, 141, 142, 143, 144, 145, 146, 147, 148, 149, 150, 151, 152, 153, 154, 155, 156, 157, 158, 159, 160, 161, 162, 163, 164, 165, 166, 167, 168, 169, 170, 171, 172, 173, 174, 175, 176, 177, 178, 179, 180, 181, 182, 183, 184, 185, 186, 187, 188, 189, 190, 191, 192, 193, 194, 195, 196, 197, 198, 199, 200],
      "LargestImagePixelValue": [3756, 3759, 3765, 3755, 3758, 3745, 3748, 3753, 3763, 3748, 3752, 3750, 3747, 3759, 3753, 3751, 3754, 3756, 3747, 3750, 3751, 3751, 3753, 3748, 3754, 3750, 3742, 3755, 3760, 3749, 3744, 3753, 3749, 3755, 3751, 3752, 3748, 3755, 3747, 3749, 3744, 3749, 3749, 3749, 3746, 3750, 3749, 3749, 3747, 3749, 3748, 3746, 3747, 3748, 3750, 3744, 3741, 3743, 3745, 3747, 3743, 3744, 3744, 3744, 3747, 3744, 3747, 3742, 3752, 3747, 3749, 3750, 3745, 3740, 3741, 3753, 3740, 3746, 3746, 3744, 3748, 3745, 3743, 3744, 3743, 3752, 3742, 3751, 3744, 3748, 3745, 3745, 3737, 3741, 3742, 3738, 3742, 3747, 3749, 3739, 3741, 3743, 3742, 3742, 3742, 3750, 3746, 3744, 3737, 3742, 3749, 3741, 3744, 3743, 3743, 3742, 3746, 3738, 3741, 3744, 3741, 3742, 3741, 3737, 3744, 3744, 3738, 3734, 3735, 3738, 3739, 3743, 3739, 3744, 3742, 3737, 3740, 3736, 3739, 3741, 3744, 3745, 3739, 3739, 3738, 3744, 3739, 3736, 3748, 3733, 3740, 3742, 3742, 3740, 3744, 3734, 3740, 3741, 3735, 3734, 3742, 3742, 3745, 3736, 3740, 3737, 3738, 3739, 3733, 3740, 3738, 3734, 3735, 3739, 3736, 3735, 3738, 3744, 3735, 3737, 3741, 3744, 3734, 3740, 3738, 3736, 3733, 3735, 3744, 3733, 3735, 3737, 3736, 3746, 3741, 3730, 3730, 3741, 3738, 3735],
      "WindowCenter": [1356.0, 1355.0, 1354.0, 1355.0, 1355.0, 1354.0, 1355.0, 1354.0, 1355.0, 1354.0, 1354.0, 1354.0, 1355.0, 1354.0, 1354.0, 1355.0, 1354.0, 1354.0, 1354.0, 1354.0, 1354.0, 1354.0, 1354.0, 1355.0, 1354.0, 1354.0, 1354.0, 1354.0, 1354.0, 1354.0, 1354.0, 1354.0, 1354.0, 1354.0, 1354.0, 1353.0, 1354.0, 1355.0, 1354.0, 1354.0, 1353.0, 1354.0, 1354.0, 1354.0, 1354.0, 1354.0, 1354.0, 1354.0, 1354.0, 1353.0, 1354.0, 1353.0, 1354.0, 1354.0, 1353.0, 1353.0, 1353.0, 1353.0, 1354.0, 1354.0, 1354.0, 1353.0, 1353.0, 1354.0, 1353.0, 1353.0, 1354.0, 1353.0, 1353.0, 1353.0, 1353.0, 1353.0, 1353.0, 1353.0, 1353.0, 1353.0, 1353.0, 1353.0, 1353.0, 1353.0, 1353.0, 1353.0, 1353.0, 1354.0, 1353.0, 1353.0, 1352.0, 1353.0, 1353.0, 1353.0, 1353.0, 1353.0, 1353.0, 1353.0, 1353.0, 1353.0, 1353.0, 1353.0, 1353.0, 1353.0, 1353.0, 1353.0, 1353.0, 1353.0, 1353.0, 1352.0, 1353.0, 1352.0, 1353.0, 1353.0, 1352.0, 1352.0, 1352.0, 1352.0, 1353.0, 1352.0, 1352.0, 1352.0, 1352.0, 1353.0, 1352.0, 1353.0, 1353.0, 1352.0, 1352.0, 1353.0, 1353.0, 1352.0, 1352.0, 1352.0, 1353.0, 1353.0, 1352.0, 1352.0, 1353.0, 1352.0, 1352.0, 1352.0, 1352.0, 1352.0, 1353.0, 1353.0, 1352.0, 1352.0, 1352.0, 1353.0, 1352.0, 1352.0, 1353.0, 1352.0, 1353.0, 1352.0, 1352.0, 1352.0, 1352.0, 1352.0, 1352.0, 1352.0, 1352.0, 1352.0, 1352.0, 1352.0, 1352.0, 1352.0, 1352.0, 1353.0, 1351.0, 1352.0, 1351.0, 1351.0, 1351.0, 1352.0, 1352.0, 1352.0, 1351.0, 1352.0, 1351.0, 1351.0, 1352.0, 1352.0, 1352.0, 1352.0, 1352.0, 1351.0, 1352.0, 1352.0, 1352.0, 1352.0, 1351.0, 1352.0, 1352.0, 1352.0, 1352.0, 1352.0, 1351.0, 1352.0, 1351.0, 1351.0, 1352.0, 1351.0],
      "WindowWidth": [3161.0, 3160.0, 3160.0, 3160.0, 3159.0, 3160.0, 3159.0, 3160.0, 3159.0, 3159.0, 3159.0, 3159.0, 3159.0, 3159.0, 3159.0, 3159.0, 3159.0, 3159.0, 3159.0, 3159.0, 3159.0, 3159.0, 3160.0, 3159.0, 3160.0, 3160.0, 3159.0, 3159.0, 3159.0, 3159.0, 3159.0, 3159.0, 3160.0, 3160.0, 3160.0, 3160.0, 3160.0, 3159.0, 3159.0, 3159.0, 3159.0, 3159.0, 3159.0, 3159.0, 3159.0, 3159.0, 3159.0, 3159.0, 3159.0, 3159.0, 3159.0, 3159.0, 3159.0, 3158.0, 3159.0, 3159.0, 3159.0, 3159.0, 3159.0, 3159.0, 3159.0, 3159.0, 3159.0, 3159.0, 3159.0, 3159.0, 3159.0, 3159.0, 3159.0, 3159.0, 3159.0, 3159.0, 3159.0, 3159.0, 3159.0, 3159.0, 3159.0, 3159.0, 3159.0, 3159.0, 3159.0, 3159.0, 3159.0, 3159.0, 3159.0, 3159.0, 3159.0, 3159.0, 3159.0, 3159.0, 3159.0, 3159.0, 3159.0, 3159.0, 3159.0, 3159.0, 3159.0, 3159.0, 3159.0, 3159.0, 3159.0, 3159.0, 3159.0, 3159.0, 3159.0, 3159.0, 3159.0, 3159.0, 3158.0, 3158.0, 3159.0, 3159.0, 3159.0, 3158.0, 3158.0, 3158.0, 3159.0, 3159.0, 3158.0, 3158.0, 3158.0, 3158.0, 3159.0, 3159.0, 3159.0, 3159.0, 3158.0, 3159.0, 3159.0, 3158.0, 3158.0, 3158.0, 3158.0, 3158.0, 3158.0, 3158.0, 3159.0, 3158.0, 3158.0, 3158.0, 3158.0, 3158.0, 3158.0, 3159.0, 3158.0, 3158.0, 3158.0, 3158.0, 3158.0, 3158.0, 3158.0, 3158.0, 3158.0, 3158.0, 3158.0, 3158.0, 3158.0, 3158.0, 3158.0, 3158.0, 3158.0, 3158.0, 3158.0, 3158.0, 3158.0, 3158.0, 3158.0, 3158.0, 3158.0, 3158.0, 3158.0, 3157.0, 3157.0, 3157.0, 3158.0, 3158.0, 3158.0, 3158.0, 3157.0, 3157.0, 3157.0, 3157.0, 3157.0, 3158.0, 3157.0, 3158.0, 3158.0, 3157.0, 3158.0, 3158.0, 3157.0, 3157.0, 3157.0, 3157.0, 3157.0, 3157.0, 3157.0, 3157.0, 3157.0, 3158.0]
    },
    "slices": {}
  }
}