{
  "AcquisitionMatrixPE": 122,
  "AcquisitionNumber": 1,
  "AcquisitionTime": "09:39:37.472500",
  "BandwidthPerPixelPhaseEncode": 27.785,
  "BaseResolution": 122,
  "BodyPartExamined": "BRAIN",
  "CoilCombinationMethod": "Adaptive Combine",
  "ConsistencyInfo": "N4_VE11C_LATEST_20160120",
  "ConversionSoftware": "dcm2niix",
  "ConversionSoftwareVersion": "v1.0.20220720",
  "DerivedVendorReportedEchoSpacing": 0.000590011,
  "DeviceSerialNumber": "66112",
  "DiffusionScheme": "Monopolar",
  "DwellTime": 2e-06,
  "EchoTime": 0.068,
  "EchoTrainLength": 61,
  "EffectiveEchoSpacing": 0.000295005,
  "FlipAngle": 90,
  "HeudiconvVersion": "0.13.1",
  "ImageOrientationPatientDICOM": [0.988385, 0.151877, 0.00534717, -0.146481, 0.942713, 0.299725],
  "ImageOrientationText": "Tra>Cor(17.3)>Sag(-2.3)",
  "ImageType": [
    "ORIGINAL",
    "PRIMARY",
    "DIFFUSION",
    "NONE",
    "ND",
    "NORM"
],
  "ImagingFrequency": 123.252,
  "InPlanePhaseEncodingDirectionDICOM": "COL",
  "InstitutionAddress": "Maynard 3,Hanover,NH,US,03755",
  "InstitutionName": "Dartmouth College - PBS",
  "InstitutionalDepartmentName": "Department",
  "MRAcquisitionType": "2D",
  "MagneticFieldStrength": 3,
  "Manufacturer": "Siemens",
  "ManufacturersModelName": "Prisma",
  "Modality": "MR",
  "MultibandAccelerationFactor": 4,
  "NonlinearGradientCorrection": false,
  "ParallelReductionFactorInPlane": 2,
  "PartialFourier": 1,
  "PatientPosition": "HFS",
  "PercentPhaseFOV": 100,
  "PercentSampling": 100,
  "PhaseEncodingDirection": "j-",
  "PhaseEncodingSteps": 122,
  "PhaseResolution": 1,
  "PixelBandwidth": 2050,
  "ProcedureStepDescription": "dbic^QA",
  "ProtocolName": "dwi_acq-DTI-30-p2-s4",
  "PulseSequenceDetails": "%SiemensSeq%\\ep2d_diff",
  "ReceiveCoilActiveElements": "HEA;HEP",
  "ReceiveCoilName": "Head_32",
  "ReconMatrixPE": 122,
  "RefLinesPE": 38,
  "RepetitionTime": 3.6,
  "SAR": 0.138619,
  "ScanOptions": "FS",
  "ScanningSequence": "EP",
  "SequenceName": "*ep_b0",
  "SequenceVariant": "SK\\SP",
  "SeriesDescription": "dwi_acq-DTI-30-p2-s4",
  "SeriesNumber": 9,
  "ShimSetting": [4144, -7685, -7529, 293, -65, -241, -9, 65],
  "SliceThickness": 2,
  "SliceTiming": [2.57812, 0, 1.78906, 0.19531, 1.98438, 0.39062, 2.1875, 0.59375, 2.38281, 0.99219, 2.78125, 1.1875, 2.97656, 1.39062, 3.17969, 1.58594, 3.375, 0.78906, 2.57812, 0, 1.78906, 0.19531, 1.98438, 0.39062, 2.1875, 0.59375, 2.38281, 0.99219, 2.78125, 1.1875, 2.97656, 1.39062, 3.17969, 1.58594, 3.375, 0.78906, 2.57812, 0, 1.78906, 0.19531, 1.98438, 0.39062, 2.1875, 0.59375, 2.38281, 0.99219, 2.78125, 1.1875, 2.97656, 1.39062, 3.17969, 1.58594, 3.375, 0.78906, 2.57812, 0, 1.78906, 0.19531, 1.98438, 0.39062, 2.1875, 0.59375, 2.38281, 0.99219, 2.78125, 1.1875, 2.97656, 1.39062, 3.17969, 1.58594, 3.375, 0.78906],
  "SoftwareVersions": "syngo MR E11",
  "SpacingBetweenSlices": 2,
  "SpoilingState": true,
  "StationName": "AWP66112",
  "TotalReadoutTime": 0.0356956,
  "TxRefAmp": 231.071,
  "dcmmeta_affine": [
    [-1.9443637132644653, -0.288159042596817, -0.08096122741699219, 140.5203857421875],
    [-0.2987751066684723, 1.8545178174972534, 0.59405517578125, -118.31434631347656],
    [0.010519023984670639, -0.5896233916282654, 1.90802001953125, -31.010129928588867],
    [0.0, 0.0, 0.0, 1.0]
],
  "dcmmeta_reorient_transform": [
    [0.0, -1.0, 0.0, 121.0],
    [1.0, 0.0, 0.0, 0.0],
    [0.0, 0.0, -1.0, 71.0],
    [0.0, 0.0, 0.0, 1.0]
],
  "dcmmeta_shape": [122, 122, 72, 31],
  "dcmmeta_slice_dim": 2,
  "dcmmeta_version": 0.6,
  "global": {
    "const": {
      "AccessionNumber": "qa",
      "AcquisitionMatrix": [122, 0, 0, 122],
      "AngioFlag": "N",
      "BitsAllocated": 16,
      "BitsStored": 12,
      "BodyPartExamined": "BRAIN",
      "Columns": 122,
      "EchoNumbers": 1,
      "EchoTime": 68.0,
      "EchoTrainLength": 61,
      "FlipAngle": 90.0,
      "HighBit": 11,
      "ImageOrientationPatient": [0.9883848849955, 0.15187734156016, 0.00534717056455, -0.1464808466998, 0.94271318878075, 0.29972521623803],
      "ImageType": [
        "ORIGINAL",
        "PRIMARY",
        "DIFFUSION",
        "NONE",
        "ND",
        "NORM"
],
      "ImagedNucleus": "1H",
      "ImagingFrequency": 123.252452,
      "InPlanePhaseEncodingDirection": "COL",
      "MRAcquisitionType": "2D",
      "MagneticFieldStrength": 3.0,
      "Manufacturer": "SIEMENS",
      "ManufacturerModelName": "Prisma",
      "Modality": "MR",
      "NumberOfAverages": 1.0,
      "NumberOfPhaseEncodingSteps": 122,
      "PercentPhaseFieldOfView": 100.0,
      "PercentSampling": 100.0,
      "PerformedProcedureStepStartTime": "091209.210000",
      "PhotometricInterpretation": "MONOCHROME2",
      "PixelBandwidth": 2050.0,
      "PixelRepresentation": 0,
      "PixelSpacing": [1.9672131538391, 1.9672131538391],
      "ProtocolName": "dwi_acq-DTI-30-p2-s4",
      "RepetitionTime": 3600.0,
      "Rows": 122,
      "SAR": 0.13861926481991,
      "SamplesPerPixel": 1,
      "ScanOptions": "FS",
      "ScanningSequence": "EP",
      "SequenceVariant": [
        "SK",
        "SP"
],
      "SeriesDescription": "dwi_acq-DTI-30-p2-s4",
      "SeriesNumber": 9,
      "SeriesTime": "093946.223000",
      "SliceThickness": 2.0,
      "SmallestImagePixelValue": 0,
      "SoftwareVersions": "syngo MR E11",
      "SpacingBetweenSlices": 2.0,
      "SpecificCharacterSet": "ISO_IR 100",
      "StudyID": "23",
      "StudyTime": "091209.147000",
      "TransmitCoilName": "Body",
      "VariableFlipAngleFlag": "N",
      "WindowCenterWidthExplanation": "Algo1",
      "dBdt": 0.0},
    "slices": {
      "AcquisitionTime": ["093937.472500", "093934.887500", "093936.677500", "093935.085000", "093936.875000", "093935.285000", "093937.075000", "093935.482500", "093937.272500", "093935.880000", "093937.670000", "093936.080000", "093937.870000", "093936.277500", "093938.067500", "093936.477500", "093938.267500", "093935.682500", "093937.472500", "093934.887500", "093936.677500", "093935.085000", "093936.875000", "093935.285000", "093937.075000", "093935.482500", "093937.272500", "093935.880000", "093937.670000", "093936.080000", "093937.870000", "093936.277500", "093938.067500", "093936.477500", "093938.267500", "093935.682500", "093937.472500", "093934.887500", "093936.677500", "093935.085000", "093936.875000", "093935.285000", "093937.075000", "093935.482500", "093937.272500", "093935.880000", "093937.670000", "093936.080000", "093937.870000", "093936.277500", "093938.067500", "093936.477500", "093938.267500", "093935.682500", "093937.472500", "093934.887500", "093936.677500", "093935.085000", "093936.875000", "093935.285000", "093937.075000", "093935.482500", "093937.272500", "093935.880000", "093937.670000", "093936.080000", "093937.870000", "093936.277500", "093938.067500", "093936.477500", "093938.267500", "093935.682500", "093941.072500", "093938.487500", "093940.277500", "093938.685000", "093940.475000", "093938.885000", "093940.675000", "093939.082500", "093940.872500", "093939.480000", "093941.270000", "093939.680000", "093941.470000", "093939.877500", "093941.667500", "093940.077500", "093941.867500", "093939.282500", "093941.072500", "093938.487500", "093940.277500", "093938.685000", "093940.475000", "093938.885000", "093940.675000", "093939.082500", "093940.872500", "093939.480000", "093941.270000", "093939.680000", "093941.470000", "093939.877500", "093941.667500", "093940.077500", "093941.867500", "093939.282500", "093941.072500", "093938.487500", "093940.277500", "093938.685000", "093940.475000", "093938.885000", "093940.675000", "093939.082500", "093940.872500", "093939.480000", "093941.270000", "093939.680000", "093941.470000", "093939.877500", "093941.667500", "093940.077500", "093941.867500", "093939.282500", "093941.072500", "093938.487500", "093940.277500", "093938.685000", "093940.475000", "093938.885000", "093940.675000", "093939.082500", "093940.872500", "093939.480000", "093941.270000", "093939.680000", "093941.470000", "093939.877500", "093941.667500", "093940.077500", "093941.867500", "093939.282500", "093944.672500", "093942.087500", "093943.877500", "093942.285000", "093944.075000", "093942.485000", "093944.275000", "093942.682500", "093944.472500", "093943.080000", "093944.870000", "093943.280000", "093945.070000", "093943.477500", "093945.267500", "093943.677500", "093945.467500", "093942.882500", "093944.672500", "093942.087500", "093943.877500", "093942.285000", "093944.075000", "093942.485000", "093944.275000", "093942.682500", "093944.472500", "093943.080000", "093944.870000", "093943.280000", "093945.070000", "093943.477500", "093945.267500", "093943.677500", "093945.467500", "093942.882500", "093944.672500", "093942.087500", "093943.877500", "093942.285000", "093944.075000", "093942.485000", "093944.275000", "093942.682500", "093944.472500", "093943.080000", "093944.870000", "093943.280000", "093945.070000", "093943.477500", "093945.267500", "093943.677500", "093945.467500", "093942.882500", "093944.672500", "093942.087500", "093943.877500", "093942.285000", "093944.075000", "093942.485000", "093944.275000", "093942.682500", "093944.472500", "093943.080000", "093944.870000", "093943.280000", "093945.070000", "093943.477500", "093945.267500", "093943.677500", "093945.467500", "093942.882500", "093948.272500", "093945.687500", "093947.477500", "093945.885000", "093947.675000", "093946.085000", "093947.875000", "093946.282500", "093948.072500", "093946.680000", "093948.470000", "093946.880000", "093948.670000", "093947.077500", "093948.867500", "093947.277500", "093949.067500", "093946.482500", "093948.272500", "093945.687500", "093947.477500", "093945.885000", "093947.675000", "093946.085000", "093947.875000", "093946.282500", "093948.072500", "093946.680000", "093948.470000", "093946.880000", "093948.670000", "093947.077500", "093948.867500", "093947.277500", "093949.067500", "093946.482500", "093948.272500", "093945.687500", "093947.477500", "093945.885000", "093947.675000", "093946.085000", "093947.875000", "093946.282500", "093948.072500", "093946.680000", "093948.470000", "093946.880000", "093948.670000", "093947.077500", "093948.867500", "093947.277500", "093949.067500", "093946.482500", "093948.272500", "093945.687500", "093947.477500", "093945.885000", "093947.675000", "093946.085000", "093947.875000", "093946.282500", "093948.072500", "093946.680000", "093948.470000", "093946.880000", "093948.670000", "093947.077500", "093948.867500", "093947.277500", "093949.067500", "093946.482500", "093951.872500", "093949.287500", "093951.077500", "093949.485000", "093951.275000", "093949.685000", "093951.475000", "093949.882500", "093951.672500", "093950.280000", "093952.070000", "093950.480000", "093952.270000", "093950.677500", "093952.467500", "093950.877500", "093952.667500", "093950.082500", "093951.872500", "093949.287500", "093951.077500", "093949.485000", "093951.275000", "093949.685000", "093951.475000", "093949.882500", "093951.672500", "093950.280000", "093952.070000", "093950.480000", "093952.270000", "093950.677500", "093952.467500", "093950.877500", "093952.667500", "093950.082500", "093951.872500", "093949.287500", "093951.077500", "093949.485000", "093951.275000", "093949.685000", "093951.475000", "093949.882500", "093951.672500", "093950.280000", "093952.070000", "093950.480000", "093952.270000", "093950.677500", "093952.467500", "093950.877500", "093952.667500", "093950.082500", "093951.872500", "093949.287500", "093951.077500", "093949.485000", "093951.275000", "093949.685000", "093951.475000", "093949.882500", "093951.672500", "093950.280000", "093952.070000", "093950.480000", "093952.270000", "093950.677500", "093952.467500", "093950.877500", "093952.667500", "093950.082500", "093955.472500", "093952.887500", "093954.677500", "093953.085000", "093954.875000", "093953.285000", "093955.075000", "093953.482500", "093955.272500", "093953.880000", "093955.670000", "093954.080000", "093955.870000", "093954.277500", "093956.067500", "093954.477500", "093956.267500", "093953.682500", "093955.472500", "093952.887500", "093954.677500", "093953.085000", "093954.875000", "093953.285000", "093955.075000", "093953.482500", "093955.272500", "093953.880000", "093955.670000", "093954.080000", "093955.870000", "093954.277500", "093956.067500", "093954.477500", "093956.267500", "093953.682500", "093955.472500", "093952.887500", "093954.677500", "093953.085000", "093954.875000", "093953.285000", "093955.075000", "093953.482500", "093955.272500", "093953.880000", "093955.670000", "093954.080000", "093955.870000", "093954.277500", "093956.067500", "093954.477500", "093956.267500", "093953.682500", "093955.472500", "093952.887500", "093954.677500", "093953.085000", "093954.875000", "093953.285000", "093955.075000", "093953.482500", "093955.272500", "093953.880000", "093955.670000", "093954.080000", "093955.870000", "093954.277500", "093956.067500", "093954.477500", "093956.267500", "093953.682500", "093959.072500", "093956.487500", "093958.277500", "093956.685000", "093958.475000", "093956.885000", "093958.675000", "093957.082500", "093958.872500", "093957.480000", "093959.270000", "093957.680000", "093959.470000", "093957.877500", "093959.667500", "093958.077500", "093959.867500", "093957.282500", "093959.072500", "093956.487500", "093958.277500", "093956.685000", "093958.475000", "093956.885000", "093958.675000", "093957.082500", "093958.872500", "093957.480000", "093959.270000", "093957.680000", "093959.470000", "093957.877500", "093959.667500", "093958.077500", "093959.867500", "093957.282500", "093959.072500", "093956.487500", "093958.277500", "093956.685000", "093958.475000", "093956.885000", "093958.675000", "093957.082500", "093958.872500", "093957.480000", "093959.270000", "093957.680000", "093959.470000", "093957.877500", "093959.667500", "093958.077500", "093959.867500", "093957.282500", "093959.072500", "093956.487500", "093958.277500", "093956.685000", "093958.475000", "093956.885000", "093958.675000", "093957.082500", "093958.872500", "093957.480000", "093959.270000", "093957.680000", "093959.470000", "093957.877500", "093959.667500", "093958.077500", "093959.867500", "093957.282500", "094002.672500", "094000.087500", "094001.877500", "094000.285000", "094002.075000", "094000.485000", "094002.275000", "094000.682500", "094002.472500", "094001.080000", "094002.870000", "094001.280000", "094003.070000", "094001.477500", "094003.267500", "094001.677500", "094003.467500", "094000.882500", "094002.672500", "094000.087500", "094001.877500", "094000.285000", "094002.075000", "094000.485000", "094002.275000", "094000.682500", "094002.472500", "094001.080000", "094002.870000", "094001.280000", "094003.070000", "094001.477500", "094003.267500", "094001.677500", "094003.467500", "094000.882500", "094002.672500", "094000.087500", "094001.877500", "094000.285000", "094002.075000", "094000.485000", "094002.275000", "094000.682500", "094002.472500", "094001.080000", "094002.870000", "094001.280000", "094003.070000", "094001.477500", "094003.267500", "094001.677500", "094003.467500", "094000.882500", "094002.672500", "094000.087500", "094001.877500", "094000.285000", "094002.075000", "094000.485000", "094002.275000", "094000.682500", "094002.472500", "094001.080000", "094002.870000", "094001.280000", "094003.070000", "094001.477500", "094003.267500", "094001.677500", "094003.467500", "094000.882500", "094006.272500", "094003.687500", "094005.477500", "094003.885000", "094005.675000", "094004.085000", "094005.875000", "094004.282500", "094006.072500", "094004.680000", "094006.470000", "094004.880000", "094006.670000", "094005.077500", "094006.867500", "094005.277500", "094007.067500", "094004.482500", "094006.272500", "094003.687500", "094005.477500", "094003.885000", "094005.675000", "094004.085000", "094005.875000", "094004.282500", "094006.072500", "094004.680000", "094006.470000", "094004.880000", "094006.670000", "094005.077500", "094006.867500", "094005.277500", "094007.067500", "094004.482500", "094006.272500", "094003.687500", "094005.477500", "094003.885000", "094005.675000", "094004.085000", "094005.875000", "094004.282500", "094006.072500", "094004.680000", "094006.470000", "094004.880000", "094006.670000", "094005.077500", "094006.867500", "094005.277500", "094007.067500", "094004.482500", "094006.272500", "094003.687500", "094005.477500", "094003.885000", "094005.675000", "094004.085000", "094005.875000", "094004.282500", "094006.072500", "094004.680000", "094006.470000", "094004.880000", "094006.670000", "094005.077500", "094006.867500", "094005.277500", "094007.067500", "094004.482500", "094009.872500", "094007.287500", "094009.077500", "094007.485000", "094009.275000", "094007.685000", "094009.475000", "094007.882500", "094009.672500", "094008.280000", "094010.070000", "094008.480000", "094010.270000", "094008.677500", "094010.467500", "094008.877500", "094010.667500", "094008.082500", "094009.872500", "094007.287500", "094009.077500", "094007.485000", "094009.275000", "094007.685000", "094009.475000", "094007.882500", "094009.672500", "094008.280000", "094010.070000", "094008.480000", "094010.270000", "094008.677500", "094010.467500", "094008.877500", "094010.667500", "094008.082500", "094009.872500", "094007.287500", "094009.077500", "094007.485000", "094009.275000", "094007.685000", "094009.475000", "094007.882500", "094009.672500", "094008.280000", "094010.070000", "094008.480000", "094010.270000", "094008.677500", "094010.467500", "094008.877500", "094010.667500", "094008.082500", "094009.872500", "094007.287500", "094009.077500", "094007.485000", "094009.275000", "094007.685000", "094009.475000", "094007.882500", "094009.672500", "094008.280000", "094010.070000", "094008.480000", "094010.270000", "094008.677500", "094010.467500", "094008.877500", "094010.667500", "094008.082500", "094013.472500", "094010.887500", "094012.677500", "094011.085000", "094012.875000", "094011.285000", "094013.075000", "094011.482500", "094013.272500", "094011.880000", "094013.670000", "094012.080000", "094013.870000", "094012.277500", "094014.067500", "094012.477500", "094014.267500", "094011.682500", "094013.472500", "094010.887500", "094012.677500", "094011.085000", "094012.875000", "094011.285000", "094013.075000", "094011.482500", "094013.272500", "094011.880000", "094013.670000", "094012.080000", "094013.870000", "094012.277500", "094014.067500", "094012.477500", "094014.267500", "094011.682500", "094013.472500", "094010.887500", "094012.677500", "094011.085000", "094012.875000", "094011.285000", "094013.075000", "094011.482500", "094013.272500", "094011.880000", "094013.670000", "094012.080000", "094013.870000", "094012.277500", "094014.067500", "094012.477500", "094014.267500", "094011.682500", "094013.472500", "094010.887500", "094012.677500", "094011.085000", "094012.875000", "094011.285000", "094013.075000", "094011.482500", "094013.272500", "094011.880000", "094013.670000", "094012.080000", "094013.870000", "094012.277500", "094014.067500", "094012.477500", "094014.267500", "094011.682500", "094017.072500", "094014.487500", "094016.277500", "094014.685000", "094016.475000", "094014.885000", "094016.675000", "094015.082500", "094016.872500", "094015.480000", "094017.270000", "094015.680000", "094017.470000", "094015.877500", "094017.667500", "094016.077500", "094017.867500", "094015.282500", "094017.072500", "094014.487500", "094016.277500", "094014.685000", "094016.475000", "094014.885000", "094016.675000", "094015.082500", "094016.872500", "094015.480000", "094017.270000", "094015.680000", "094017.470000", "094015.877500", "094017.667500", "094016.077500", "094017.867500", "094015.282500", "094017.072500", "094014.487500", "094016.277500", "094014.685000", "094016.475000", "094014.885000", "094016.675000", "094015.082500", "094016.872500", "094015.480000", "094017.270000", "094015.680000", "094017.470000", "094015.877500", "094017.667500", "094016.077500", "094017.867500", "094015.282500", "094017.072500", "094014.487500", "094016.277500", "094014.685000", "094016.475000", "094014.885000", "094016.675000", "094015.082500", "094016.872500", "094015.480000", "094017.270000", "094015.680000", "094017.470000", "094015.877500", "094017.667500", "094016.077500", "094017.867500", "094015.282500", "094020.672500", "094018.087500", "094019.877500", "094018.285000", "094020.075000", "094018.485000", "094020.275000", "094018.682500", "094020.472500", "094019.080000", "094020.870000", "094019.280000", "094021.070000", "094019.477500", "094021.267500", "094019.677500", "094021.467500", "094018.882500", "094020.672500", "094018.087500", "094019.877500", "094018.285000", "094020.075000", "094018.485000", "094020.275000", "094018.682500", "094020.472500", "094019.080000", "094020.870000", "094019.280000", "094021.070000", "094019.477500", "094021.267500", "094019.677500", "094021.467500", "094018.882500", "094020.672500", "094018.087500", "094019.877500", "094018.285000", "094020.075000", "094018.485000", "094020.275000", "094018.682500", "094020.472500", "094019.080000", "094020.870000", "094019.280000", "094021.070000", "094019.477500", "094021.267500", "094019.677500", "094021.467500", "094018.882500", "094020.672500", "094018.087500", "094019.877500", "094018.285000", "094020.075000", "094018.485000", "094020.275000", "094018.682500", "094020.472500", "094019.080000", "094020.870000", "094019.280000", "094021.070000", "094019.477500", "094021.267500", "094019.677500", "094021.467500", "094018.882500", "094024.272500", "094021.687500", "094023.477500", "094021.885000", "094023.675000", "094022.085000", "094023.875000", "094022.282500", "094024.072500", "094022.680000", "094024.470000", "094022.880000", "094024.670000", "094023.077500", "094024.867500", "094023.277500", "094025.067500", "094022.482500", "094024.272500", "094021.687500", "094023.477500", "094021.885000", "094023.675000", "094022.085000", "094023.875000", "094022.282500", "094024.072500", "094022.680000", "094024.470000", "094022.880000", "094024.670000", "094023.077500", "094024.867500", "094023.277500", "094025.067500", "094022.482500", "094024.272500", "094021.687500", "094023.477500", "094021.885000", "094023.675000", "094022.085000", "094023.875000", "094022.282500", "094024.072500", "094022.680000", "094024.470000", "094022.880000", "094024.670000", "094023.077500", "094024.867500", "094023.277500", "094025.067500", "094022.482500", "094024.272500", "094021.687500", "094023.477500", "094021.885000", "094023.675000", "094022.085000", "094023.875000", "094022.282500", "094024.072500", "094022.680000", "094024.470000", "094022.880000", "094024.670000", "094023.077500", "094024.867500", "094023.277500", "094025.067500", "094022.482500", "094027.872500", "094025.287500", "094027.077500", "094025.485000", "094027.275000", "094025.685000", "094027.475000", "094025.882500", "094027.672500", "094026.280000", "094028.070000", "094026.480000", "094028.270000", "094026.677500", "094028.467500", "094026.877500", "094028.667500", "094026.082500", "094027.872500", "094025.287500", "094027.077500", "094025.485000", "094027.275000", "094025.685000", "094027.475000", "094025.882500", "094027.672500", "094026.280000", "094028.070000", "094026.480000", "094028.270000", "094026.677500", "094028.467500", "094026.877500", "094028.667500", "094026.082500", "094027.872500", "094025.287500", "094027.077500", "094025.485000", "094027.275000", "094025.685000", "094027.475000", "094025.882500", "094027.672500", "094026.280000", "094028.070000", "094026.480000", "094028.270000", "094026.677500", "094028.467500", "094026.877500", "094028.667500", "094026.082500", "094027.872500", "094025.287500", "094027.077500", "094025.485000", "094027.275000", "094025.685000", "094027.475000", "094025.882500", "094027.672500", "094026.280000", "094028.070000", "094026.480000", "094028.270000", "094026.677500", "094028.467500", "094026.877500", "094028.667500", "094026.082500", "094031.472500", "094028.887500", "094030.677500", "094029.085000", "094030.875000", "094029.285000", "094031.075000", "094029.482500", "094031.272500", "094029.880000", "094031.670000", "094030.080000", "094031.870000", "094030.277500", "094032.067500", "094030.477500", "094032.267500", "094029.682500", "094031.472500", "094028.887500", "094030.677500", "094029.085000", "094030.875000", "094029.285000", "094031.075000", "094029.482500", "094031.272500", "094029.880000", "094031.670000", "094030.080000", "094031.870000", "094030.277500", "094032.067500", "094030.477500", "094032.267500", "094029.682500", "094031.472500", "094028.887500", "094030.677500", "094029.085000", "094030.875000", "094029.285000", "094031.075000", "094029.482500", "094031.272500", "094029.880000", "094031.670000", "094030.080000", "094031.870000", "094030.277500", "094032.067500", "094030.477500", "094032.267500", "094029.682500", "094031.472500", "094028.887500", "094030.677500", "094029.085000", "094030.875000", "094029.285000", "094031.075000", "094029.482500", "094031.272500", "094029.880000", "094031.670000", "094030.080000", "094031.870000", "094030.277500", "094032.067500", "094030.477500", "094032.267500", "094029.682500", "094035.072500", "094032.487500", "094034.277500", "094032.685000", "094034.475000", "094032.885000", "094034.675000", "094033.082500", "094034.872500", "094033.480000", "094035.270000", "094033.680000", "094035.470000", "094033.877500", "094035.667500", "094034.077500", "094035.867500", "094033.282500", "094035.072500", "094032.487500", "094034.277500", "094032.685000", "094034.475000", "094032.885000", "094034.675000", "094033.082500", "094034.872500", "094033.480000", "094035.270000", "094033.680000", "094035.470000", "094033.877500", "094035.667500", "094034.077500", "094035.867500", "094033.282500", "094035.072500", "094032.487500", "094034.277500", "094032.685000", "094034.475000", "094032.885000", "094034.675000", "094033.082500", "094034.872500", "094033.480000", "094035.270000", "094033.680000", "094035.470000", "094033.877500", "094035.667500", "094034.077500", "094035.867500", "094033.282500", "094035.072500", "094032.487500", "094034.277500", "094032.685000", "094034.475000", "094032.885000", "094034.675000", "094033.082500", "094034.872500", "094033.480000", "094035.270000", "094033.680000", "094035.470000", "094033.877500", "094035.667500", "094034.077500", "094035.867500", "094033.282500", "094038.672500", "094036.087500", "094037.877500", "094036.285000", "094038.075000", "094036.485000", "094038.275000", "094036.682500", "094038.472500", "094037.080000", "094038.870000", "094037.280000", "094039.070000", "094037.477500", "094039.267500", "094037.677500", "094039.467500", "094036.882500", "094038.672500", "094036.087500", "094037.877500", "094036.285000", "094038.075000", "094036.485000", "094038.275000", "094036.682500", "094038.472500", "094037.080000", "094038.870000", "094037.280000", "094039.070000", "094037.477500", "094039.267500", "094037.677500", "094039.467500", "094036.882500", "094038.672500", "094036.087500", "094037.877500", "094036.285000", "094038.075000", "094036.485000", "094038.275000", "094036.682500", "094038.472500", "094037.080000", "094038.870000", "094037.280000", "094039.070000", "094037.477500", "094039.267500", "094037.677500", "094039.467500", "094036.882500", "094038.672500", "094036.087500", "094037.877500", "094036.285000", "094038.075000", "094036.485000", "094038.275000", "094036.682500", "094038.472500", "094037.080000", "094038.870000", "094037.280000", "094039.070000", "094037.477500", "094039.267500", "094037.677500", "094039.467500", "094036.882500", "094042.272500", "094039.687500", "094041.477500", "094039.885000", "094041.675000", "094040.085000", "094041.875000", "094040.282500", "094042.072500", "094040.680000", "094042.470000", "094040.880000", "094042.670000", "094041.077500", "094042.867500", "094041.277500", "094043.067500", "094040.482500", "094042.272500", "094039.687500", "094041.477500", "094039.885000", "094041.675000", "094040.085000", "094041.875000", "094040.282500", "094042.072500", "094040.680000", "094042.470000", "094040.880000", "094042.670000", "094041.077500", "094042.867500", "094041.277500", "094043.067500", "094040.482500", "094042.272500", "094039.687500", "094041.477500", "094039.885000", "094041.675000", "094040.085000", "094041.875000", "094040.282500", "094042.072500", "094040.680000", "094042.470000", "094040.880000", "094042.670000", "094041.077500", "094042.867500", "094041.277500", "094043.067500", "094040.482500", "094042.272500", "094039.687500", "094041.477500", "094039.885000", "094041.675000", "094040.085000", "094041.875000", "094040.282500", "094042.072500", "094040.680000", "094042.470000", "094040.880000", "094042.670000", "094041.077500", "094042.867500", "094041.277500", "094043.067500", "094040.482500", "094045.872500", "094043.287500", "094045.077500", "094043.485000", "094045.275000", "094043.685000", "094045.475000", "094043.882500", "094045.672500", "094044.280000", "094046.070000", "094044.480000", "094046.270000", "094044.677500", "094046.467500", "094044.877500", "094046.667500", "094044.082500", "094045.872500", "094043.287500", "094045.077500", "094043.485000", "094045.275000", "094043.685000", "094045.475000", "094043.882500", "094045.672500", "094044.280000", "094046.070000", "094044.480000", "094046.270000", "094044.677500", "094046.467500", "094044.877500", "094046.667500", "094044.082500", "094045.872500", "094043.287500", "094045.077500", "094043.485000", "094045.275000", "094043.685000", "094045.475000", "094043.882500", "094045.672500", "094044.280000", "094046.070000", "094044.480000", "094046.270000", "094044.677500", "094046.467500", "094044.877500", "094046.667500", "094044.082500", "094045.872500", "094043.287500", "094045.077500", "094043.485000", "094045.275000", "094043.685000", "094045.475000", "094043.882500", "094045.672500", "094044.280000", "094046.070000", "094044.480000", "0