{
  "AcquisitionMatrixPE": 122,
  "AcquisitionNumber": 1,
  "AcquisitionTime": "09:35:15.065000",
  "BandwidthPerPixelPhaseEncode": 28.76,
  "BaseResolution": 122,
  "BodyPartExamined": "BRAIN",
  "CoilCombinationMethod": "Adaptive Combine",
  "ConsistencyInfo": "N4_VE11C_LATEST_20160120",
  "ConversionSoftware": "dcm2niix",
  "ConversionSoftwareVersion": "v1.0.20220720",
  "DerivedVendorReportedEchoSpacing": 0.000570008,
  "DeviceSerialNumber": "66112",
  "DiffusionScheme": "Monopolar",
  "DwellTime": 2e-06,
  "EchoTime": 0.075,
  "EchoTrainLength": 61,
  "EffectiveEchoSpacing": 0.000285004,
  "FlipAngle": 90,
  "HeudiconvVersion": "0.13.1",
  "ImageOrientationPatientDICOM": [0.988385, 0.151877, 0.00534717, -0.146481, 0.942713, 0.299725],
  "ImageOrientationText": "Tra>Cor(17.3)>Sag(-2.3)",
  "ImageType": [
    "ORIGINAL",
    "PRIMARY",
    "DIFFUSION",
    "NONE",
    "ND",
    "NORM"
],
  "ImagingFrequency": 123.252,
  "InPlanePhaseEncodingDirectionDICOM": "COL",
  "InstitutionAddress": "Maynard 3,Hanover,NH,US,03755",
  "InstitutionName": "Dartmouth College - PBS",
  "InstitutionalDepartmentName": "Department",
  "MRAcquisitionType": "2D",
  "MagneticFieldStrength": 3,
  "Manufacturer": "Siemens",
  "ManufacturersModelName": "Prisma",
  "MatrixCoilMode": "GRAPPA",
  "Modality": "MR",
  "NonlinearGradientCorrection": false,
  "ParallelReductionFactorInPlane": 2,
  "PartialFourier": 1,
  "PatientPosition": "HFS",
  "PercentPhaseFOV": 100,
  "PercentSampling": 100,
  "PhaseEncodingDirection": "j-",
  "PhaseEncodingSteps": 122,
  "PhaseResolution": 1,
  "PixelBandwidth": 2050,
  "ProcedureStepDescription": "dbic^QA",
  "ProtocolName": "dwi_acq-DTI-30-p2",
  "PulseSequenceDetails": "%SiemensSeq%\\ep2d_diff",
  "ReceiveCoilActiveElements": "HEA;HEP",
  "ReceiveCoilName": "Head_32",
  "ReconMatrixPE": 122,
  "RefLinesPE": 38,
  "RepetitionTime": 7.7,
  "SAR": 0.087322,
  "ScanOptions": "FS",
  "ScanningSequence": "EP",
  "SequenceName": "*ep_b0",
  "SequenceVariant": "SK\\SP",
  "SeriesDescription": "dwi_acq-DTI-30-p2",
  "SeriesNumber": 8,
  "ShimSetting": [4144, -7684, -7529, 289, -64, -240, -9, 65],
  "SliceThickness": 2,
  "SliceTiming": [3.83594, 0, 3.94531, 0.10938, 4.05469, 0.21875, 4.16406, 0.32812, 4.27344, 0.4375, 4.38281, 0.54688, 4.49219, 0.65625, 4.60938, 0.76562, 4.71875, 0.875, 4.82812, 0.98438, 4.9375, 1.09375, 5.04688, 1.20312, 5.15625, 1.3125, 5.26562, 1.42188, 5.375, 1.53125, 5.48438, 1.64062, 5.59375, 1.75, 5.70312, 1.86719, 5.8125, 1.97656, 5.92188, 2.08594, 6.03125, 2.19531, 6.14062, 2.30469, 6.25, 2.41406, 6.35938, 2.52344, 6.46875, 2.63281, 6.57812, 2.74219, 6.6875, 2.85156, 6.80469, 2.96094, 6.91406, 3.07031, 7.01562, 3.17969, 7.125, 3.28906, 7.24219, 3.39844, 7.35156, 3.50781, 7.46094, 3.61719, 7.57031, 3.72656],
  "SoftwareVersions": "syngo MR E11",
  "SpacingBetweenSlices": 2,
  "SpoilingState": true,
  "StationName": "AWP66112",
  "TotalReadoutTime": 0.0344855,
  "TxRefAmp": 231.071,
  "dcmmeta_affine": [
    [-1.9443637132644653, -0.288159042596817, -0.08096122741699219, 140.43942260742188],
    [-0.2987751066684723, 1.8545178174972534, 0.5940532684326172, -117.72016143798828],
    [0.010519023984670639, -0.5896233916282654, 1.90802001953125, -29.102109909057617],
    [0.0, 0.0, 0.0, 1.0]
],
  "dcmmeta_reorient_transform": [
    [0.0, -1.0, 0.0, 121.0],
    [1.0, 0.0, 0.0, 0.0],
    [0.0, 0.0, -1.0, 69.0],
    [0.0, 0.0, 0.0, 1.0]
],
  "dcmmeta_shape": [122, 122, 70, 31],
  "dcmmeta_slice_dim": 2,
  "dcmmeta_version": 0.6,
  "global": {
    "const": {
      "AccessionNumber": "qa",
      "AcquisitionMatrix": [122, 0, 0, 122],
      "AngioFlag": "N",
      "BitsAllocated": 16,
      "BitsStored": 12,
      "BodyPartExamined": "BRAIN",
      "Columns": 122,
      "EchoNumbers": 1,
      "EchoTime": 75.0,
      "EchoTrainLength": 61,
      "FlipAngle": 90.0,
      "HighBit": 11,
      "ImageOrientationPatient": [0.9883848849955, 0.15187734156016, 0.00534717056455, -0.1464808466998, 0.94271318878075, 0.29972521623803],
      "ImageType": [
        "ORIGINAL",
        "PRIMARY",
        "DIFFUSION",
        "NONE",
        "ND",
        "NORM"
],
      "ImagedNucleus": "1H",
      "ImagingFrequency": 123.25245,
      "InPlanePhaseEncodingDirection": "COL",
      "MRAcquisitionType": "2D",
      "MagneticFieldStrength": 3.0,
      "Manufacturer": "SIEMENS",
      "ManufacturerModelName": "Prisma",
      "Modality": "MR",
      "NumberOfAverages": 1.0,
      "NumberOfPhaseEncodingSteps": 122,
      "PercentPhaseFieldOfView": 100.0,
      "PercentSampling": 100.0,
      "PerformedProcedureStepStartTime": "091209.210000",
      "PhotometricInterpretation": "MONOCHROME2",
      "PixelBandwidth": 2050.0,
      "PixelRepresentation": 0,
      "PixelSpacing": [1.9672131538391, 1.9672131538391],
      "ProtocolName": "dwi_acq-DTI-30-p2",
      "RepetitionTime": 7700.0,
      "Rows": 122,
      "SAR": 0.08732201694578,
      "SamplesPerPixel": 1,
      "ScanOptions": "FS",
      "ScanningSequence": "EP",
      "SequenceVariant": [
        "SK",
        "SP"
],
      "SeriesDescription": "dwi_acq-DTI-30-p2",
      "SeriesNumber": 8,
      "SeriesTime": "093532.111000",
      "SliceThickness": 2.0,
      "SmallestImagePixelValue": 0,
      "SoftwareVersions": "syngo MR E11",
      "SpacingBetweenSlices": 2.0,
      "SpecificCharacterSet": "ISO_IR 100",
      "StudyID": "23",
      "StudyTime": "091209.147000",
      "TransmitCoilName": "Body",
      "VariableFlipAngleFlag": "N",
      "WindowCenterWidthExplanation": "Algo1",
      "dBdt": 0.0},
    "slices": {
      "AcquisitionTime": ["093515.065000", "093511.225000", "093515.175000", "093511.335000", "093515.285000", "093511.445000", "093515.392500", "093511.555000", "093515.502500", "093511.662500", "093515.612500", "093511.772500", "093515.722500", "093511.882500", "093515.832500", "093511.992500", "093515.942500", "093512.102500", "093516.052500", "093512.212500", "093516.162500", "093512.322500", "093516.272500", "093512.432500", "093516.380000", "093512.542500", "093516.490000", "093512.650000", "093516.600000", "093512.760000", "093516.710000", "093512.870000", "093516.820000", "093512.980000", "093516.930000", "093513.090000", "093517.040000", "093513.200000", "093517.150000", "093513.310000", "093517.260000", "093513.420000", "093517.367500", "093513.527500", "093517.477500", "093513.637500", "093517.587500", "093513.747500", "093517.697500", "093513.857500", "093517.807500", "093513.967500", "093517.917500", "093514.077500", "093518.027500", "093514.187500", "093518.137500", "093514.297500", "093518.245000", "093514.407500", "093518.355000", "093514.515000", "093518.465000", "093514.625000", "093518.575000", "093514.735000", "093518.685000", "093514.845000", "093518.795000", "093514.955000", "093522.765000", "093518.925000", "093522.875000", "093519.035000", "093522.985000", "093519.145000", "093523.092500", "093519.255000", "093523.202500", "093519.362500", "093523.312500", "093519.472500", "093523.422500", "093519.582500", "093523.532500", "093519.692500", "093523.642500", "093519.802500", "093523.752500", "093519.912500", "093523.862500", "093520.022500", "093523.972500", "093520.132500", "093524.080000", "093520.242500", "093524.190000", "093520.350000", "093524.300000", "093520.460000", "093524.410000", "093520.570000", "093524.520000", "093520.680000", "093524.630000", "093520.790000", "093524.740000", "093520.900000", "093524.850000", "093521.010000", "093524.960000", "093521.120000", "093525.067500", "093521.227500", "093525.177500", "093521.337500", "093525.287500", "093521.447500", "093525.397500", "093521.557500", "093525.507500", "093521.667500", "093525.617500", "093521.777500", "093525.727500", "093521.887500", "093525.837500", "093521.997500", "093525.945000", "093522.107500", "093526.055000", "093522.215000", "093526.165000", "093522.325000", "093526.275000", "093522.435000", "093526.385000", "093522.545000", "093526.495000", "093522.655000", "093530.465000", "093526.625000", "093530.575000", "093526.735000", "093530.685000", "093526.845000", "093530.792500", "093526.955000", "093530.902500", "093527.062500", "093531.012500", "093527.172500", "093531.122500", "093527.282500", "093531.232500", "093527.392500", "093531.342500", "093527.502500", "093531.452500", "093527.612500", "093531.562500", "093527.722500", "093531.672500", "093527.832500", "093531.780000", "093527.942500", "093531.890000", "093528.050000", "093532.000000", "093528.160000", "093532.110000", "093528.270000", "093532.220000", "093528.380000", "093532.330000", "093528.490000", "093532.440000", "093528.600000", "093532.550000", "093528.710000", "093532.660000", "093528.820000", "093532.767500", "093528.927500", "093532.877500", "093529.037500", "093532.987500", "093529.147500", "093533.097500", "093529.257500", "093533.207500", "093529.367500", "093533.317500", "093529.477500", "093533.427500", "093529.587500", "093533.537500", "093529.697500", "093533.645000", "093529.807500", "093533.755000", "093529.915000", "093533.865000", "093530.025000", "093533.975000", "093530.135000", "093534.085000", "093530.245000", "093534.195000", "093530.355000", "093538.165000", "093534.325000", "093538.275000", "093534.435000", "093538.385000", "093534.545000", "093538.492500", "093534.655000", "093538.602500", "093534.762500", "093538.712500", "093534.872500", "093538.822500", "093534.982500", "093538.932500", "093535.092500", "093539.042500", "093535.202500", "093539.152500", "093535.312500", "093539.262500", "093535.422500", "093539.372500", "093535.532500", "093539.480000", "093535.642500", "093539.590000", "093535.750000", "093539.700000", "093535.860000", "093539.810000", "093535.970000", "093539.920000", "093536.080000", "093540.030000", "093536.190000", "093540.140000", "093536.300000", "093540.250000", "093536.410000", "093540.360000", "093536.520000", "093540.467500", "093536.627500", "093540.577500", "093536.737500", "093540.687500", "093536.847500", "093540.797500", "093536.957500", "093540.907500", "093537.067500", "093541.017500", "093537.177500", "093541.127500", "093537.287500", "093541.237500", "093537.397500", "093541.345000", "093537.507500", "093541.455000", "093537.615000", "093541.565000", "093537.725000", "093541.675000", "093537.835000", "093541.785000", "093537.945000", "093541.895000", "093538.055000", "093545.865000", "093542.025000", "093545.975000", "093542.135000", "093546.085000", "093542.245000", "093546.192500", "093542.355000", "093546.302500", "093542.462500", "093546.412500", "093542.572500", "093546.522500", "093542.682500", "093546.632500", "093542.792500", "093546.742500", "093542.902500", "093546.852500", "093543.012500", "093546.962500", "093543.122500", "093547.072500", "093543.232500", "093547.180000", "093543.342500", "093547.290000", "093543.450000", "093547.400000", "093543.560000", "093547.510000", "093543.670000", "093547.620000", "093543.780000", "093547.730000", "093543.890000", "093547.840000", "093544.000000", "093547.950000", "093544.110000", "093548.060000", "093544.220000", "093548.167500", "093544.327500", "093548.277500", "093544.437500", "093548.387500", "093544.547500", "093548.497500", "093544.657500", "093548.607500", "093544.767500", "093548.717500", "093544.877500", "093548.827500", "093544.987500", "093548.937500", "093545.097500", "093549.045000", "093545.207500", "093549.155000", "093545.315000", "093549.265000", "093545.425000", "093549.375000", "093545.535000", "093549.485000", "093545.645000", "093549.595000", "093545.755000", "093553.565000", "093549.725000", "093553.675000", "093549.835000", "093553.785000", "093549.945000", "093553.892500", "093550.055000", "093554.002500", "093550.162500", "093554.112500", "093550.272500", "093554.222500", "093550.382500", "093554.332500", "093550.492500", "093554.442500", "093550.602500", "093554.552500", "093550.712500", "093554.662500", "093550.822500", "093554.772500", "093550.932500", "093554.880000", "093551.042500", "093554.990000", "093551.150000", "093555.100000", "093551.260000", "093555.210000", "093551.370000", "093555.320000", "093551.480000", "093555.430000", "093551.590000", "093555.540000", "093551.700000", "093555.650000", "093551.810000", "093555.760000", "093551.920000", "093555.867500", "093552.027500", "093555.977500", "093552.137500", "093556.087500", "093552.247500", "093556.197500", "093552.357500", "093556.307500", "093552.467500", "093556.417500", "093552.577500", "093556.527500", "093552.687500", "093556.637500", "093552.797500", "093556.745000", "093552.907500", "093556.855000", "093553.015000", "093556.965000", "093553.125000", "093557.075000", "093553.235000", "093557.185000", "093553.345000", "093557.295000", "093553.455000", "093601.265000", "093557.425000", "093601.375000", "093557.535000", "093601.485000", "093557.645000", "093601.592500", "093557.755000", "093601.702500", "093557.862500", "093601.812500", "093557.972500", "093601.922500", "093558.082500", "093602.032500", "093558.192500", "093602.142500", "093558.302500", "093602.252500", "093558.412500", "093602.362500", "093558.522500", "093602.472500", "093558.632500", "093602.580000", "093558.742500", "093602.690000", "093558.850000", "093602.800000", "093558.960000", "093602.910000", "093559.070000", "093603.020000", "093559.180000", "093603.130000", "093559.290000", "093603.240000", "093559.400000", "093603.350000", "093559.510000", "093603.460000", "093559.620000", "093603.567500", "093559.727500", "093603.677500", "093559.837500", "093603.787500", "093559.947500", "093603.897500", "093600.057500", "093604.007500", "093600.167500", "093604.117500", "093600.277500", "093604.227500", "093600.387500", "093604.337500", "093600.497500", "093604.445000", "093600.607500", "093604.555000", "093600.715000", "093604.665000", "093600.825000", "093604.775000", "093600.935000", "093604.885000", "093601.045000", "093604.995000", "093601.155000", "093608.965000", "093605.125000", "093609.075000", "093605.235000", "093609.185000", "093605.345000", "093609.292500", "093605.455000", "093609.402500", "093605.562500", "093609.512500", "093605.672500", "093609.622500", "093605.782500", "093609.732500", "093605.892500", "093609.842500", "093606.002500", "093609.952500", "093606.112500", "093610.062500", "093606.222500", "093610.172500", "093606.332500", "093610.280000", "093606.442500", "093610.390000", "093606.550000", "093610.500000", "093606.660000", "093610.610000", "093606.770000", "093610.720000", "093606.880000", "093610.830000", "093606.990000", "093610.940000", "093607.100000", "093611.050000", "093607.210000", "093611.160000", "093607.320000", "093611.267500", "093607.427500", "093611.377500", "093607.537500", "093611.487500", "093607.647500", "093611.597500", "093607.757500", "093611.707500", "093607.867500", "093611.817500", "093607.977500", "093611.927500", "093608.087500", "093612.037500", "093608.197500", "093612.145000", "093608.307500", "093612.255000", "093608.415000", "093612.365000", "093608.525000", "093612.475000", "093608.635000", "093612.585000", "093608.745000", "093612.695000", "093608.855000", "093616.665000", "093612.825000", "093616.775000", "093612.935000", "093616.885000", "093613.045000", "093616.992500", "093613.155000", "093617.102500", "093613.262500", "093617.212500", "093613.372500", "093617.322500", "093613.482500", "093617.432500", "093613.592500", "093617.542500", "093613.702500", "093617.652500", "093613.812500", "093617.762500", "093613.922500", "093617.872500", "093614.032500", "093617.980000", "093614.142500", "093618.090000", "093614.250000", "093618.200000", "093614.360000", "093618.310000", "093614.470000", "093618.420000", "093614.580000", "093618.530000", "093614.690000", "093618.640000", "093614.800000", "093618.750000", "093614.910000", "093618.860000", "093615.020000", "093618.967500", "093615.127500", "093619.077500", "093615.237500", "093619.187500", "093615.347500", "093619.297500", "093615.457500", "093619.407500", "093615.567500", "093619.517500", "093615.677500", "093619.627500", "093615.787500", "093619.737500", "093615.897500", "093619.845000", "093616.007500", "093619.955000", "093616.115000", "093620.065000", "093616.225000", "093620.175000", "093616.335000", "093620.285000", "093616.445000", "093620.395000", "093616.555000", "093624.365000", "093620.525000", "093624.475000", "093620.635000", "093624.585000", "093620.745000", "093624.692500", "093620.855000", "093624.802500", "093620.962500", "093624.912500", "093621.072500", "093625.022500", "093621.182500", "093625.132500", "093621.292500", "093625.242500", "093621.402500", "093625.352500", "093621.512500", "093625.462500", "093621.622500", "093625.572500", "093621.732500", "093625.680000", "093621.842500", "093625.790000", "093621.950000", "093625.900000", "093622.060000", "093626.010000", "093622.170000", "093626.120000", "093622.280000", "093626.230000", "093622.390000", "093626.340000", "093622.500000", "093626.450000", "093622.610000", "093626.560000", "093622.720000", "093626.667500", "093622.827500", "093626.777500", "093622.937500", "093626.887500", "093623.047500", "093626.997500", "093623.157500", "093627.107500", "093623.267500", "093627.217500", "093623.377500", "093627.327500", "093623.487500", "093627.437500", "093623.597500", "093627.545000", "093623.707500", "093627.655000", "093623.815000", "093627.765000", "093623.925000", "093627.875000", "093624.035000", "093627.985000", "093624.145000", "093628.095000", "093624.255000", "093632.065000", "093628.225000", "093632.175000", "093628.335000", "093632.285000", "093628.445000", "093632.392500", "093628.555000", "093632.502500", "093628.662500", "093632.612500", "093628.772500", "093632.722500", "093628.882500", "093632.832500", "093628.992500", "093632.942500", "093629.102500", "093633.052500", "093629.212500", "093633.162500", "093629.322500", "093633.272500", "093629.432500", "093633.380000", "093629.542500", "093633.490000", "093629.650000", "093633.600000", "093629.760000", "093633.710000", "093629.870000", "093633.820000", "093629.980000", "093633.930000", "093630.090000", "093634.040000", "093630.200000", "093634.150000", "093630.310000", "093634.260000", "093630.420000", "093634.367500", "093630.527500", "093634.477500", "093630.637500", "093634.587500", "093630.747500", "093634.697500", "093630.857500", "093634.807500", "093630.967500", "093634.917500", "093631.077500", "093635.027500", "093631.187500", "093635.137500", "093631.297500", "093635.245000", "093631.407500", "093635.355000", "093631.515000", "093635.465000", "093631.625000", "093635.575000", "093631.735000", "093635.685000", "093631.845000", "093635.795000", "093631.955000", "093639.765000", "093635.925000", "093639.875000", "093636.035000", "093639.985000", "093636.145000", "093640.092500", "093636.255000", "093640.202500", "093636.362500", "093640.312500", "093636.472500", "093640.422500", "093636.582500", "093640.532500", "093636.692500", "093640.642500", "093636.802500", "093640.752500", "093636.912500", "093640.862500", "093637.022500", "093640.972500", "093637.132500", "093641.080000", "093637.242500", "093641.190000", "093637.350000", "093641.300000", "093637.460000", "093641.410000", "093637.570000", "093641.520000", "093637.680000", "093641.630000", "093637.790000", "093641.740000", "093637.900000", "093641.850000", "093638.010000", "093641.960000", "093638.120000", "093642.067500", "093638.227500", "093642.177500", "093638.337500", "093642.287500", "093638.447500", "093642.397500", "093638.557500", "093642.507500", "093638.667500", "093642.617500", "093638.777500", "093642.727500", "093638.887500", "093642.837500", "093638.997500", "093642.945000", "093639.107500", "093643.055000", "093639.215000", "093643.165000", "093639.325000", "093643.275000", "093639.435000", "093643.385000", "093639.545000", "093643.495000", "093639.655000", "093647.465000", "093643.625000", "093647.575000", "093643.735000", "093647.685000", "093643.845000", "093647.792500", "093643.955000", "093647.902500", "093644.062500", "093648.012500", "093644.172500", "093648.122500", "093644.282500", "093648.232500", "093644.392500", "093648.342500", "093644.502500", "093648.452500", "093644.612500", "093648.562500", "093644.722500", "093648.672500", "093644.832500", "093648.780000", "093644.942500", "093648.890000", "093645.050000", "093649.000000", "093645.160000", "093649.110000", "093645.270000", "093649.220000", "093645.380000", "093649.330000", "093645.490000", "093649.440000", "093645.600000", "093649.550000", "093645.710000", "093649.660000", "093645.820000", "093649.767500", "093645.927500", "093649.877500", "093646.037500", "093649.987500", "093646.147500", "093650.097500", "093646.257500", "093650.207500", "093646.367500", "093650.317500", "093646.477500", "093650.427500", "093646.587500", "093650.537500", "093646.697500", "093650.645000", "093646.807500", "093650.755000", "093646.915000", "093650.865000", "093647.025000", "093650.975000", "093647.135000", "093651.085000", "093647.245000", "093651.195000", "093647.355000", "093655.165000", "093651.325000", "093655.275000", "093651.435000", "093655.385000", "093651.545000", "093655.492500", "093651.655000", "093655.602500", "093651.762500", "093655.712500", "093651.872500", "093655.822500", "093651.982500", "093655.932500", "093652.092500", "093656.042500", "093652.202500", "093656.152500", "093652.312500", "093656.262500", "093652.422500", "093656.372500", "093652.532500", "093656.480000", "093652.642500", "093656.590000", "093652.750000", "093656.700000", "093652.860000", "093656.810000", "093652.970000", "093656.920000", "093653.080000", "093657.030000", "093653.190000", "093657.140000", "093653.300000", "093657.250000", "093653.410000", "093657.360000", "093653.520000", "093657.467500", "093653.627500", "093657.577500", "093653.737500", "093657.687500", "093653.847500", "093657.797500", "093653.957500", "093657.907500", "093654.067500", "093658.017500", "093654.177500", "093658.127500", "093654.287500", "093658.237500", "093654.397500", "093658.345000", "093654.507500", "093658.455000", "093654.615000", "093658.565000", "093654.725000", "093658.675000", "093654.835000", "093658.785000", "093654.945000", "093658.895000", "093655.055000", "093702.865000", "093659.025000", "093702.975000", "093659.135000", "093703.085000", "093659.245000", "093703.192500", "093659.355000", "093703.302500", "093659.462500", "093703.412500", "093659.572500", "093703.522500", "093659.682500", "093703.632500", "093659.792500", "093703.742500", "093659.902500", "093703.852500", "093700.012500", "093703.962500", "093700.122500", "093704.072500", "093700.232500", "093704.180000", "093700.342500", "093704.290000", "093700.450000", "093704.400000", "093700.560000", "093704.510000", "093700.670000", "093704.620000", "093700.780000", "093704.730000", "093700.890000", "093704.840000", "093701.000000", "093704.950000", "093701.110000", "093705.060000", "093701.220000", "093705.167500", "093701.327500", "093705.277500", "093701.437500", "093705.387500", "093701.547500", "093705.497500", "093701.657500", "093705.607500", "093701.767500", "093705.717500", "093701.877500", "093705.827500", "093701.987500", "093705.937500", "093702.097500", "093706.045000", "093702.207500", "093706.155000", "093702.315000", "093706.265000", "093702.425000", "093706.375000", "093702.535000", "093706.485000", "093702.645000", "093706.595000", "093702.755000", "093710.565000", "093706.725000", "093710.675000", "093706.835000", "093710.785000", "093706.945000", "093710.892500", "093707.055000", "093711.002500", "093707.162500", "093711.112500", "093707.272500", "093711.222500", "093707.382500", "093711.332500", "093707.492500", "093711.442500", "093707.602500", "093711.552500", "093707.712500", "093711.662500", "093707.822500", "093711.772500", "093707.932500", "093711.880000", "093708.042500", "093711.990000", "093708.150000", "093712.100000", "093708.260000", "093712.210000", "093708.370000", "093712.320000", "093708.480000", "093712.430000", "093708.590000", "093712.540000", "093708.700000", "093712.650000", "093708.810000", "093712.760000", "093708.920000", "093712.867500", "093709.027500", "093712.977500", "093709.137500", "093713.087500", "093709.247500", "093713.197500", "093709.357500", "093713.307500", "093709.467500", "093713.417500", "093709.577500", "093713.527500", "093709.687500", "093713.637500", "093709.797500", "093713.745000", "093709.907500", "093713.855000", "093710.015000", "093713.965000", "093710.125000", "093714.075000", "093710.235000", "093714.185000", "093710.345000", "093714.295000", "093710.455000", "093718.265000", "093714.425000", "093718.375000", "093714.535000", "093718.485000", "093714.645000", "093718.592500", "093714.755000", "093718.702500", "093714.862500", "093718.812500", "093714.972500", "093718.922500", "093715.082500", "093719.032500", "093715.192500", "093719.142500", "093715.302500", "093719.252500", "093715.412500", "093719.362500", "093715.522500", "093719.472500", "093715.632500", "093719.580000", "093715.742500", "093719.690000", "093715.850000", "093719.800000", "093715.960000", "093719.910000", "093716.070000", "093720.020000", "093716.180000", "093720.130000", "093716.290000", "093720.240000", "093716.400000", "093720.350000", "093716.510000", "093720.460000", "093716.620000", "093720.567500", "093716.727500", "093720.677500", "093716.837500", "093720.787500", "093716.947500", "093720.897500", "093717.057500", "093721.007500", "093717.167500", "093721.117500", "093717.277500", "093721.227500", "093717.387500", "093721.337500", "093717.497500", "093721.445000", "093717.607500", "093721.555000", "093717.715000", "093721.665000", "093717.825000", "093721.775000", "093717.935000", "093721.885000", "093718.045000", "093721.995000", "093718.155000", "093725.965000", "093722.125000", "093726.075000", "093722.235000", "093726.185000", "093722.345000", "093726.292500", "093722.455000", "093726.402500", "093722.562500", "093726.512500", "093722.672500", "093726.622500", "093722.782500", "093726.732500", "093722.892500", "093726.842500", "093723.002500", "093726.952500", "093723.112500", "093727.062500", "093723.222500", "093727.172500", "093723.332500", "093727.280000", "093723.442500", "093727.390000", "093723.550000", "093727.500000", "093723.660000", "093727.610000", "093723.770000", "093727.720000", "093723.880000", "093727.830000", "093723.990000", "093727.940000", "093724.100000", "093728.050000", "093724.210000", "093728.160000", "093724.320000", "093728.267500", "093724.427500", "093728.377500", "093724.537500", "093728.487500", "093724.647500", "093728.597500", "093724.757500", "093728.707500", "093724.867500", "093728.817500", "093724.977500", "093728.927500", "093725.087500", "093729.037500", "093725.197500", "093729.145000", "093725.307500", "093729.255000", "093725.415000", "093729.365000", "093725.525000", "093729.475000", "093725.635000", "093729.585000", "093725.745000", "093729.695000", "093725.855000", "093733.665000", "093729.825000", "093733.775000", "093729.935000", "093733.885000", "093730.045000", "093733.992500", "093730.155000", "093734.102500", "093730.262500", "093734.212500", "093730.372500", "093734.322500", "093730.482500", "093734.432500", "093730.592500", "093734.542500", "093730.702500", "093734.652500", "093730.812500", "093734.762500", "093730.922500", "093734.872500", "093731.032500", "093734.980000", "093731.142500", "093735.090000", "093731.250000", "093735.200000", "093731.360000", "093735.310000", "093731.470000", "093735.420000", "093731.580000", "093735.530000", "093731.690000", "093735.640000", "093731.800000", "093735.750000", "093731.910000", "093735.860000", "093732.020000", "093735.967500", "093732.127500", "093736.077500", "093732.237500", "093736.187500", "093732.347500", "093736.297500", "093732.457500", "093736.407500", "093732.567500", "093736.517500", "093732.677500", "093736.627500", "093732.787500", "093736.737500", "093732.897500", "093736.845000", "093733.007500", "093736.955000", "093733.115000", "093737.065000", "093733.225000", "093737.175000", "093733.335000", "093737.285000", "093733.445000", "093737.395000", "093733.555000", "093741.365000", "093737.525000", "093741.475000", "093737.635000", "093741.585000", "093737.745000", "093741.692500", "093737.855000", "093741.802500", "093737.962500", "093741.912500", "093738.072500", "093742.022500", "093738.182500", "093742.132500", "093738.292500", "093742.242500", "093738.402500", "093742.352500", "093738.512500", "093742.462500", "093738.622500", "093742.572500", "093738.732500", "093742.680000", "093738.842500", "093742.790000", "093738.950000", "093742.900000", "093739.060000", "093743.010000", "093739.170000", "093743.120000", "093739.280000", "093743.230000", "093739.390000", "093743.340000", "093739.500000", "093743.450000", "093739.610000", "093743.560000", "093739.720000", "093743.667500", "093739.827500", "093743.777500", "093739.937500", "093743.887500", "093740.047500", "093743.997500", "093740.157500", "093744.107500", "093740.267500", "093744.217500", "093740.377500", "093744.327500", "093740.487500", "093744.437500", "093740.597500", "093744.545000", "093740.707500", "093744.655000", "093740.815000", "093744.765000", "093740.925000", "093744.875000", "093741.035000", "093744.985000", "093741.145000", "093745.095000", "093741.255000", "093749.065000", "093745.225000", "093749.175000", "093745.335000", "093749.285000", "093745.445000", "093749.392500", "093745.555000", "093749.502500", "093745.662500", "093749.612500", "093745.772500", "093749.722500", "093745.882500", "093749.832500", "093745.992500", "093749.942500", "093746.102500", "093750.052500", "093746.212500", "093750.162500", "093746.322500", "093750.272500", "093746.432500", "093750.380000", "093746.542500", "093750.490000", "093746.650000", "093750.600000", "093746.760000", "093750.710000", "093746.870000", "093750.820000", "093746.980000", "093750.930000", "09