{
  "AcquisitionMatrixPE": 80,
  "AcquisitionNumber": 1,
  "AcquisitionTime": "10:09:59.522500",
  "BandwidthPerPixelPhaseEncode": 25,
  "BaseResolution": 80,
  "BodyPartExamined": "BRAIN",
  "CoilCombinationMethod": "Sum of Squares",
  "ConsistencyInfo": "N4_VE11C_LATEST_20160120",
  "ConversionSoftware": "dcm2niix",
  "ConversionSoftwareVersion": "v1.0.20220720",
  "DerivedVendorReportedEchoSpacing": 0.0005,
  "DeviceSerialNumber": "66112",
  "DwellTime": 2.7e-06,
  "EchoTime": 0.03,
  "EchoTrainLength": 80,
  "EffectiveEchoSpacing": 0.0005,
  "FlipAngle": 10,
  "HeudiconvVersion": "0.13.1",
  "ImageOrientationPatientDICOM": [0.984718, 0.173878, 0.00989372, -0.168498, 0.936803, 0.30661],
  "ImageOrientationText": "Tra>Cor(17.7)>Sag(-2.5)",
  "ImageType": [
    "ORIGINAL",
    "PRIMARY",
    "M",
    "ND",
    "NORM",
    "MOSAIC"
],
  "ImagingFrequency": 123.252,
  "InPlanePhaseEncodingDirectionDICOM": "COL",
  "InstitutionAddress": "Maynard 3,Hanover,NH,US,03755",
  "InstitutionName": "Dartmouth College - PBS",
  "InstitutionalDepartmentName": "Department",
  "MRAcquisitionType": "2D",
  "MagneticFieldStrength": 3,
  "Manufacturer": "Siemens",
  "ManufacturersModelName": "Prisma",
  "MatrixCoilMode": "SENSE",
  "Modality": "MR",
  "NonlinearGradientCorrection": false,
  "PartialFourier": 1,
  "PatientPosition": "HFS",
  "PercentPhaseFOV": 100,
  "PercentSampling": 100,
  "PhaseEncodingDirection": "j-",
  "PhaseEncodingSteps": 80,
  "PhaseResolution": 1,
  "PixelBandwidth": 2315,
  "ProcedureStepDescription": "dbic^QA",
  "ProtocolName": "func-bold_fa-10",
  "PulseSequenceDetails": "%SiemensSeq%\\ep2d_bold",
  "ReceiveCoilActiveElements": "HEA;HEP",
  "ReceiveCoilName": "Head_32",
  "ReconMatrixPE": 80,
  "RepetitionTime": 2,
  "SAR": 0.0117395,
  "ScanOptions": "FS",
  "ScanningSequence": "EP",
  "SequenceName": "*epfid2d1_80",
  "SequenceVariant": "SK",
  "SeriesDescription": "func-bold_fa-10",
  "SeriesNumber": 10,
  "ShimSetting": [4147, -7715, -7512, 257, -68, -117, 4, 57],
  "SliceThickness": 3.5,
  "SliceTiming": [0.99, 0, 1.055, 0.065, 1.1225, 0.1325, 1.1875, 0.1975, 1.2525, 0.2625, 1.32, 0.33, 1.385, 0.395, 1.45, 0.4625, 1.5175, 0.5275, 1.5825, 0.5925, 1.65, 0.66, 1.715, 0.725, 1.78, 0.7925, 1.8475, 0.8575, 1.9125, 0.9225],
  "SoftwareVersions": "syngo MR E11",
  "SpacingBetweenSlices": 3.99,
  "StationName": "AWP66112",
  "TotalReadoutTime": 0.0395,
  "TxRefAmp": 224.186,
  "dcmmeta_affine": [
    [-2.9541525840759277, -0.5054934024810791, -0.17573624849319458, 141.69532775878906],
    [-0.5216335654258728, 2.8104076385498047, 1.2113280296325684, -93.6727523803711],
    [0.029681149870157242, -0.9198290109634399, 3.7976179122924805, -19.369251251220703],
    [0.0, 0.0, 0.0, 1.0]
],
  "dcmmeta_reorient_transform": [
    [0.0, -1.0, 0.0, 79.0],
    [1.0, 0.0, 0.0, 0.0],
    [0.0, 0.0, 1.0, 0.0],
    [0.0, 0.0, 0.0, 1.0]
],
  "dcmmeta_shape": [80, 80, 30, 200],
  "dcmmeta_slice_dim": 2,
  "dcmmeta_version": 0.6,
  "global": {
    "const": {
      "AccessionNumber": "qa",
      "AcquisitionMatrix": [80, 0, 0, 80],
      "AngioFlag": "N",
      "BitsAllocated": 16,
      "BitsStored": 12,
      "BodyPartExamined": "BRAIN",
      "Columns": 480,
      "EchoNumbers": 1,
      "EchoTime": 30.0,
      "EchoTrainLength": 80,
      "FlipAngle": 10.0,
      "HighBit": 11,
      "ImageOrientationPatient": [0.98471752511168, 0.17387785974071, 0.00989371668895, -0.1684977936297, 0.93680254269831, 0.30660966967122],
      "ImagePositionPatient": [-591.49319575696, -794.75769266213, -281.93777417786],
      "ImageType": [
        "ORIGINAL",
        "PRIMARY",
        "M",
        "ND",
        "NORM",
        "MOSAIC"
],
      "ImagedNucleus": "1H",
      "ImagingFrequency": 123.252346,
      "InPlanePhaseEncodingDirection": "COL",
      "MRAcquisitionType": "2D",
      "MagneticFieldStrength": 3.0,
      "Manufacturer": "SIEMENS",
      "ManufacturerModelName": "Prisma",
      "Modality": "MR",
      "NumberOfAverages": 1.0,
      "NumberOfPhaseEncodingSteps": 80,
      "PercentPhaseFieldOfView": 100.0,
      "PercentSampling": 100.0,
      "PerformedProcedureStepStartTime": "094613.221000",
      "PhotometricInterpretation": "MONOCHROME2",
      "PixelBandwidth": 2315.0,
      "PixelRepresentation": 0,
      "PixelSpacing": [3.0, 3.0],
      "ProtocolName": "func-bold_fa-10",
      "RepetitionTime": 2000.0,
      "Rows": 480,
      "SAR": 0.01173946191609,
      "SamplesPerPixel": 1,
      "ScanOptions": "FS",
      "ScanningSequence": "EP",
      "SequenceName": "*epfid2d1_80",
      "SequenceVariant": "SK",
      "SeriesDescription": "func-bold_fa-10",
      "SeriesNumber": 10,
      "SeriesTime": "101042.385000",
      "SliceLocation": -53.114398052025,
      "SliceThickness": 3.5,
      "SmallestImagePixelValue": 0,
      "SoftwareVersions": "syngo MR E11",
      "SpacingBetweenSlices": 3.9899999845057,
      "SpecificCharacterSet": "ISO_IR 100",
      "StudyID": "61",
      "StudyTime": "094613.188000",
      "TransmitCoilName": "Body",
      "VariableFlipAngleFlag": "N",
      "WindowCenterWidthExplanation": "Algo1",
      "dBdt": 0.0},
    "slices": {}
  },
  "time": {
    "samples": {
      "AcquisitionNumber": [1, 2, 3, 4, 5, 6, 7, 8, 9, 10, 11, 12, 13, 14, 15, 16, 17, 18, 19, 20, 21, 22, 23, 24, 25, 26, 27, 28, 29, 30, 31, 32, 33, 34, 35, 36, 37, 38, 39, 40, 41, 42, 43, 44, 45, 46, 47, 48, 49, 50, 51, 52, 53, 54, 55, 56, 57, 58, 59, 60, 61, 62, 63, 64, 65, 66, 67, 68, 69, 70, 71, 72, 73, 74, 75, 76, 77, 78, 79, 80, 81, 82, 83, 84, 85, 86, 87, 88, 89, 90, 91, 92, 93, 94, 95, 96, 97, 98, 99, 100, 101, 102, 103, 104, 105, 106, 107, 108, 109, 110, 111, 112, 113, 114, 115, 116, 117, 118, 119, 120, 121, 122, 123, 124, 125, 126, 127, 128, 129, 130, 131, 132, 133, 134, 135, 136, 137, 138, 139, 140, 141, 142, 143, 144, 145, 146, 147, 148, 149, 150, 151, 152, 153, 154, 155, 156, 157, 158, 159, 160, 161, 162, 163, 164, 165, 166, 167, 168, 169, 170, 171, 172, 173, 174, 175, 176, 177, 178, 179, 180, 181, 182, 183, 184, 185, 186, 187, 188, 189, 190, 191, 192, 193, 194, 195, 196, 197, 198, 199, 200],
      "AcquisitionTime": ["100959.522500", "101001.522500", "101003.522500", "101005.522500", "101007.522500", "101009.522500", "101011.522500", "101013.522500", "101015.522500", "101017.522500", "101019.522500", "101021.522500", "101023.522500", "101025.522500", "101027.522500", "101029.522500", "101031.522500", "101033.522500", "101035.522500", "101037.522500", "101039.522500", "101041.522500", "101043.522500", "101045.522500", "101047.522500", "101049.522500", "101051.522500", "101053.522500", "101055.522500", "101057.522500", "101059.522500", "101101.522500", "101103.522500", "101105.522500", "101107.522500", "101109.522500", "101111.522500", "101113.522500", "101115.522500", "101117.522500", "101119.522500", "101121.522500", "101123.522500", "101125.522500", "101127.522500", "101129.522500", "101131.522500", "101133.522500", "101135.522500", "101137.522500", "101139.522500", "101141.522500", "101143.522500", "101145.522500", "101147.522500", "101149.522500", "101151.522500", "101153.522500", "101155.522500", "101157.522500", "101159.522500", "101201.522500", "101203.522500", "101205.522500", "101207.522500", "101209.522500", "101211.522500", "101213.522500", "101215.522500", "101217.522500", "101219.522500", "101221.522500", "101223.522500", "101225.522500", "101227.522500", "101229.522500", "101231.522500", "101233.522500", "101235.522500", "101237.522500", "101239.522500", "101241.522500", "101243.522500", "101245.522500", "101247.522500", "101249.522500", "101251.522500", "101253.522500", "101255.522500", "101257.522500", "101259.522500", "101301.522500", "101303.522500", "101305.522500", "101307.522500", "101309.522500", "101311.522500", "101313.522500", "101315.522500", "101317.522500", "101319.522500", "101321.522500", "101323.522500", "101325.522500", "101327.522500", "101329.522500", "101331.522500", "101333.522500", "101335.522500", "101337.522500", "101339.522500", "101341.522500", "101343.522500", "101345.522500", "101347.522500", "101349.522500", "101351.522500", "101353.522500", "101355.522500", "101357.522500", "101359.522500", "101401.522500", "101403.522500", "101405.522500", "101407.522500", "101409.522500", "101411.522500", "101413.522500", "101415.522500", "101417.522500", "101419.522500", "101421.522500", "101423.522500", "101425.522500", "101427.522500", "101429.522500", "101431.522500", "101433.522500", "101435.522500", "101437.522500", "101439.522500", "101441.522500", "101443.522500", "101445.522500", "101447.522500", "101449.522500", "101451.522500", "101453.522500", "101455.522500", "101457.522500", "101459.522500", "101501.522500", "101503.522500", "101505.522500", "101507.522500", "101509.522500", "101511.522500", "101513.522500", "101515.522500", "101517.522500", "101519.522500", "101521.522500", "101523.522500", "101525.522500", "101527.522500", "101529.522500", "101531.522500", "101533.522500", "101535.522500", "101537.522500", "101539.522500", "101541.522500", "101543.522500", "101545.522500", "101547.522500", "101549.522500", "101551.522500", "101553.522500", "101555.522500", "101557.522500", "101559.522500", "101601.522500", "101603.522500", "101605.522500", "101607.522500", "101609.522500", "101611.522500", "101613.522500", "101615.522500", "101617.522500", "101619.522500", "101621.522500", "101623.522500", "101625.522500", "101627.522500", "101629.522500", "101631.522500", "101633.522500", "101635.522500", "101637.522500"],
      "ContentTime": ["101042.388000", "101042.392000", "101042.394000", "101042.397000", "101042.399000", "101042.402000", "101042.404000", "101042.407000", "101042.409000", "101042.412000", "101042.414000", "101042.417000", "101042.420000", "101042.422000", "101042.425000", "101042.427000", "101042.430000", "101042.432000", "101042.435000", "101042.442000", "101042.444000", "101122.385000", "101122.387000", "101122.390000", "101122.393000", "101122.395000", "101122.398000", "101122.400000", "101122.403000", "101122.405000", "101122.408000", "101122.410000", "101122.413000", "101122.415000", "101122.418000", "101122.420000", "101122.423000", "101122.426000", "101122.428000", "101122.431000", "101122.433000", "101202.384000", "101202.387000", "101202.390000", "101202.392000", "101202.395000", "101202.397000", "101202.400000", "101202.407000", "101202.410000", "101202.412000", "101202.415000", "101202.417000", "101202.420000", "101202.422000", "101202.425000", "101202.428000", "101202.430000", "101202.433000", "101202.435000", "101202.438000", "101242.383000", "101242.386000", "101242.389000", "101242.391000", "101242.394000", "101242.396000", "101242.399000", "101242.402000", "101242.404000", "101242.407000", "101242.409000", "101242.412000", "101242.414000", "101242.417000", "101242.419000", "101242.422000", "101242.424000", "101242.427000", "101242.430000", "101242.432000", "101322.383000", "101322.386000", "101322.389000", "101322.391000", "101322.394000", "101322.397000", "101322.399000", "101322.402000", "101322.404000", "101322.407000", "101322.409000", "101322.412000", "101322.414000", "101322.417000", "101322.419000", "101322.422000", "101322.425000", "101322.427000", "101322.430000", "101322.432000", "101402.384000", "101402.387000", "101402.390000", "101402.392000", "101402.395000", "101402.398000", "101402.400000", "101402.403000", "101402.405000", "101402.408000", "101402.410000", "101402.413000", "101402.416000", "101402.418000", "101402.421000", "101402.424000", "101402.426000", "101402.429000", "101402.431000", "101402.434000", "101442.383000", "101442.386000", "101442.389000", "101442.392000", "101442.394000", "101442.397000", "101442.399000", "101442.402000", "101442.405000", "101442.407000", "101442.410000", "101442.412000", "101442.415000", "101442.418000", "101442.420000", "101442.423000", "101442.432000", "101442.434000", "101442.437000", "101442.439000", "101522.383000", "101522.386000", "101522.389000", "101522.391000", "101522.394000", "101522.397000", "101522.399000", "101522.402000", "101522.404000", "101522.407000", "101522.409000", "101522.412000", "101522.415000", "101522.417000", "101522.420000", "101522.422000", "101522.425000", "101522.427000", "101522.430000", "101522.432000", "101602.384000", "101602.387000", "101602.390000", "101602.393000", "101602.396000", "101602.398000", "101602.401000", "101602.404000", "101602.406000", "101602.409000", "101602.411000", "101602.414000", "101602.424000", "101602.427000", "101602.430000", "101602.432000", "101602.435000", "101602.437000", "101602.440000", "101602.442000", "101638.584000", "101638.587000", "101638.589000", "101638.592000", "101638.595000", "101638.597000", "101638.600000", "101638.602000", "101638.605000", "101638.607000", "101638.610000", "101638.613000", "101638.627000", "101638.636000", "101638.643000", "101638.647000", "101638.650000", "101638.654000", "101638.657000"],
      "InstanceCreationTime": ["101042.388000", "101042.392000", "101042.394000", "101042.397000", "101042.399000", "101042.402000", "101042.404000", "101042.407000", "101042.409000", "101042.412000", "101042.414000", "101042.417000", "101042.420000", "101042.422000", "101042.425000", "101042.427000", "101042.430000", "101042.432000", "101042.435000", "101042.442000", "101042.444000", "101122.385000", "101122.387000", "101122.390000", "101122.393000", "101122.395000", "101122.398000", "101122.400000", "101122.403000", "101122.405000", "101122.408000", "101122.410000", "101122.413000", "101122.415000", "101122.418000", "101122.420000", "101122.423000", "101122.426000", "101122.428000", "101122.431000", "101122.433000", "101202.384000", "101202.387000", "101202.390000", "101202.392000", "101202.395000", "101202.397000", "101202.400000", "101202.407000", "101202.410000", "101202.412000", "101202.415000", "101202.417000", "101202.420000", "101202.422000", "101202.425000", "101202.428000", "101202.430000", "101202.433000", "101202.435000", "101202.438000", "101242.383000", "101242.386000", "101242.389000", "101242.391000", "101242.394000", "101242.396000", "101242.399000", "101242.402000", "101242.404000", "101242.407000", "101242.409000", "101242.412000", "101242.414000", "101242.417000", "101242.419000", "101242.422000", "101242.424000", "101242.427000", "101242.430000", "101242.432000", "101322.383000", "101322.386000", "101322.389000", "101322.391000", "101322.394000", "101322.397000", "101322.399000", "101322.402000", "101322.404000", "101322.407000", "101322.409000", "101322.412000", "101322.414000", "101322.417000", "101322.419000", "101322.422000", "101322.425000", "101322.427000", "101322.430000", "101322.432000", "101402.384000", "101402.387000", "101402.390000", "101402.392000", "101402.395000", "101402.398000", "101402.400000", "101402.403000", "101402.405000", "101402.408000", "101402.410000", "101402.413000", "101402.416000", "101402.418000", "101402.421000", "101402.424000", "101402.426000", "101402.429000", "101402.431000", "101402.434000", "101442.383000", "101442.386000", "101442.389000", "101442.392000", "101442.394000", "101442.397000", "101442.399000", "101442.402000", "101442.405000", "101442.407000", "101442.410000", "101442.412000", "101442.415000", "101442.418000", "101442.420000", "101442.423000", "101442.432000", "101442.434000", "101442.437000", "101442.439000", "101522.383000", "101522.386000", "101522.389000", "101522.391000", "101522.394000", "101522.397000", "101522.399000", "101522.402000", "101522.404000", "101522.407000", "101522.409000", "101522.412000", "101522.415000", "101522.417000", "101522.420000", "101522.422000", "101522.425000", "101522.427000", "101522.430000", "101522.432000", "101602.384000", "101602.387000", "101602.390000", "101602.393000", "101602.396000", "101602.398000", "101602.401000", "101602.404000", "101602.406000", "101602.409000", "101602.411000", "101602.414000", "101602.424000", "101602.427000", "101602.430000", "101602.432000", "101602.435000", "101602.437000", "101602.440000", "101602.442000", "101638.584000", "101638.587000", "101638.589000", "101638.592000", "101638.595000", "101638.597000", "101638.600000", "101638.602000", "101638.605000", "101638.607000", "101638.610000", "101638.613000", "101638.627000", "101638.636000", "101638.643000", "101638.647000", "101638.650000", "101638.654000", "101638.657000"],
      "InstanceNumber": [1, 2, 3, 4, 5, 6, 7, 8, 9, 10, 11, 12, 13, 14, 15, 16, 17, 18, 19, 20, 21, 22, 23, 24, 25, 26, 27, 28, 29, 30, 31, 32, 33, 34, 35, 36, 37, 38, 39, 40, 41, 42, 43, 44, 45, 46, 47, 48, 49, 50, 51, 52, 53, 54, 55, 56, 57, 58, 59, 60, 61, 62, 63, 64, 65, 66, 67, 68, 69, 70, 71, 72, 73, 74, 75, 76, 77, 78, 79, 80, 81, 82, 83, 84, 85, 86, 87, 88, 89, 90, 91, 92, 93, 94, 95, 96, 97, 98, 99, 100, 101, 102, 103, 104, 105, 106, 107, 108, 109, 110, 111, 112, 113, 114, 115, 116, 117, 118, 119, 120, 121, 122, 123, 124, 125, 126, 127, 128, 129, 130, 131, 132, 133, 134, 135, 136, 137, 138, 139, 140, 141, 142, 143, 144, 145, 146, 147, 148, 149, 150, 151, 152, 153, 154, 155, 156, 157, 158, 159, 160, 161, 162, 163, 164, 165, 166, 167, 168, 169, 170, 171, 172, 173, 174, 175, 176, 177, 178, 179, 180, 181, 182, 183, 184, 185, 186, 187, 188, 189, 190, 191, 192, 193, 194, 195, 196, 197, 198, 199, 200],
      "LargestImagePixelValue": [339, 338, 338, 338, 338, 339, 339, 341, 339, 338, 339, 340, 339, 339, 338, 337, 339, 339, 338, 338, 339, 340, 338, 340, 338, 340, 339, 339, 340, 338, 339, 339, 338, 338, 339, 338, 338, 338, 339, 339, 338, 338, 339, 339, 337, 341, 340, 338, 339, 340, 341, 338, 337, 338, 339, 339, 340, 339, 341, 339, 339, 338, 339, 340, 340, 341, 339, 338, 339, 339, 338, 337, 340, 338, 339, 338, 339, 339, 338, 338, 338, 339, 338, 339, 339, 339, 338, 338, 339, 338, 339, 338, 337, 339, 338, 339, 338, 339, 338, 339, 338, 338, 339, 339, 339, 339, 339, 338, 339, 339, 337, 338, 339, 338, 339, 339, 339, 339, 340, 339, 338, 339, 339, 339, 339, 341, 339, 339, 339, 338, 339, 340, 340, 339, 337, 340, 339, 338, 340, 339, 338, 338, 340, 340, 338, 339, 338, 338, 340, 339, 340, 338, 339, 338, 339, 339, 340, 339, 338, 338, 339, 340, 340, 340, 340, 339, 339, 337, 337, 339, 338, 338, 339, 339, 339, 340, 339, 338, 339, 339, 339, 340, 339, 339, 339, 338, 339, 340, 338, 339, 338, 340, 338, 339, 339, 339, 339, 339, 341, 339],
      "WindowCenter": [274.0, 274.0, 274.0, 274.0, 274.0, 274.0, 274.0, 274.0, 274.0, 274.0, 274.0, 274.0, 274.0, 274.0, 274.0, 274.0, 274.0, 274.0, 274.0, 274.0, 274.0, 274.0, 274.0, 274.0, 274.0, 274.0, 274.0, 274.0, 274.0, 274.0, 274.0, 274.0, 274.0, 274.0, 274.0, 274.0, 274.0, 274.0, 274.0, 274.0, 274.0, 274.0, 274.0, 274.0, 274.0, 274.0, 274.0, 274.0, 274.0, 274.0, 274.0, 274.0, 274.0, 274.0, 274.0, 274.0, 273.0, 274.0, 274.0, 274.0, 274.0, 274.0, 274.0, 274.0, 274.0, 274.0, 274.0, 274.0, 274.0, 274.0, 274.0, 274.0, 274.0, 274.0, 274.0, 274.0, 274.0, 273.0, 274.0, 274.0, 274.0, 273.0, 274.0, 274.0, 274.0, 274.0, 274.0, 274.0, 274.0, 274.0, 274.0, 273.0, 274.0, 273.0, 274.0, 273.0, 274.0, 273.0, 274.0, 274.0, 274.0, 273.0, 274.0, 273.0, 273.0, 274.0, 274.0, 274.0, 274.0, 274.0, 274.0, 274.0, 274.0, 274.0, 274.0, 274.0, 274.0, 274.0, 274.0, 274.0, 274.0, 273.0, 274.0, 273.0, 273.0, 274.0, 274.0, 274.0, 274.0, 274.0, 274.0, 273.0, 274.0, 273.0, 273.0, 274.0, 273.0, 274.0, 274.0, 273.0, 273.0, 273.0, 274.0, 273.0, 273.0, 273.0, 274.0, 274.0, 273.0, 274.0, 273.0, 273.0, 274.0, 273.0, 273.0, 274.0, 273.0, 273.0, 273.0, 274.0, 274.0, 273.0, 273.0, 274.0, 274.0, 273.0, 273.0, 274.0, 273.0, 273.0, 274.0, 273.0, 273.0, 273.0, 273.0, 273.0, 274.0, 273.0, 273.0, 274.0, 274.0, 274.0, 273.0, 273.0, 274.0, 273.0, 273.0, 274.0, 274.0, 273.0, 273.0, 273.0, 273.0, 273.0, 273.0, 274.0, 273.0, 274.0, 273.0, 274.0],
      "WindowWidth": [601.0, 601.0, 601.0, 601.0, 601.0, 601.0, 601.0, 601.0, 601.0, 601.0, 601.0, 601.0, 601.0, 601.0, 601.0, 601.0, 600.0, 600.0, 601.0, 601.0, 601.0, 601.0, 601.0, 601.0, 601.0, 601.0, 601.0, 600.0, 600.0, 601.0, 601.0, 600.0, 601.0, 601.0, 601.0, 601.0, 600.0, 601.0, 601.0, 601.0, 600.0, 601.0, 601.0, 600.0, 600.0, 600.0, 601.0, 601.0, 601.0, 601.0, 601.0, 601.0, 601.0, 600.0, 601.0, 601.0, 600.0, 601.0, 600.0, 601.0, 600.0, 601.0, 600.0, 600.0, 601.0, 600.0, 601.0, 601.0, 600.0, 600.0, 600.0, 601.0, 600.0, 600.0, 600.0, 601.0, 600.0, 599.0, 601.0, 601.0, 600.0, 600.0, 600.0, 601.0, 601.0, 601.0, 600.0, 600.0, 600.0, 601.0, 600.0, 600.0, 600.0, 600.0, 601.0, 599.0, 600.0, 599.0, 600.0, 600.0, 601.0, 600.0, 600.0, 599.0, 599.0, 600.0, 601.0, 600.0, 600.0, 601.0, 600.0, 600.0, 601.0, 600.0, 601.0, 600.0, 600.0, 600.0, 601.0, 600.0, 601.0, 600.0, 600.0, 600.0, 599.0, 600.0, 600.0, 600.0, 600.0, 600.0, 600.0, 599.0, 600.0, 600.0, 599.0, 600.0, 599.0, 600.0, 600.0, 599.0, 600.0, 600.0, 600.0, 599.0, 599.0, 599.0, 600.0, 600.0, 599.0, 600.0, 600.0, 600.0, 600.0, 599.0, 600.0, 600.0, 599.0, 600.0, 599.0, 600.0, 600.0, 599.0, 600.0, 600.0, 600.0, 599.0, 600.0, 600.0, 599.0, 599.0, 600.0, 599.0, 599.0, 600.0, 599.0, 599.0, 600.0, 599.0, 599.0, 600.0, 600.0, 600.0, 599.0, 599.0, 600.0, 599.0, 599.0, 600.0, 600.0, 599.0, 599.0, 599.0, 599.0, 599.0, 599.0, 600.0, 599.0, 600.0, 599.0, 600.0]
    },
    "slices": {}
  }
}