{
  "AcquisitionMatrixPE": 80,
  "AcquisitionNumber": 1,
  "AcquisitionTime": "09:56:23.142500",
  "BandwidthPerPixelPhaseEncode": 44.643,
  "BaseResolution": 80,
  "BodyPartExamined": "BRAIN",
  "CoilCombinationMethod": "Sum of Squares",
  "ConsistencyInfo": "N4_VE11C_LATEST_20160120",
  "ConversionSoftware": "dcm2niix",
  "ConversionSoftwareVersion": "v1.0.20220720",
  "DerivedVendorReportedEchoSpacing": 0.000559998,
  "DeviceSerialNumber": "66112",
  "DwellTime": 2.7e-06,
  "EchoTime": 0.035,
  "EchoTrainLength": 39,
  "EffectiveEchoSpacing": 0.000279999,
  "FlipAngle": 90,
  "HeudiconvVersion": "0.13.1",
  "ImageOrientationPatientDICOM": [0.984718, 0.173878, 0.00989372, -0.168498, 0.936803, 0.30661],
  "ImageOrientationText": "Tra>Cor(17.7)>Sag(-2.5)",
  "ImageType": [
    "ORIGINAL",
    "PRIMARY",
    "M",
    "ND",
    "NORM",
    "MOSAIC"
],
  "ImagingFrequency": 123.252,
  "InPlanePhaseEncodingDirectionDICOM": "COL",
  "InstitutionAddress": "Maynard 3,Hanover,NH,US,03755",
  "InstitutionName": "Dartmouth College - PBS",
  "InstitutionalDepartmentName": "Department",
  "MRAcquisitionType": "2D",
  "MagneticFieldStrength": 3,
  "Manufacturer": "Siemens",
  "ManufacturersModelName": "Prisma",
  "Modality": "MR",
  "MultibandAccelerationFactor": 4,
  "NonlinearGradientCorrection": false,
  "ParallelReductionFactorInPlane": 2,
  "PartialFourier": 1,
  "PatientPosition": "HFS",
  "PercentPhaseFOV": 100,
  "PercentSampling": 100,
  "PhaseEncodingDirection": "j-",
  "PhaseEncodingSteps": 79,
  "PhaseResolution": 1,
  "PixelBandwidth": 2315,
  "ProcedureStepDescription": "dbic^QA",
  "ProtocolName": "func-bold_task-rest_acq-p2-s4-3.5mm",
  "PulseSequenceDetails": "%SiemensSeq%\\ep2d_bold",
  "ReceiveCoilActiveElements": "HEA;HEP",
  "ReceiveCoilName": "Head_32",
  "ReconMatrixPE": 80,
  "RefLinesPE": 24,
  "RepetitionTime": 2,
  "SAR": 0.0209407,
  "ScanOptions": "FS",
  "ScanningSequence": "EP",
  "SequenceName": "*epfid2d1_80",
  "SequenceVariant": "SK",
  "SeriesDescription": "func-bold_task-rest_acq-p2-s4-3.5mm",
  "SeriesNumber": 7,
  "ShimSetting": [4147, -7715, -7511, 251, -69, -113, 5, 56],
  "SliceThickness": 3.5,
  "SliceTiming": [1.485, 0, 0.99, 0.2475, 1.2375, 0.7425, 1.7325, 0.495, 1.485, 0, 0.99, 0.2475, 1.2375, 0.7425, 1.7325, 0.495, 1.485, 0, 0.99, 0.2475, 1.2375, 0.7425, 1.7325, 0.495, 1.485, 0, 0.99, 0.2475, 1.2375, 0.7425, 1.7325, 0.495],
  "SoftwareVersions": "syngo MR E11",
  "SpacingBetweenSlices": 3.99,
  "StationName": "AWP66112",
  "TaskName": "rest",
  "TotalReadoutTime": 0.0221199,
  "TxRefAmp": 224.186,
  "dcmmeta_affine": [
    [-2.9541525840759277, -0.5054934024810791, -0.17573626339435577, 141.4115753173828],
    [-0.5216335654258728, 2.8104076385498047, 1.2113280296325684, -92.29156494140625],
    [0.029681149870157242, -0.9198290109634399, 3.7976179122924805, -23.342609405517578],
    [0.0, 0.0, 0.0, 1.0]
],
  "dcmmeta_reorient_transform": [
    [0.0, -1.0, 0.0, 79.0],
    [1.0, 0.0, 0.0, 0.0],
    [0.0, 0.0, 1.0, 0.0],
    [0.0, 0.0, 0.0, 1.0]
],
  "dcmmeta_shape": [80, 80, 32, 200],
  "dcmmeta_slice_dim": 2,
  "dcmmeta_version": 0.6,
  "global": {
    "const": {
      "AccessionNumber": "qa",
      "AcquisitionMatrix": [80, 0, 0, 80],
      "AngioFlag": "N",
      "BitsAllocated": 16,
      "BitsStored": 12,
      "BodyPartExamined": "BRAIN",
      "Columns": 480,
      "EchoNumbers": 1,
      "EchoTime": 35.0,
      "EchoTrainLength": 39,
      "FlipAngle": 90.0,
      "HighBit": 11,
      "ImageOrientationPatient": [0.98471752511168, 0.17387785974071, 0.00989371668895, -0.1684977936297, 0.93680254269831, 0.30660966967122],
      "ImagePositionPatient": [-591.20943568616, -796.13888105477, -285.91113233216],
      "ImageType": [
        "ORIGINAL",
        "PRIMARY",
        "M",
        "ND",
        "NORM",
        "MOSAIC"
],
      "ImagedNucleus": "1H",
      "ImagingFrequency": 123.252344,
      "InPlanePhaseEncodingDirection": "COL",
      "MRAcquisitionType": "2D",
      "MagneticFieldStrength": 3.0,
      "Manufacturer": "SIEMENS",
      "ManufacturerModelName": "Prisma",
      "Modality": "MR",
      "NumberOfAverages": 1.0,
      "NumberOfPhaseEncodingSteps": 79,
      "PercentPhaseFieldOfView": 100.0,
      "PercentSampling": 100.0,
      "PerformedProcedureStepStartTime": "094613.221000",
      "PhotometricInterpretation": "MONOCHROME2",
      "PixelBandwidth": 2315.0,
      "PixelRepresentation": 0,
      "PixelSpacing": [3.0, 3.0],
      "ProtocolName": "func-bold_task-rest_acq-p2-s4-3.5mm",
      "RepetitionTime": 2000.0,
      "Rows": 480,
      "SAR": 0.02094072846274,
      "SamplesPerPixel": 1,
      "ScanOptions": "FS",
      "ScanningSequence": "EP",
      "SequenceName": "*epfid2d1_80",
      "SequenceVariant": "SK",
      "SeriesDescription": "func-bold_task-rest_acq-p2-s4-3.5mm",
      "SeriesNumber": 7,
      "SeriesTime": "095702.245000",
      "SliceLocation": -56.464362118205,
      "SliceThickness": 3.5,
      "SmallestImagePixelValue": 0,
      "SoftwareVersions": "syngo MR E11",
      "SpacingBetweenSlices": 3.9900000491771,
      "SpecificCharacterSet": "ISO_IR 100",
      "StudyID": "61",
      "StudyTime": "094613.188000",
      "TransmitCoilName": "Body",
      "VariableFlipAngleFlag": "N",
      "WindowCenterWidthExplanation": "Algo1",
      "dBdt": 0.0},
    "slices": {}
  },
  "time": {
    "samples": {
      "AcquisitionNumber": [1, 2, 3, 4, 5, 6, 7, 8, 9, 10, 11, 12, 13, 14, 15, 16, 17, 18, 19, 20, 21, 22, 23, 24, 25, 26, 27, 28, 29, 30, 31, 32, 33, 34, 35, 36, 37, 38, 39, 40, 41, 42, 43, 44, 45, 46, 47, 48, 49, 50, 51, 52, 53, 54, 55, 56, 57, 58, 59, 60, 61, 62, 63, 64, 65, 66, 67, 68, 69, 70, 71, 72, 73, 74, 75, 76, 77, 78, 79, 80, 81, 82, 83, 84, 85, 86, 87, 88, 89, 90, 91, 92, 93, 94, 95, 96, 97, 98, 99, 100, 101, 102, 103, 104, 105, 106, 107, 108, 109, 110, 111, 112, 113, 114, 115, 116, 117, 118, 119, 120, 121, 122, 123, 124, 125, 126, 127, 128, 129, 130, 131, 132, 133, 134, 135, 136, 137, 138, 139, 140, 141, 142, 143, 144, 145, 146, 147, 148, 149, 150, 151, 152, 153, 154, 155, 156, 157, 158, 159, 160, 161, 162, 163, 164, 165, 166, 167, 168, 169, 170, 171, 172, 173, 174, 175, 176, 177, 178, 179, 180, 181, 182, 183, 184, 185, 186, 187, 188, 189, 190, 191, 192, 193, 194, 195, 196, 197, 198, 199, 200],
      "AcquisitionTime": ["095623.142500", "095625.142500", "095627.142500", "095629.142500", "095631.142500", "095633.142500", "095635.142500", "095637.142500", "095639.142500", "095641.142500", "095643.142500", "095645.142500", "095647.142500", "095649.142500", "095651.142500", "095653.142500", "095655.142500", "095657.142500", "095659.142500", "095701.142500", "095703.142500", "095705.142500", "095707.142500", "095709.142500", "095711.142500", "095713.142500", "095715.142500", "095717.142500", "095719.142500", "095721.142500", "095723.142500", "095725.142500", "095727.142500", "095729.142500", "095731.142500", "095733.142500", "095735.142500", "095737.142500", "095739.142500", "095741.142500", "095743.142500", "095745.142500", "095747.142500", "095749.142500", "095751.142500", "095753.142500", "095755.142500", "095757.142500", "095759.142500", "095801.142500", "095803.142500", "095805.142500", "095807.142500", "095809.142500", "095811.142500", "095813.142500", "095815.142500", "095817.142500", "095819.142500", "095821.142500", "095823.142500", "095825.142500", "095827.142500", "095829.142500", "095831.142500", "095833.142500", "095835.142500", "095837.142500", "095839.142500", "095841.142500", "095843.142500", "095845.142500", "095847.142500", "095849.142500", "095851.142500", "095853.142500", "095855.142500", "095857.142500", "095859.142500", "095901.142500", "095903.142500", "095905.142500", "095907.142500", "095909.142500", "095911.142500", "095913.142500", "095915.142500", "095917.142500", "095919.142500", "095921.142500", "095923.142500", "095925.142500", "095927.142500", "095929.142500", "095931.142500", "095933.142500", "095935.142500", "095937.142500", "095939.142500", "095941.142500", "095943.142500", "095945.142500", "095947.142500", "095949.142500", "095951.142500", "095953.142500", "095955.142500", "095957.142500", "095959.142500", "100001.142500", "100003.142500", "100005.142500", "100007.142500", "100009.142500", "100011.142500", "100013.142500", "100015.142500", "100017.142500", "100019.142500", "100021.142500", "100023.142500", "100025.142500", "100027.142500", "100029.142500", "100031.142500", "100033.142500", "100035.142500", "100037.142500", "100039.142500", "100041.142500", "100043.142500", "100045.142500", "100047.142500", "100049.142500", "100051.142500", "100053.142500", "100055.142500", "100057.142500", "100059.142500", "100101.142500", "100103.142500", "100105.142500", "100107.142500", "100109.142500", "100111.142500", "100113.142500", "100115.142500", "100117.142500", "100119.142500", "100121.142500", "100123.142500", "100125.142500", "100127.142500", "100129.142500", "100131.142500", "100133.142500", "100135.142500", "100137.142500", "100139.142500", "100141.142500", "100143.142500", "100145.142500", "100147.142500", "100149.142500", "100151.142500", "100153.142500", "100155.142500", "100157.142500", "100159.142500", "100201.142500", "100203.142500", "100205.142500", "100207.142500", "100209.142500", "100211.142500", "100213.142500", "100215.142500", "100217.142500", "100219.142500", "100221.142500", "100223.142500", "100225.142500", "100227.142500", "100229.142500", "100231.142500", "100233.142500", "100235.142500", "100237.142500", "100239.142500", "100241.142500", "100243.142500", "100245.142500", "100247.142500", "100249.142500", "100251.142500", "100253.142500", "100255.142500", "100257.142500", "100259.142500", "100301.142500"],
      "ContentTime": ["095702.248000", "095702.252000", "095702.254000", "095702.257000", "095702.259000", "095702.267000", "095702.270000", "095702.272000", "095702.275000", "095702.278000", "095702.280000", "095702.283000", "095702.285000", "095702.288000", "095702.291000", "095702.293000", "095702.296000", "095702.298000", "095702.301000", "095702.304000", "095742.244000", "095742.247000", "095742.250000", "095742.253000", "095742.255000", "095742.258000", "095742.261000", "095742.263000", "095742.266000", "095742.268000", "095742.271000", "095742.274000", "095742.276000", "095742.279000", "095742.281000", "095742.284000", "095742.287000", "095742.289000", "095742.292000", "095742.294000", "095822.243000", "095822.246000", "095822.249000", "095822.258000", "095822.261000", "095822.264000", "095822.266000", "095822.269000", "095822.272000", "095822.274000", "095822.277000", "095822.279000", "095822.282000", "095822.285000", "095822.287000", "095822.290000", "095822.292000", "095822.295000", "095822.298000", "095822.309000", "095902.244000", "095902.247000", "095902.249000", "095902.252000", "095902.255000", "095902.258000", "095902.260000", "095902.263000", "095902.266000", "095902.269000", "095902.271000", "095902.274000", "095902.277000", "095902.279000", "095902.282000", "095902.284000", "095902.287000", "095902.290000", "095902.293000", "095902.296000", "095942.244000", "095942.247000", "095942.250000", "095942.253000", "095942.255000", "095942.258000", "095942.261000", "095942.263000", "095942.266000", "095942.268000", "095942.271000", "095942.274000", "095942.283000", "095942.286000", "095942.288000", "095942.291000", "095942.293000", "095942.296000", "095942.299000", "095942.301000", "100022.244000", "100022.247000", "100022.250000", "100022.253000", "100022.255000", "100022.258000", "100022.261000", "100022.263000", "100022.266000", "100022.269000", "100022.271000", "100022.274000", "100022.277000", "100022.279000", "100022.282000", "100022.285000", "100022.287000", "100022.290000", "100022.292000", "100022.295000", "100102.244000", "100102.247000", "100102.249000", "100102.252000", "100102.254000", "100102.257000", "100102.260000", "100102.262000", "100102.265000", "100102.267000", "100102.270000", "100102.273000", "100102.275000", "100102.278000", "100102.281000", "100102.283000", "100102.286000", "100102.288000", "100102.291000", "100102.294000", "100142.244000", "100142.246000", "100142.249000", "100142.252000", "100142.254000", "100142.257000", "100142.260000", "100142.262000", "100142.265000", "100142.267000", "100142.270000", "100142.273000", "100142.275000", "100142.278000", "100142.281000", "100142.284000", "100142.286000", "100142.289000", "100142.292000", "100142.294000", "100222.244000", "100222.247000", "100222.250000", "100222.253000", "100222.256000", "100222.258000", "100222.261000", "100222.264000", "100222.266000", "100222.269000", "100222.272000", "100222.274000", "100222.277000", "100222.279000", "100222.282000", "100222.285000", "100222.288000", "100222.290000", "100222.293000", "100222.295000", "100302.093000", "100302.096000", "100302.099000", "100302.102000", "100302.105000", "100302.107000", "100302.110000", "100302.113000", "100302.115000", "100302.118000", "100302.120000", "100302.124000", "100302.130000", "100302.133000", "100302.136000", "100302.144000", "100302.151000", "100302.155000", "100302.158000", "100302.161000"],
      "InstanceCreationTime": ["095702.248000", "095702.252000", "095702.254000", "095702.257000", "095702.259000", "095702.267000", "095702.270000", "095702.272000", "095702.275000", "095702.278000", "095702.280000", "095702.283000", "095702.285000", "095702.288000", "095702.291000", "095702.293000", "095702.296000", "095702.298000", "095702.301000", "095702.304000", "095742.244000", "095742.247000", "095742.250000", "095742.253000", "095742.255000", "095742.258000", "095742.261000", "095742.263000", "095742.266000", "095742.268000", "095742.271000", "095742.274000", "095742.276000", "095742.279000", "095742.281000", "095742.284000", "095742.287000", "095742.289000", "095742.292000", "095742.294000", "095822.243000", "095822.246000", "095822.249000", "095822.258000", "095822.261000", "095822.264000", "095822.266000", "095822.269000", "095822.272000", "095822.274000", "095822.277000", "095822.279000", "095822.282000", "095822.285000", "095822.287000", "095822.290000", "095822.292000", "095822.295000", "095822.298000", "095822.309000", "095902.244000", "095902.247000", "095902.249000", "095902.252000", "095902.255000", "095902.258000", "095902.260000", "095902.263000", "095902.266000", "095902.269000", "095902.271000", "095902.274000", "095902.277000", "095902.279000", "095902.282000", "095902.284000", "095902.287000", "095902.290000", "095902.293000", "095902.296000", "095942.244000", "095942.247000", "095942.250000", "095942.253000", "095942.255000", "095942.258000", "095942.261000", "095942.263000", "095942.266000", "095942.268000", "095942.271000", "095942.274000", "095942.283000", "095942.286000", "095942.288000", "095942.291000", "095942.293000", "095942.296000", "095942.299000", "095942.301000", "100022.244000", "100022.247000", "100022.250000", "100022.253000", "100022.255000", "100022.258000", "100022.261000", "100022.263000", "100022.266000", "100022.269000", "100022.271000", "100022.274000", "100022.277000", "100022.279000", "100022.282000", "100022.285000", "100022.287000", "100022.290000", "100022.292000", "100022.295000", "100102.244000", "100102.247000", "100102.249000", "100102.252000", "100102.254000", "100102.257000", "100102.260000", "100102.262000", "100102.265000", "100102.267000", "100102.270000", "100102.273000", "100102.275000", "100102.278000", "100102.281000", "100102.283000", "100102.286000", "100102.288000", "100102.291000", "100102.294000", "100142.244000", "100142.246000", "100142.249000", "100142.252000", "100142.254000", "100142.257000", "100142.260000", "100142.262000", "100142.265000", "100142.267000", "100142.270000", "100142.273000", "100142.275000", "100142.278000", "100142.281000", "100142.284000", "100142.286000", "100142.289000", "100142.292000", "100142.294000", "100222.244000", "100222.247000", "100222.250000", "100222.253000", "100222.256000", "100222.258000", "100222.261000", "100222.264000", "100222.266000", "100222.269000", "100222.272000", "100222.274000", "100222.277000", "100222.279000", "100222.282000", "100222.285000", "100222.288000", "100222.290000", "100222.293000", "100222.295000", "100302.093000", "100302.096000", "100302.099000", "100302.102000", "100302.105000", "100302.107000", "100302.110000", "100302.113000", "100302.115000", "100302.118000", "100302.120000", "100302.124000", "100302.130000", "100302.133000", "100302.136000", "100302.144000", "100302.151000", "100302.155000", "100302.158000", "100302.161000"],
      "InstanceNumber": [1, 2, 3, 4, 5, 6, 7, 8, 9, 10, 11, 12, 13, 14, 15, 16, 17, 18, 19, 20, 21, 22, 23, 24, 25, 26, 27, 28, 29, 30, 31, 32, 33, 34, 35, 36, 37, 38, 39, 40, 41, 42, 43, 44, 45, 46, 47, 48, 49, 50, 51, 52, 53, 54, 55, 56, 57, 58, 59, 60, 61, 62, 63, 64, 65, 66, 67, 68, 69, 70, 71, 72, 73, 74, 75, 76, 77, 78, 79, 80, 81, 82, 83, 84, 85, 86, 87, 88, 89, 90, 91, 92, 93, 94, 95, 96, 97, 98, 99, 100, 101, 102, 103, 104, 105, 106, 107, 108, 109, 110, 111, 112, 113, 114, 115, 116, 117, 118, 119, 120, 121, 122, 123, 124, 125, 126, 127, 128, 129, 130, 131, 132, 133, 134, 135, 136, 137, 138, 139, 140, 141, 142, 143, 144, 145, 146, 147, 148, 149, 150, 151, 152, 153, 154, 155, 156, 157, 158, 159, 160, 161, 162, 163, 164, 165, 166, 167, 168, 169, 170, 171, 172, 173, 174, 175, 176, 177, 178, 179, 180, 181, 182, 183, 184, 185, 186, 187, 188, 189, 190, 191, 192, 193, 194, 195, 196, 197, 198, 199, 200],
      "LargestImagePixelValue": [1979, 1973, 1981, 1973, 1978, 1977, 1979, 1983, 1976, 1977, 1982, 1979, 1977, 1982, 1978, 1978, 1977, 1979, 1977, 1982, 1986, 1980, 1984, 1985, 1979, 1980, 1981, 1977, 1972, 1981, 1978, 1980, 1981, 1982, 1981, 1984, 1984, 1986, 1984, 1981, 1983, 1978, 1981, 1982, 1981, 1982, 1979, 1983, 1987, 1981, 1977, 1990, 1984, 1980, 1982, 1983, 1980, 1980, 1983, 1980, 1992, 1979, 1985, 1982, 1984, 1986, 1985, 1982, 1982, 1979, 1981, 1978, 1979, 1981, 1981, 1978, 1980, 1977, 1977, 1989, 1980, 1977, 1982, 1982, 1983, 1977, 1980, 1988, 1985, 1979, 1980, 1979, 1974, 1986, 1976, 1982, 1980, 1976, 1976, 1980, 1983, 1976, 1975, 1979, 1977, 1983, 1978, 1984, 1980, 1981, 1977, 1980, 1981, 1977, 1978, 1978, 1984, 1978, 1982, 1981, 1983, 1977, 1978, 1985, 1981, 1981, 1984, 1978, 1979, 1984, 1982, 1983, 1983, 1980, 1982, 1979, 1978, 1973, 1980, 1980, 1980, 1981, 1981, 1979, 1979, 1981, 1974, 1989, 1984, 1979, 1979, 1979, 1978, 1984, 1976, 1982, 1986, 1978, 1982, 1977, 1985, 1982, 1986, 1979, 1981, 1984, 1983, 1979, 1989, 1990, 1973, 1979, 1980, 1982, 1982, 1974, 1984, 1973, 1977, 1983, 1983, 1984, 1975, 1980, 1987, 1980, 1984, 1985, 1984, 1975, 1984, 1980, 1979, 1977, 1987, 1985, 1974, 1984, 1976, 1982],
      "WindowCenter": [916.0, 916.0, 916.0, 916.0, 916.0, 916.0, 916.0, 916.0, 916.0, 917.0, 916.0, 916.0, 916.0, 916.0, 916.0, 916.0, 916.0, 916.0, 916.0, 916.0, 916.0, 916.0, 916.0, 916.0, 916.0, 916.0, 916.0, 916.0, 916.0, 917.0, 916.0, 916.0, 916.0, 916.0, 916.0, 916.0, 916.0, 916.0, 916.0, 916.0, 916.0, 916.0, 916.0, 916.0, 916.0, 916.0, 916.0, 916.0, 916.0, 916.0, 916.0, 916.0, 916.0, 916.0, 916.0, 916.0, 916.0, 916.0, 916.0, 916.0, 916.0, 916.0, 916.0, 916.0, 916.0, 916.0, 916.0, 916.0, 916.0, 916.0, 916.0, 916.0, 917.0, 916.0, 916.0, 916.0, 916.0, 916.0, 916.0, 916.0, 916.0, 916.0, 916.0, 916.0, 916.0, 916.0, 916.0, 916.0, 916.0, 916.0, 916.0, 916.0, 916.0, 916.0, 916.0, 916.0, 916.0, 916.0, 916.0, 916.0, 916.0, 916.0, 917.0, 916.0, 916.0, 916.0, 916.0, 916.0, 916.0, 916.0, 916.0, 916.0, 916.0, 916.0, 916.0, 916.0, 916.0, 916.0, 916.0, 916.0, 916.0, 916.0, 916.0, 916.0, 916.0, 916.0, 916.0, 916.0, 916.0, 916.0, 916.0, 916.0, 916.0, 916.0, 916.0, 916.0, 916.0, 916.0, 916.0, 916.0, 916.0, 916.0, 916.0, 916.0, 916.0, 916.0, 916.0, 916.0, 916.0, 916.0, 916.0, 916.0, 916.0, 916.0, 916.0, 916.0, 916.0, 916.0, 916.0, 916.0, 916.0, 916.0, 916.0, 916.0, 916.0, 916.0, 916.0, 916.0, 916.0, 916.0, 916.0, 916.0, 916.0, 916.0, 916.0, 916.0, 916.0, 916.0, 916.0, 916.0, 916.0, 916.0, 916.0, 916.0, 916.0, 916.0, 916.0, 916.0, 916.0, 916.0, 916.0, 916.0, 916.0, 916.0, 916.0, 916.0, 916.0, 916.0, 916.0, 916.0],
      "WindowWidth": [2081.0, 2082.0, 2082.0, 2081.0, 2081.0, 2082.0, 2082.0, 2082.0, 2081.0, 2083.0, 2082.0, 2082.0, 2082.0, 2082.0, 2082.0, 2082.0, 2082.0, 2082.0, 2082.0, 2082.0, 2082.0, 2082.0, 2082.0, 2081.0, 2082.0, 2082.0, 2082.0, 2082.0, 2082.0, 2083.0, 2082.0, 2082.0, 2082.0, 2082.0, 2082.0, 2082.0, 2082.0, 2082.0, 2082.0, 2082.0, 2082.0, 2082.0, 2082.0, 2082.0, 2081.0, 2082.0, 2082.0, 2082.0, 2082.0, 2082.0, 2082.0, 2082.0, 2082.0, 2082.0, 2082.0, 2082.0, 2082.0, 2082.0, 2082.0, 2082.0, 2082.0, 2082.0, 2082.0, 2082.0, 2082.0, 2081.0, 2082.0, 2082.0, 2082.0, 2082.0, 2082.0, 2082.0, 2082.0, 2082.0, 2082.0, 2082.0, 2082.0, 2082.0, 2082.0, 2082.0, 2082.0, 2082.0, 2082.0, 2082.0, 2082.0, 2082.0, 2082.0, 2082.0, 2082.0, 2082.0, 2082.0, 2083.0, 2083.0, 2083.0, 2083.0, 2083.0, 2083.0, 2083.0, 2082.0, 2083.0, 2082.0, 2083.0, 2083.0, 2083.0, 2082.0, 2082.0, 2082.0, 2082.0, 2083.0, 2083.0, 2082.0, 2083.0, 2082.0, 2082.0, 2082.0, 2082.0, 2082.0, 2082.0, 2082.0, 2082.0, 2082.0, 2082.0, 2082.0, 2082.0, 2082.0, 2082.0, 2082.0, 2082.0, 2082.0, 2082.0, 2082.0, 2082.0, 2082.0, 2082.0, 2082.0, 2082.0, 2082.0, 2082.0, 2082.0, 2082.0, 2082.0, 2082.0, 2082.0, 2082.0, 2082.0, 2082.0, 2082.0, 2082.0, 2082.0, 2082.0, 2082.0, 2082.0, 2082.0, 2082.0, 2082.0, 2082.0, 2082.0, 2082.0, 2082.0, 2082.0, 2082.0, 2082.0, 2082.0, 2082.0, 2082.0, 2082.0, 2082.0, 2082.0, 2082.0, 2082.0, 2082.0, 2082.0, 2082.0, 2082.0, 2082.0, 2082.0, 2082.0, 2082.0, 2082.0, 2082.0, 2082.0, 2082.0, 2082.0, 2082.0, 2082.0, 2082.0, 2082.0, 2082.0, 2082.0, 2082.0, 2082.0, 2082.0, 2082.0, 2082.0, 2082.0, 2082.0, 2082.0, 2082.0, 2082.0, 2082.0]
    },
    "slices": {}
  }
}