{
  "AcquisitionMatrixPE": 80,
  "AcquisitionNumber": 1,
  "AcquisitionTime": "09:20:44.130000",
  "BandwidthPerPixelPhaseEncode": 48.077,
  "BaseResolution": 80,
  "BodyPartExamined": "BRAIN",
  "CoilCombinationMethod": "Sum of Squares",
  "ConsistencyInfo": "N4_VE11C_LATEST_20160120",
  "ConversionSoftware": "dcm2niix",
  "ConversionSoftwareVersion": "v1.0.20220720",
  "DerivedVendorReportedEchoSpacing": 0.000519999,
  "DeviceSerialNumber": "66112",
  "DwellTime": 2.7e-06,
  "EchoTime": 0.035,
  "EchoTrainLength": 39,
  "EffectiveEchoSpacing": 0.00026,
  "FlipAngle": 90,
  "HeudiconvVersion": "0.13.1",
  "ImageOrientationPatientDICOM": [0.981973, -0.189016, 0.00161119, 0.179517, 0.935227, 0.305161],
  "ImageOrientationText": "Tra>Cor(17.5)>Sag(3.4)",
  "ImageType": [
    "ORIGINAL",
    "PRIMARY",
    "M",
    "ND",
    "NORM",
    "MOSAIC"
],
  "ImagingFrequency": 123.252,
  "InPlanePhaseEncodingDirectionDICOM": "COL",
  "InstitutionAddress": "Maynard 3,Hanover,NH,US,03755",
  "InstitutionName": "Dartmouth College - PBS",
  "InstitutionalDepartmentName": "Department",
  "MRAcquisitionType": "2D",
  "MagneticFieldStrength": 3,
  "Manufacturer": "Siemens",
  "ManufacturersModelName": "Prisma",
  "MatrixCoilMode": "GRAPPA",
  "Modality": "MR",
  "NonlinearGradientCorrection": false,
  "ParallelReductionFactorInPlane": 2,
  "PartialFourier": 1,
  "PatientPosition": "HFS",
  "PercentPhaseFOV": 100,
  "PercentSampling": 100,
  "PhaseEncodingDirection": "j-",
  "PhaseEncodingSteps": 79,
  "PhaseResolution": 1,
  "PixelBandwidth": 2315,
  "ProcedureStepDescription": "dbic^QA",
  "ProtocolName": "func-bold_task-rest_acq-p2",
  "PulseSequenceDetails": "%SiemensSeq%\\ep2d_bold",
  "ReceiveCoilActiveElements": "HEA;HEP",
  "ReceiveCoilName": "Head_32",
  "ReconMatrixPE": 80,
  "RefLinesPE": 24,
  "RepetitionTime": 2,
  "SAR": 0.0554328,
  "ScanOptions": "FS",
  "ScanningSequence": "EP",
  "SequenceName": "*epfid2d1_80",
  "SequenceVariant": "SK",
  "SeriesDescription": "func-bold_task-rest_acq-p2",
  "SeriesNumber": 5,
  "ShimSetting": [4147, -7696, -7507, 331, -82, -133, -53, 98],
  "SliceThickness": 3.5,
  "SliceTiming": [0.99, 0, 1.055, 0.065, 1.12, 0.1325, 1.1875, 0.1975, 1.2525, 0.2625, 1.32, 0.33, 1.385, 0.395, 1.45, 0.4625, 1.5175, 0.5275, 1.5825, 0.5925, 1.65, 0.66, 1.715, 0.725, 1.78, 0.79, 1.8475, 0.8575, 1.9125, 0.9225],
  "SoftwareVersions": "syngo MR E11",
  "SpacingBetweenSlices": 3.99,
  "StationName": "AWP66112",
  "TaskName": "rest",
  "TotalReadoutTime": 0.02054,
  "TxRefAmp": 235.016,
  "dcmmeta_affine": [
    [-2.945918083190918, 0.5385517477989197, 0.23615652322769165, 89.40737915039062],
    [0.5670472979545593, 2.8056821823120117, 1.1944891214370728, -144.19801330566406],
    [0.004833572078496218, -0.9154834747314453, 3.7996745109558105, -23.109920501708984],
    [0.0, 0.0, 0.0, 1.0]
],
  "dcmmeta_reorient_transform": [
    [0.0, -1.0, 0.0, 79.0],
    [1.0, 0.0, 0.0, 0.0],
    [0.0, 0.0, 1.0, 0.0],
    [0.0, 0.0, 0.0, 1.0]
],
  "dcmmeta_shape": [80, 80, 30, 200],
  "dcmmeta_slice_dim": 2,
  "dcmmeta_version": 0.6,
  "global": {
    "const": {
      "AccessionNumber": "qa",
      "AcquisitionMatrix": [80, 0, 0, 80],
      "AngioFlag": "N",
      "BitsAllocated": 16,
      "BitsStored": 12,
      "BodyPartExamined": "BRAIN",
      "Columns": 480,
      "EchoNumbers": 1,
      "EchoTime": 35.0,
      "EchoTrainLength": 39,
      "FlipAngle": 90.0,
      "HighBit": 11,
      "ImageOrientationPatient": [0.98197273283249, -0.1890157560578, 0.00161119067166, 0.17951723976521, 0.93522736429424, 0.30516116676656],
      "ImagePositionPatient": [-828.84694513775, -525.17784212975, -279.49653116289],
      "ImageType": [
        "ORIGINAL",
        "PRIMARY",
        "M",
        "ND",
        "NORM",
        "MOSAIC"
],
      "ImagedNucleus": "1H",
      "ImagingFrequency": 123.252474,
      "InPlanePhaseEncodingDirection": "COL",
      "MRAcquisitionType": "2D",
      "MagneticFieldStrength": 3.0,
      "Manufacturer": "SIEMENS",
      "ManufacturerModelName": "Prisma",
      "Modality": "MR",
      "NumberOfAverages": 1.0,
      "NumberOfPhaseEncodingSteps": 79,
      "PercentPhaseFieldOfView": 100.0,
      "PercentSampling": 100.0,
      "PerformedProcedureStepStartTime": "091620.721000",
      "PhotometricInterpretation": "MONOCHROME2",
      "PixelBandwidth": 2315.0,
      "PixelRepresentation": 0,
      "PixelSpacing": [3.0, 3.0],
      "ProtocolName": "func-bold_task-rest_acq-p2",
      "RepetitionTime": 2000.0,
      "Rows": 480,
      "SAR": 0.05543275186451,
      "SamplesPerPixel": 1,
      "ScanOptions": "FS",
      "ScanningSequence": "EP",
      "SequenceName": "*epfid2d1_80",
      "SequenceVariant": "SK",
      "SeriesDescription": "func-bold_task-rest_acq-p2",
      "SeriesNumber": 5,
      "SeriesTime": "092142.393000",
      "SliceLocation": -59.884458849596,
      "SliceThickness": 3.5,
      "SmallestImagePixelValue": 0,
      "SoftwareVersions": "syngo MR E11",
      "SpacingBetweenSlices": 3.9900000274011,
      "SpecificCharacterSet": "ISO_IR 100",
      "StudyID": "61",
      "StudyTime": "091620.638000",
      "TransmitCoilName": "Body",
      "VariableFlipAngleFlag": "N",
      "WindowCenterWidthExplanation": "Algo1",
      "dBdt": 0.0},
    "slices": {}
  },
  "time": {
    "samples": {
      "AcquisitionNumber": [1, 2, 3, 4, 5, 6, 7, 8, 9, 10, 11, 12, 13, 14, 15, 16, 17, 18, 19, 20, 21, 22, 23, 24, 25, 26, 27, 28, 29, 30, 31, 32, 33, 34, 35, 36, 37, 38, 39, 40, 41, 42, 43, 44, 45, 46, 47, 48, 49, 50, 51, 52, 53, 54, 55, 56, 57, 58, 59, 60, 61, 62, 63, 64, 65, 66, 67, 68, 69, 70, 71, 72, 73, 74, 75, 76, 77, 78, 79, 80, 81, 82, 83, 84, 85, 86, 87, 88, 89, 90, 91, 92, 93, 94, 95, 96, 97, 98, 99, 100, 101, 102, 103, 104, 105, 106, 107, 108, 109, 110, 111, 112, 113, 114, 115, 116, 117, 118, 119, 120, 121, 122, 123, 124, 125, 126, 127, 128, 129, 130, 131, 132, 133, 134, 135, 136, 137, 138, 139, 140, 141, 142, 143, 144, 145, 146, 147, 148, 149, 150, 151, 152, 153, 154, 155, 156, 157, 158, 159, 160, 161, 162, 163, 164, 165, 166, 167, 168, 169, 170, 171, 172, 173, 174, 175, 176, 177, 178, 179, 180, 181, 182, 183, 184, 185, 186, 187, 188, 189, 190, 191, 192, 193, 194, 195, 196, 197, 198, 199, 200],
      "AcquisitionTime": ["092044.130000", "092046.130000", "092048.130000", "092050.130000", "092052.130000", "092054.130000", "092056.130000", "092058.130000", "092100.130000", "092102.130000", "092104.130000", "092106.130000", "092108.130000", "092110.130000", "092112.130000", "092114.130000", "092116.130000", "092118.130000", "092120.130000", "092122.130000", "092124.130000", "092126.130000", "092128.130000", "092130.130000", "092132.130000", "092134.130000", "092136.130000", "092138.130000", "092140.130000", "092142.130000", "092144.130000", "092146.130000", "092148.130000", "092150.130000", "092152.130000", "092154.130000", "092156.130000", "092158.130000", "092200.130000", "092202.130000", "092204.130000", "092206.130000", "092208.130000", "092210.130000", "092212.130000", "092214.130000", "092216.130000", "092218.130000", "092220.130000", "092222.130000", "092224.130000", "092226.130000", "092228.130000", "092230.130000", "092232.130000", "092234.130000", "092236.130000", "092238.130000", "092240.130000", "092242.130000", "092244.130000", "092246.130000", "092248.130000", "092250.130000", "092252.130000", "092254.130000", "092256.130000", "092258.130000", "092300.130000", "092302.130000", "092304.130000", "092306.130000", "092308.130000", "092310.130000", "092312.130000", "092314.130000", "092316.130000", "092318.130000", "092320.130000", "092322.130000", "092324.130000", "092326.130000", "092328.130000", "092330.130000", "092332.130000", "092334.130000", "092336.130000", "092338.130000", "092340.130000", "092342.130000", "092344.130000", "092346.130000", "092348.130000", "092350.130000", "092352.130000", "092354.130000", "092356.130000", "092358.130000", "092400.130000", "092402.130000", "092404.130000", "092406.130000", "092408.130000", "092410.130000", "092412.130000", "092414.130000", "092416.130000", "092418.130000", "092420.130000", "092422.130000", "092424.130000", "092426.130000", "092428.130000", "092430.130000", "092432.130000", "092434.130000", "092436.130000", "092438.130000", "092440.130000", "092442.130000", "092444.130000", "092446.130000", "092448.130000", "092450.130000", "092452.130000", "092454.130000", "092456.130000", "092458.130000", "092500.130000", "092502.130000", "092504.130000", "092506.130000", "092508.130000", "092510.130000", "092512.130000", "092514.130000", "092516.130000", "092518.130000", "092520.130000", "092522.130000", "092524.130000", "092526.130000", "092528.130000", "092530.130000", "092532.130000", "092534.130000", "092536.130000", "092538.130000", "092540.130000", "092542.130000", "092544.130000", "092546.130000", "092548.130000", "092550.130000", "092552.130000", "092554.130000", "092556.130000", "092558.130000", "092600.130000", "092602.130000", "092604.130000", "092606.130000", "092608.130000", "092610.130000", "092612.130000", "092614.130000", "092616.130000", "092618.130000", "092620.130000", "092622.130000", "092624.130000", "092626.130000", "092628.130000", "092630.130000", "092632.130000", "092634.130000", "092636.130000", "092638.130000", "092640.130000", "092642.130000", "092644.130000", "092646.130000", "092648.130000", "092650.130000", "092652.130000", "092654.130000", "092656.130000", "092658.130000", "092700.130000", "092702.130000", "092704.130000", "092706.130000", "092708.130000", "092710.130000", "092712.130000", "092714.130000", "092716.130000", "092718.130000", "092720.130000", "092722.130000"],
      "ContentTime": ["092142.397000", "092142.400000", "092142.403000", "092142.406000", "092142.409000", "092142.411000", "092142.414000", "092142.416000", "092142.419000", "092142.429000", "092142.432000", "092142.435000", "092142.437000", "092142.440000", "092142.443000", "092142.445000", "092142.448000", "092142.450000", "092142.453000", "092142.455000", "092142.458000", "092142.460000", "092142.463000", "092142.465000", "092142.468000", "092142.470000", "092142.473000", "092142.475000", "092142.478000", "092222.375000", "092222.379000", "092222.381000", "092222.384000", "092222.387000", "092222.389000", "092222.392000", "092222.394000", "092222.397000", "092222.399000", "092222.402000", "092222.405000", "092222.407000", "092222.410000", "092222.412000", "092222.415000", "092222.418000", "092222.420000", "092222.423000", "092222.426000", "092302.376000", "092302.379000", "092302.382000", "092302.384000", "092302.387000", "092302.390000", "092302.392000", "092302.395000", "092302.397000", "092302.400000", "092302.402000", "092302.405000", "092302.407000", "092302.410000", "092302.413000", "092302.415000", "092302.418000", "092302.420000", "092302.423000", "092302.425000", "092342.376000", "092342.379000", "092342.382000", "092342.385000", "092342.388000", "092342.390000", "092342.393000", "092342.395000", "092342.398000", "092342.400000", "092342.403000", "092342.406000", "092342.408000", "092342.411000", "092342.413000", "092342.416000", "092342.418000", "092342.421000", "092342.423000", "092342.426000", "092422.376000", "092422.379000", "092422.382000", "092422.385000", "092422.387000", "092422.390000", "092422.392000", "092422.395000", "092422.397000", "092422.400000", "092422.403000", "092422.405000", "092422.408000", "092422.410000", "092422.413000", "092422.415000", "092422.418000", "092422.421000", "092422.423000", "092422.426000", "092502.376000", "092502.379000", "092502.382000", "092502.385000", "092502.387000", "092502.390000", "092502.392000", "092502.395000", "092502.398000", "092502.400000", "092502.403000", "092502.405000", "092502.408000", "092502.410000", "092502.413000", "092502.416000", "092502.419000", "092502.421000", "092502.424000", "092502.426000", "092522.376000", "092522.379000", "092522.382000", "092522.385000", "092522.387000", "092522.390000", "092522.392000", "092522.395000", "092522.398000", "092522.400000", "092602.376000", "092602.380000", "092602.382000", "092602.385000", "092602.387000", "092602.390000", "092602.393000", "092602.395000", "092602.398000", "092602.400000", "092602.403000", "092602.405000", "092602.408000", "092602.410000", "092602.413000", "092602.415000", "092602.418000", "092602.420000", "092602.423000", "092602.433000", "092642.390000", "092642.393000", "092642.396000", "092642.398000", "092642.401000", "092642.403000", "092642.406000", "092642.408000", "092642.411000", "092642.413000", "092642.416000", "092642.418000", "092642.421000", "092642.423000", "092642.426000", "092642.428000", "092642.431000", "092642.433000", "092642.436000", "092642.438000", "092722.376000", "092722.379000", "092722.382000", "092722.384000", "092722.387000", "092722.390000", "092722.392000", "092722.395000", "092722.397000", "092722.399000", "092722.402000", "092722.404000", "092722.407000", "092722.410000", "092722.412000", "092722.415000", "092722.417000", "092722.420000", "092722.422000", "092722.425000", "092723.267000"],
      "InstanceCreationTime": ["092142.397000", "092142.400000", "092142.403000", "092142.406000", "092142.409000", "092142.411000", "092142.414000", "092142.416000", "092142.419000", "092142.429000", "092142.432000", "092142.435000", "092142.437000", "092142.440000", "092142.443000", "092142.445000", "092142.448000", "092142.450000", "092142.453000", "092142.455000", "092142.458000", "092142.460000", "092142.463000", "092142.465000", "092142.468000", "092142.470000", "092142.473000", "092142.475000", "092142.478000", "092222.375000", "092222.379000", "092222.381000", "092222.384000", "092222.387000", "092222.389000", "092222.392000", "092222.394000", "092222.397000", "092222.399000", "092222.402000", "092222.405000", "092222.407000", "092222.410000", "092222.412000", "092222.415000", "092222.418000", "092222.420000", "092222.423000", "092222.426000", "092302.376000", "092302.379000", "092302.382000", "092302.384000", "092302.387000", "092302.390000", "092302.392000", "092302.395000", "092302.397000", "092302.400000", "092302.402000", "092302.405000", "092302.407000", "092302.410000", "092302.413000", "092302.415000", "092302.418000", "092302.420000", "092302.423000", "092302.425000", "092342.376000", "092342.379000", "092342.382000", "092342.385000", "092342.388000", "092342.390000", "092342.393000", "092342.395000", "092342.398000", "092342.400000", "092342.403000", "092342.406000", "092342.408000", "092342.411000", "092342.413000", "092342.416000", "092342.418000", "092342.421000", "092342.423000", "092342.426000", "092422.376000", "092422.379000", "092422.382000", "092422.385000", "092422.387000", "092422.390000", "092422.392000", "092422.395000", "092422.397000", "092422.400000", "092422.403000", "092422.405000", "092422.408000", "092422.410000", "092422.413000", "092422.415000", "092422.418000", "092422.421000", "092422.423000", "092422.426000", "092502.376000", "092502.379000", "092502.382000", "092502.385000", "092502.387000", "092502.390000", "092502.392000", "092502.395000", "092502.398000", "092502.400000", "092502.403000", "092502.405000", "092502.408000", "092502.410000", "092502.413000", "092502.416000", "092502.419000", "092502.421000", "092502.424000", "092502.426000", "092522.376000", "092522.379000", "092522.382000", "092522.385000", "092522.387000", "092522.390000", "092522.392000", "092522.395000", "092522.398000", "092522.400000", "092602.376000", "092602.380000", "092602.382000", "092602.385000", "092602.387000", "092602.390000", "092602.393000", "092602.395000", "092602.398000", "092602.400000", "092602.403000", "092602.405000", "092602.408000", "092602.410000", "092602.413000", "092602.415000", "092602.418000", "092602.420000", "092602.423000", "092602.433000", "092642.390000", "092642.393000", "092642.396000", "092642.398000", "092642.401000", "092642.403000", "092642.406000", "092642.408000", "092642.411000", "092642.413000", "092642.416000", "092642.418000", "092642.421000", "092642.423000", "092642.426000", "092642.428000", "092642.431000", "092642.433000", "092642.436000", "092642.438000", "092722.376000", "092722.379000", "092722.382000", "092722.384000", "092722.387000", "092722.390000", "092722.392000", "092722.395000", "092722.397000", "092722.399000", "092722.402000", "092722.404000", "092722.407000", "092722.410000", "092722.412000", "092722.415000", "092722.417000", "092722.420000", "092722.422000", "092722.425000", "092723.267000"],
      "InstanceNumber": [1, 2, 3, 4, 5, 6, 7, 8, 9, 10, 11, 12, 13, 14, 15, 16, 17, 18, 19, 20, 21, 22, 23, 24, 25, 26, 27, 28, 29, 30, 31, 32, 33, 34, 35, 36, 37, 38, 39, 40, 41, 42, 43, 44, 45, 46, 47, 48, 49, 50, 51, 52, 53, 54, 55, 56, 57, 58, 59, 60, 61, 62, 63, 64, 65, 66, 67, 68, 69, 70, 71, 72, 73, 74, 75, 76, 77, 78, 79, 80, 81, 82, 83, 84, 85, 86, 87, 88, 89, 90, 91, 92, 93, 94, 95, 96, 97, 98, 99, 100, 101, 102, 103, 104, 105, 106, 107, 108, 109, 110, 111, 112, 113, 114, 115, 116, 117, 118, 119, 120, 121, 122, 123, 124, 125, 126, 127, 128, 129, 130, 131, 132, 133, 134, 135, 136, 137, 138, 139, 140, 141, 142, 143, 144, 145, 146, 147, 148, 149, 150, 151, 152, 153, 154, 155, 156, 157, 158, 159, 160, 161, 162, 163, 164, 165, 166, 167, 168, 169, 170, 171, 172, 173, 174, 175, 176, 177, 178, 179, 180, 181, 182, 183, 184, 185, 186, 187, 188, 189, 190, 191, 192, 193, 194, 195, 196, 197, 198, 199, 200],
      "LargestImagePixelValue": [2278, 2266, 2266, 2270, 2273, 2269, 2263, 2267, 2273, 2270, 2269, 2265, 2263, 2269, 2270, 2265, 2267, 2268, 2265, 2256, 2266, 2265, 2267, 2262, 2269, 2265, 2273, 2267, 2268, 2265, 2274, 2262, 2269, 2266, 2263, 2267, 2266, 2264, 2266, 2270, 2270, 2269, 2274, 2263, 2262, 2262, 2268, 2267, 2263, 2268, 2267, 2275, 2273, 2268, 2269, 2266, 2260, 2265, 2257, 2267, 2266, 2269, 2270, 2269, 2265, 2269, 2264, 2259, 2268, 2268, 2273, 2271, 2275, 2272, 2264, 2266, 2271, 2267, 2272, 2266, 2270, 2269, 2269, 2270, 2267, 2272, 2265, 2260, 2271, 2262, 2272, 2266, 2263, 2266, 2263, 2264, 2276, 2266, 2268, 2271, 2272, 2275, 2264, 2266, 2265, 2271, 2270, 2263, 2267, 2275, 2272, 2266, 2269, 2272, 2270, 2264, 2273, 2267, 2270, 2269, 2265, 2271, 2269, 2264, 2273, 2270, 2275, 2274, 2268, 2273, 2274, 2261, 2262, 2273, 2272, 2270, 2266, 2267, 2266, 2271, 2266, 2271, 2270, 2273, 2273, 2269, 2278, 2263, 2265, 2266, 2263, 2265, 2267, 2274, 2265, 2271, 2277, 2273, 2276, 2267, 2266, 2268, 2263, 2268, 2272, 2264, 2267, 2275, 2274, 2277, 2269, 2275, 2273, 2265, 2262, 2268, 2266, 2274, 2265, 2264, 2263, 2267, 2269, 2267, 2272, 2271, 2269, 2275, 2270, 2265, 2267, 2275, 2262, 2276, 2278, 2265, 2264, 2272, 2272, 2261],
      "WindowCenter": [978.0, 978.0, 977.0, 978.0, 978.0, 978.0, 978.0, 978.0, 978.0, 978.0, 978.0, 978.0, 977.0, 977.0, 977.0, 978.0, 978.0, 977.0, 978.0, 978.0, 978.0, 977.0, 977.0, 977.0, 977.0, 978.0, 978.0, 977.0, 977.0, 977.0, 977.0, 977.0, 977.0, 977.0, 977.0, 977.0, 977.0, 977.0, 978.0, 977.0, 977.0, 978.0, 977.0, 977.0, 977.0, 977.0, 977.0, 977.0, 977.0, 977.0, 977.0, 977.0, 977.0, 977.0, 977.0, 977.0, 977.0, 977.0, 977.0, 977.0, 977.0, 977.0, 977.0, 977.0, 977.0, 977.0, 977.0, 977.0, 977.0, 977.0, 977.0, 977.0, 977.0, 977.0, 977.0, 977.0, 977.0, 977.0, 977.0, 977.0, 977.0, 977.0, 977.0, 977.0, 977.0, 977.0, 977.0, 977.0, 977.0, 977.0, 977.0, 977.0, 977.0, 977.0, 977.0, 977.0, 977.0, 977.0, 977.0, 977.0, 977.0, 977.0, 977.0, 977.0, 977.0, 977.0, 977.0, 977.0, 977.0, 977.0, 977.0, 977.0, 977.0, 977.0, 977.0, 977.0, 977.0, 977.0, 977.0, 977.0, 977.0, 977.0, 977.0, 977.0, 977.0, 977.0, 977.0, 977.0, 977.0, 977.0, 977.0, 977.0, 977.0, 977.0, 977.0, 977.0, 977.0, 977.0, 977.0, 977.0, 977.0, 977.0, 977.0, 977.0, 977.0, 977.0, 977.0, 977.0, 977.0, 977.0, 977.0, 977.0, 977.0, 977.0, 977.0, 977.0, 977.0, 977.0, 977.0, 977.0, 977.0, 977.0, 977.0, 977.0, 978.0, 977.0, 977.0, 977.0, 977.0, 977.0, 977.0, 977.0, 977.0, 977.0, 977.0, 977.0, 977.0, 977.0, 977.0, 977.0, 977.0, 977.0, 977.0, 977.0, 977.0, 977.0, 977.0, 977.0, 977.0, 977.0, 977.0, 977.0, 977.0, 977.0, 977.0, 977.0, 977.0, 977.0, 977.0, 977.0],
      "WindowWidth": [2131.0, 2130.0, 2130.0, 2130.0, 2130.0, 2130.0, 2130.0, 2130.0, 2130.0, 2130.0, 2130.0, 2130.0, 2130.0, 2130.0, 2130.0, 2130.0, 2130.0, 2130.0, 2131.0, 2130.0, 2130.0, 2130.0, 2130.0, 2130.0, 2130.0, 2130.0, 2130.0, 2130.0, 2130.0, 2130.0, 2130.0, 2130.0, 2130.0, 2130.0, 2130.0, 2130.0, 2130.0, 2130.0, 2130.0, 2130.0, 2130.0, 2130.0, 2130.0, 2130.0, 2130.0, 2130.0, 2130.0, 2130.0, 2130.0, 2130.0, 2130.0, 2130.0, 2130.0, 2130.0, 2130.0, 2130.0, 2130.0, 2130.0, 2130.0, 2130.0, 2130.0, 2130.0, 2130.0, 2130.0, 2130.0, 2131.0, 2130.0, 2130.0, 2130.0, 2130.0, 2130.0, 2130.0, 2130.0, 2130.0, 2130.0, 2131.0, 2130.0, 2130.0, 2130.0, 2130.0, 2130.0, 2130.0, 2130.0, 2130.0, 2130.0, 2130.0, 2130.0, 2130.0, 2130.0, 2130.0, 2130.0, 2130.0, 2130.0, 2130.0, 2130.0, 2130.0, 2130.0, 2130.0, 2130.0, 2130.0, 2130.0, 2130.0, 2130.0, 2130.0, 2130.0, 2130.0, 2130.0, 2130.0, 2129.0, 2130.0, 2130.0, 2130.0, 2130.0, 2129.0, 2130.0, 2130.0, 2130.0, 2130.0, 2130.0, 2130.0, 2130.0, 2130.0, 2130.0, 2130.0, 2130.0, 2130.0, 2130.0, 2130.0, 2130.0, 2130.0, 2130.0, 2130.0, 2130.0, 2130.0, 2130.0, 2129.0, 2129.0, 2129.0, 2129.0, 2130.0, 2130.0, 2130.0, 2130.0, 2130.0, 2129.0, 2130.0, 2129.0, 2130.0, 2129.0, 2129.0, 2129.0, 2129.0, 2130.0, 2130.0, 2129.0, 2129.0, 2130.0, 2130.0, 2129.0, 2130.0, 2129.0, 2130.0, 2130.0, 2130.0, 2130.0, 2130.0, 2129.0, 2129.0, 2130.0, 2130.0, 2129.0, 2129.0, 2129.0, 2129.0, 2130.0, 2129.0, 2129.0, 2129.0, 2129.0, 2130.0, 2129.0, 2129.0, 2129.0, 2129.0, 2129.0, 2129.0, 2129.0, 2129.0, 2129.0, 2129.0, 2129.0, 2129.0, 2129.0, 2129.0, 2129.0, 2129.0, 2129.0, 2129.0, 2129.0, 2129.0]
    },
    "slices": {}
  }
}