{
  "AcquisitionMatrixPE": 80,
  "AcquisitionNumber": 1,
  "AcquisitionTime": "09:27:38.232500",
  "BandwidthPerPixelPhaseEncode": 44.643,
  "BaseResolution": 80,
  "BodyPartExamined": "BRAIN",
  "CoilCombinationMethod": "Sum of Squares",
  "ConsistencyInfo": "N4_VE11C_LATEST_20160120",
  "ConversionSoftware": "dcm2niix",
  "ConversionSoftwareVersion": "v1.0.20220720",
  "DerivedVendorReportedEchoSpacing": 0.000559998,
  "DeviceSerialNumber": "66112",
  "DwellTime": 2.7e-06,
  "EchoTime": 0.035,
  "EchoTrainLength": 39,
  "EffectiveEchoSpacing": 0.000279999,
  "FlipAngle": 90,
  "HeudiconvVersion": "0.13.1",
  "ImageOrientationPatientDICOM": [0.981973, -0.189016, 0.00161119, 0.179517, 0.935227, 0.305161],
  "ImageOrientationText": "Tra>Cor(17.5)>Sag(3.4)",
  "ImageType": [
    "ORIGINAL",
    "PRIMARY",
    "M",
    "ND",
    "NORM",
    "MOSAIC"
],
  "ImagingFrequency": 123.252,
  "InPlanePhaseEncodingDirectionDICOM": "COL",
  "InstitutionAddress": "Maynard 3,Hanover,NH,US,03755",
  "InstitutionName": "Dartmouth College - PBS",
  "InstitutionalDepartmentName": "Department",
  "MRAcquisitionType": "2D",
  "MagneticFieldStrength": 3,
  "Manufacturer": "Siemens",
  "ManufacturersModelName": "Prisma",
  "Modality": "MR",
  "MultibandAccelerationFactor": 4,
  "NonlinearGradientCorrection": false,
  "ParallelReductionFactorInPlane": 2,
  "PartialFourier": 1,
  "PatientPosition": "HFS",
  "PercentPhaseFOV": 100,
  "PercentSampling": 100,
  "PhaseEncodingDirection": "j-",
  "PhaseEncodingSteps": 79,
  "PhaseResolution": 1,
  "PixelBandwidth": 2315,
  "ProcedureStepDescription": "dbic^QA",
  "ProtocolName": "func-bold_task-rest_acq-p2-s4-3.5mm",
  "PulseSequenceDetails": "%SiemensSeq%\\ep2d_bold",
  "ReceiveCoilActiveElements": "HEA;HEP",
  "ReceiveCoilName": "Head_32",
  "ReconMatrixPE": 80,
  "RefLinesPE": 24,
  "RepetitionTime": 2,
  "SAR": 0.0208443,
  "ScanOptions": "FS",
  "ScanningSequence": "EP",
  "SequenceName": "*epfid2d1_80",
  "SequenceVariant": "SK",
  "SeriesDescription": "func-bold_task-rest_acq-p2-s4-3.5mm",
  "SeriesNumber": 7,
  "ShimSetting": [4147, -7696, -7507, 328, -82, -135, -51, 96],
  "SliceThickness": 3.5,
  "SliceTiming": [1.485, 0, 0.99, 0.2475, 1.2375, 0.7425, 1.7325, 0.495, 1.485, 0, 0.99, 0.2475, 1.2375, 0.7425, 1.7325, 0.495, 1.485, 0, 0.99, 0.2475, 1.2375, 0.7425, 1.7325, 0.495, 1.485, 0, 0.99, 0.2475, 1.2375, 0.7425, 1.7325, 0.495],
  "SoftwareVersions": "syngo MR E11",
  "SpacingBetweenSlices": 3.99,
  "StationName": "AWP66112",
  "TaskName": "rest",
  "TotalReadoutTime": 0.0221199,
  "TxRefAmp": 235.016,
  "dcmmeta_affine": [
    [-2.945918083190918, 0.5385517477989197, 0.23615652322769165, 89.17121887207031],
    [0.5670472979545593, 2.8056821823120117, 1.1944891214370728, -145.3925018310547],
    [0.004833572078496218, -0.9154834747314453, 3.7996745109558105, -26.909595489501953],
    [0.0, 0.0, 0.0, 1.0]
],
  "dcmmeta_reorient_transform": [
    [0.0, -1.0, 0.0, 79.0],
    [1.0, 0.0, 0.0, 0.0],
    [0.0, 0.0, 1.0, 0.0],
    [0.0, 0.0, 0.0, 1.0]
],
  "dcmmeta_shape": [80, 80, 32, 200],
  "dcmmeta_slice_dim": 2,
  "dcmmeta_version": 0.6,
  "global": {
    "const": {
      "AccessionNumber": "qa",
      "AcquisitionMatrix": [80, 0, 0, 80],
      "AngioFlag": "N",
      "BitsAllocated": 16,
      "BitsStored": 12,
      "BodyPartExamined": "BRAIN",
      "Columns": 480,
      "EchoNumbers": 1,
      "EchoTime": 35.0,
      "EchoTrainLength": 39,
      "FlipAngle": 90.0,
      "HighBit": 11,
      "ImageOrientationPatient": [0.98197273283249, -0.1890157560578, 0.00161119067166, 0.17951723976521, 0.93522736429424, 0.30516116676656],
      "ImagePositionPatient": [-828.61078867412, -523.98335265069, -283.29620615068],
      "ImageType": [
        "ORIGINAL",
        "PRIMARY",
        "M",
        "ND",
        "NORM",
        "MOSAIC"
],
      "ImagedNucleus": "1H",
      "ImagingFrequency": 123.252472,
      "InPlanePhaseEncodingDirection": "COL",
      "MRAcquisitionType": "2D",
      "MagneticFieldStrength": 3.0,
      "Manufacturer": "SIEMENS",
      "ManufacturerModelName": "Prisma",
      "Modality": "MR",
      "NumberOfAverages": 1.0,
      "NumberOfPhaseEncodingSteps": 79,
      "PercentPhaseFieldOfView": 100.0,
      "PercentSampling": 100.0,
      "PerformedProcedureStepStartTime": "091620.721000",
      "PhotometricInterpretation": "MONOCHROME2",
      "PixelBandwidth": 2315.0,
      "PixelRepresentation": 0,
      "PixelSpacing": [3.0, 3.0],
      "ProtocolName": "func-bold_task-rest_acq-p2-s4-3.5mm",
      "RepetitionTime": 2000.0,
      "Rows": 480,
      "SAR": 0.02084432937713,
      "SamplesPerPixel": 1,
      "ScanOptions": "FS",
      "ScanningSequence": "EP",
      "SequenceName": "*epfid2d1_80",
      "SequenceVariant": "SK",
      "SeriesDescription": "func-bold_task-rest_acq-p2-s4-3.5mm",
      "SeriesNumber": 7,
      "SeriesTime": "092822.450000",
      "SliceLocation": -63.874459476634,
      "SliceThickness": 3.5,
      "SmallestImagePixelValue": 0,
      "SoftwareVersions": "syngo MR E11",
      "SpacingBetweenSlices": 3.9900000568776,
      "SpecificCharacterSet": "ISO_IR 100",
      "StudyID": "61",
      "StudyTime": "091620.638000",
      "TransmitCoilName": "Body",
      "VariableFlipAngleFlag": "N",
      "WindowCenter": 914.0,
      "WindowCenterWidthExplanation": "Algo1",
      "dBdt": 0.0},
    "slices": {}
  },
  "time": {
    "samples": {
      "AcquisitionNumber": [1, 2, 3, 4, 5, 6, 7, 8, 9, 10, 11, 12, 13, 14, 15, 16, 17, 18, 19, 20, 21, 22, 23, 24, 25, 26, 27, 28, 29, 30, 31, 32, 33, 34, 35, 36, 37, 38, 39, 40, 41, 42, 43, 44, 45, 46, 47, 48, 49, 50, 51, 52, 53, 54, 55, 56, 57, 58, 59, 60, 61, 62, 63, 64, 65, 66, 67, 68, 69, 70, 71, 72, 73, 74, 75, 76, 77, 78, 79, 80, 81, 82, 83, 84, 85, 86, 87, 88, 89, 90, 91, 92, 93, 94, 95, 96, 97, 98, 99, 100, 101, 102, 103, 104, 105, 106, 107, 108, 109, 110, 111, 112, 113, 114, 115, 116, 117, 118, 119, 120, 121, 122, 123, 124, 125, 126, 127, 128, 129, 130, 131, 132, 133, 134, 135, 136, 137, 138, 139, 140, 141, 142, 143, 144, 145, 146, 147, 148, 149, 150, 151, 152, 153, 154, 155, 156, 157, 158, 159, 160, 161, 162, 163, 164, 165, 166, 167, 168, 169, 170, 171, 172, 173, 174, 175, 176, 177, 178, 179, 180, 181, 182, 183, 184, 185, 186, 187, 188, 189, 190, 191, 192, 193, 194, 195, 196, 197, 198, 199, 200],
      "AcquisitionTime": ["092738.232500", "092740.232500", "092742.232500", "092744.232500", "092746.232500", "092748.232500", "092750.232500", "092752.232500", "092754.232500", "092756.232500", "092758.232500", "092800.232500", "092802.232500", "092804.232500", "092806.232500", "092808.232500", "092810.232500", "092812.232500", "092814.232500", "092816.232500", "092818.232500", "092820.232500", "092822.232500", "092824.232500", "092826.232500", "092828.232500", "092830.232500", "092832.232500", "092834.232500", "092836.232500", "092838.232500", "092840.232500", "092842.232500", "092844.232500", "092846.232500", "092848.232500", "092850.232500", "092852.232500", "092854.232500", "092856.232500", "092858.232500", "092900.232500", "092902.232500", "092904.232500", "092906.232500", "092908.232500", "092910.232500", "092912.232500", "092914.232500", "092916.232500", "092918.232500", "092920.232500", "092922.232500", "092924.232500", "092926.232500", "092928.232500", "092930.232500", "092932.232500", "092934.232500", "092936.232500", "092938.232500", "092940.232500", "092942.232500", "092944.232500", "092946.232500", "092948.232500", "092950.232500", "092952.232500", "092954.232500", "092956.232500", "092958.232500", "093000.232500", "093002.232500", "093004.232500", "093006.232500", "093008.232500", "093010.232500", "093012.232500", "093014.232500", "093016.232500", "093018.232500", "093020.232500", "093022.232500", "093024.232500", "093026.232500", "093028.232500", "093030.232500", "093032.232500", "093034.232500", "093036.232500", "093038.232500", "093040.232500", "093042.232500", "093044.232500", "093046.232500", "093048.232500", "093050.232500", "093052.232500", "093054.232500", "093056.232500", "093058.232500", "093100.232500", "093102.232500", "093104.232500", "093106.232500", "093108.232500", "093110.232500", "093112.232500", "093114.232500", "093116.232500", "093118.232500", "093120.232500", "093122.232500", "093124.232500", "093126.232500", "093128.232500", "093130.232500", "093132.232500", "093134.232500", "093136.232500", "093138.232500", "093140.232500", "093142.232500", "093144.232500", "093146.232500", "093148.232500", "093150.232500", "093152.232500", "093154.232500", "093156.232500", "093158.232500", "093200.232500", "093202.232500", "093204.232500", "093206.232500", "093208.232500", "093210.232500", "093212.232500", "093214.232500", "093216.232500", "093218.232500", "093220.232500", "093222.232500", "093224.232500", "093226.232500", "093228.232500", "093230.232500", "093232.232500", "093234.232500", "093236.232500", "093238.232500", "093240.232500", "093242.232500", "093244.232500", "093246.232500", "093248.232500", "093250.232500", "093252.232500", "093254.232500", "093256.232500", "093258.232500", "093300.232500", "093302.232500", "093304.232500", "093306.232500", "093308.232500", "093310.232500", "093312.232500", "093314.232500", "093316.232500", "093318.232500", "093320.232500", "093322.232500", "093324.232500", "093326.232500", "093328.232500", "093330.232500", "093332.232500", "093334.232500", "093336.232500", "093338.232500", "093340.232500", "093342.232500", "093344.232500", "093346.232500", "093348.232500", "093350.232500", "093352.232500", "093354.232500", "093356.232500", "093358.232500", "093400.232500", "093402.232500", "093404.232500", "093406.232500", "093408.232500", "093410.232500", "093412.232500", "093414.232500", "093416.232500"],
      "ContentTime": ["092822.453000", "092822.457000", "092822.459000", "092822.462000", "092822.464000", "092822.467000", "092822.469000", "092822.472000", "092822.474000", "092822.477000", "092822.480000", "092822.482000", "092822.485000", "092822.487000", "092822.490000", "092822.492000", "092822.495000", "092822.506000", "092822.508000", "092822.511000", "092822.514000", "092822.516000", "092902.448000", "092902.451000", "092902.454000", "092902.456000", "092902.459000", "092902.461000", "092902.464000", "092902.466000", "092902.469000", "092902.472000", "092902.474000", "092902.477000", "092902.479000", "092902.482000", "092902.485000", "092902.487000", "092902.490000", "092902.492000", "092902.495000", "092902.497000", "092942.448000", "092942.451000", "092942.454000", "092942.456000", "092942.459000", "092942.461000", "092942.464000", "092942.466000", "092942.469000", "092942.472000", "092942.474000", "092942.477000", "092942.480000", "092942.482000", "092942.485000", "092942.487000", "092942.490000", "092942.492000", "092942.495000", "092942.498000", "093022.449000", "093022.452000", "093022.454000", "093022.457000", "093022.459000", "093022.462000", "093022.464000", "093022.467000", "093022.470000", "093022.472000", "093022.475000", "093022.477000", "093022.480000", "093022.482000", "093022.485000", "093022.487000", "093022.490000", "093022.493000", "093022.495000", "093022.498000", "093102.448000", "093102.451000", "093102.454000", "093102.457000", "093102.459000", "093102.462000", "093102.464000", "093102.467000", "093102.469000", "093102.472000", "093102.474000", "093102.477000", "093102.479000", "093102.482000", "093102.484000", "093102.487000", "093102.490000", "093102.492000", "093102.495000", "093102.497000", "093142.447000", "093142.450000", "093142.453000", "093142.455000", "093142.458000", "093142.460000", "093142.463000", "093142.466000", "093142.468000", "093142.471000", "093142.473000", "093142.476000", "093142.479000", "093142.481000", "093142.484000", "093142.487000", "093142.489000", "093142.492000", "093142.494000", "093142.497000", "093222.448000", "093222.456000", "093222.474000", "093222.476000", "093222.479000", "093222.482000", "093222.484000", "093222.487000", "093222.489000", "093222.492000", "093222.495000", "093222.497000", "093222.500000", "093222.502000", "093222.505000", "093222.507000", "093222.510000", "093222.513000", "093222.515000", "093222.518000", "093302.448000", "093302.451000", "093302.454000", "093302.457000", "093302.459000", "093302.462000", "093302.464000", "093302.467000", "093302.469000", "093302.472000", "093302.474000", "093302.477000", "093302.479000", "093302.482000", "093302.484000", "093302.487000", "093302.489000", "093302.492000", "093302.494000", "093302.497000", "093342.447000", "093342.450000", "093342.453000", "093342.456000", "093342.458000", "093342.461000", "093342.463000", "093342.466000", "093342.468000", "093342.471000", "093342.474000", "093342.476000", "093342.479000", "093342.481000", "093342.484000", "093342.486000", "093342.489000", "093342.492000", "093342.502000", "093342.505000", "093417.409000", "093417.412000", "093417.415000", "093417.417000", "093417.420000", "093417.423000", "093417.425000", "093417.428000", "093417.431000", "093417.433000", "093417.436000", "093417.439000", "093417.449000", "093417.452000", "093417.456000", "093417.459000", "093417.463000", "093417.466000"],
      "InstanceCreationTime": ["092822.453000", "092822.457000", "092822.459000", "092822.462000", "092822.464000", "092822.467000", "092822.469000", "092822.472000", "092822.474000", "092822.477000", "092822.480000", "092822.482000", "092822.485000", "092822.487000", "092822.490000", "092822.492000", "092822.495000", "092822.506000", "092822.508000", "092822.511000", "092822.514000", "092822.516000", "092902.448000", "092902.451000", "092902.454000", "092902.456000", "092902.459000", "092902.461000", "092902.464000", "092902.466000", "092902.469000", "092902.472000", "092902.474000", "092902.477000", "092902.479000", "092902.482000", "092902.485000", "092902.487000", "092902.490000", "092902.492000", "092902.495000", "092902.497000", "092942.448000", "092942.451000", "092942.454000", "092942.456000", "092942.459000", "092942.461000", "092942.464000", "092942.466000", "092942.469000", "092942.472000", "092942.474000", "092942.477000", "092942.480000", "092942.482000", "092942.485000", "092942.487000", "092942.490000", "092942.492000", "092942.495000", "092942.498000", "093022.449000", "093022.452000", "093022.454000", "093022.457000", "093022.459000", "093022.462000", "093022.464000", "093022.467000", "093022.470000", "093022.472000", "093022.475000", "093022.477000", "093022.480000", "093022.482000", "093022.485000", "093022.487000", "093022.490000", "093022.493000", "093022.495000", "093022.498000", "093102.448000", "093102.451000", "093102.454000", "093102.457000", "093102.459000", "093102.462000", "093102.464000", "093102.467000", "093102.469000", "093102.472000", "093102.474000", "093102.477000", "093102.479000", "093102.482000", "093102.484000", "093102.487000", "093102.490000", "093102.492000", "093102.495000", "093102.497000", "093142.447000", "093142.450000", "093142.453000", "093142.455000", "093142.458000", "093142.460000", "093142.463000", "093142.466000", "093142.468000", "093142.471000", "093142.473000", "093142.476000", "093142.479000", "093142.481000", "093142.484000", "093142.487000", "093142.489000", "093142.492000", "093142.494000", "093142.497000", "093222.448000", "093222.456000", "093222.474000", "093222.476000", "093222.479000", "093222.482000", "093222.484000", "093222.487000", "093222.489000", "093222.492000", "093222.495000", "093222.497000", "093222.500000", "093222.502000", "093222.505000", "093222.507000", "093222.510000", "093222.513000", "093222.515000", "093222.518000", "093302.448000", "093302.451000", "093302.454000", "093302.457000", "093302.459000", "093302.462000", "093302.464000", "093302.467000", "093302.469000", "093302.472000", "093302.474000", "093302.477000", "093302.479000", "093302.482000", "093302.484000", "093302.487000", "093302.489000", "093302.492000", "093302.494000", "093302.497000", "093342.447000", "093342.450000", "093342.453000", "093342.456000", "093342.458000", "093342.461000", "093342.463000", "093342.466000", "093342.468000", "093342.471000", "093342.474000", "093342.476000", "093342.479000", "093342.481000", "093342.484000", "093342.486000", "093342.489000", "093342.492000", "093342.502000", "093342.505000", "093417.409000", "093417.412000", "093417.415000", "093417.417000", "093417.420000", "093417.423000", "093417.425000", "093417.428000", "093417.431000", "093417.433000", "093417.436000", "093417.439000", "093417.449000", "093417.452000", "093417.456000", "093417.459000", "093417.463000", "093417.466000"],
      "InstanceNumber": [1, 2, 3, 4, 5, 6, 7, 8, 9, 10, 11, 12, 13, 14, 15, 16, 17, 18, 19, 20, 21, 22, 23, 24, 25, 26, 27, 28, 29, 30, 31, 32, 33, 34, 35, 36, 37, 38, 39, 40, 41, 42, 43, 44, 45, 46, 47, 48, 49, 50, 51, 52, 53, 54, 55, 56, 57, 58, 59, 60, 61, 62, 63, 64, 65, 66, 67, 68, 69, 70, 71, 72, 73, 74, 75, 76, 77, 78, 79, 80, 81, 82, 83, 84, 85, 86, 87, 88, 89, 90, 91, 92, 93, 94, 95, 96, 97, 98, 99, 100, 101, 102, 103, 104, 105, 106, 107, 108, 109, 110, 111, 112, 113, 114, 115, 116, 117, 118, 119, 120, 121, 122, 123, 124, 125, 126, 127, 128, 129, 130, 131, 132, 133, 134, 135, 136, 137, 138, 139, 140, 141, 142, 143, 144, 145, 146, 147, 148, 149, 150, 151, 152, 153, 154, 155, 156, 157, 158, 159, 160, 161, 162, 163, 164, 165, 166, 167, 168, 169, 170, 171, 172, 173, 174, 175, 176, 177, 178, 179, 180, 181, 182, 183, 184, 185, 186, 187, 188, 189, 190, 191, 192, 193, 194, 195, 196, 197, 198, 199, 200],
      "LargestImagePixelValue": [2234, 2234, 2234, 2237, 2236, 2234, 2236, 2237, 2236, 2237, 2236, 2232, 2245, 2238, 2230, 2240, 2231, 2230, 2227, 2233, 2232, 2231, 2242, 2232, 2237, 2239, 2237, 2236, 2235, 2233, 2239, 2237, 2236, 2230, 2240, 2236, 2239, 2242, 2240, 2236, 2232, 2240, 2234, 2241, 2232, 2234, 2245, 2237, 2241, 2234, 2232, 2238, 2235, 2238, 2231, 2232, 2233, 2235, 2234, 2231, 2238, 2238, 2246, 2239, 2238, 2237, 2241, 2237, 2233, 2238, 2237, 2234, 2234, 2234, 2242, 2240, 2242, 2235, 2234, 2235, 2234, 2238, 2238, 2238, 2236, 2238, 2240, 2236, 2238, 2233, 2240, 2232, 2242, 2239, 2237, 2240, 2232, 2232, 2233, 2241, 2238, 2231, 2239, 2230, 2234, 2235, 2238, 2235, 2241, 2242, 2233, 2242, 2229, 2241, 2239, 2239, 2237, 2235, 2240, 2237, 2236, 2238, 2240, 2238, 2238, 2238, 2243, 2239, 2237, 2234, 2233, 2240, 2241, 2238, 2233, 2237, 2242, 2242, 2236, 2237, 2234, 2237, 2238, 2233, 2234, 2235, 2238, 2241, 2243, 2241, 2242, 2234, 2238, 2233, 2243, 2238, 2233, 2238, 2237, 2236, 2243, 2234, 2238, 2240, 2239, 2243, 2240, 2238, 2237, 2235, 2238, 2237, 2233, 2237, 2233, 2239, 2242, 2237, 2237, 2242, 2239, 2235, 2235, 2241, 2237, 2241, 2237, 2237, 2239, 2236, 2232, 2239, 2241, 2236, 2231, 2238, 2234, 2237, 2236, 2239],
      "WindowWidth": [2067.0, 2067.0, 2068.0, 2067.0, 2068.0, 2067.0, 2068.0, 2068.0, 2067.0, 2068.0, 2068.0, 2067.0, 2067.0, 2067.0, 2067.0, 2068.0, 2067.0, 2068.0, 2067.0, 2067.0, 2067.0, 2068.0, 2068.0, 2068.0, 2068.0, 2068.0, 2068.0, 2068.0, 2067.0, 2068.0, 2067.0, 2067.0, 2068.0, 2068.0, 2067.0, 2068.0, 2068.0, 2068.0, 2067.0, 2068.0, 2067.0, 2067.0, 2068.0, 2067.0, 2068.0, 2068.0, 2068.0, 2067.0, 2068.0, 2067.0, 2067.0, 2067.0, 2068.0, 2068.0, 2068.0, 2067.0, 2068.0, 2068.0, 2068.0, 2068.0, 2067.0, 2068.0, 2068.0, 2068.0, 2068.0, 2068.0, 2068.0, 2068.0, 2068.0, 2068.0, 2068.0, 2068.0, 2068.0, 2068.0, 2068.0, 2068.0, 2068.0, 2068.0, 2068.0, 2068.0, 2068.0, 2068.0, 2068.0, 2068.0, 2068.0, 2068.0, 2068.0, 2068.0, 2068.0, 2068.0, 2068.0, 2069.0, 2068.0, 2068.0, 2068.0, 2068.0, 2068.0, 2068.0, 2068.0, 2068.0, 2068.0, 2068.0, 2068.0, 2068.0, 2068.0, 2068.0, 2067.0, 2068.0, 2068.0, 2068.0, 2068.0, 2068.0, 2068.0, 2068.0, 2068.0, 2068.0, 2068.0, 2068.0, 2067.0, 2068.0, 2068.0, 2068.0, 2068.0, 2068.0, 2068.0, 2068.0, 2068.0, 2068.0, 2068.0, 2068.0, 2068.0, 2068.0, 2068.0, 2068.0, 2067.0, 2068.0, 2068.0, 2068.0, 2068.0, 2068.0, 2068.0, 2068.0, 2067.0, 2068.0, 2068.0, 2067.0, 2067.0, 2068.0, 2068.0, 2068.0, 2067.0, 2067.0, 2068.0, 2068.0, 2068.0, 2068.0, 2068.0, 2068.0, 2068.0, 2068.0, 2068.0, 2068.0, 2068.0, 2068.0, 2068.0, 2068.0, 2068.0, 2068.0, 2068.0, 2068.0, 2068.0, 2067.0, 2068.0, 2068.0, 2068.0, 2068.0, 2068.0, 2068.0, 2068.0, 2067.0, 2068.0, 2067.0, 2068.0, 2067.0, 2067.0, 2068.0, 2068.0, 2068.0, 2068.0, 2068.0, 2068.0, 2068.0, 2068.0, 2067.0, 2068.0, 2067.0, 2068.0, 2067.0, 2067.0, 2068.0]
    },
    "slices": {}
  }
}