{
  "AcquisitionMatrixPE": 122,
  "AcquisitionNumber": 1,
  "AcquisitionTime": "10:34:55.472500",
  "BandwidthPerPixelPhaseEncode": 27.785,
  "BaseResolution": 122,
  "BodyPartExamined": "BRAIN",
  "CoilCombinationMethod": "Adaptive Combine",
  "ConsistencyInfo": "N4_VE11C_LATEST_20160120",
  "ConversionSoftware": "dcm2niix",
  "ConversionSoftwareVersion": "v1.0.20220720",
  "DerivedVendorReportedEchoSpacing": 0.000590011,
  "DeviceSerialNumber": "66112",
  "DiffusionScheme": "Monopolar",
  "DwellTime": 2e-06,
  "EchoTime": 0.068,
  "EchoTrainLength": 61,
  "EffectiveEchoSpacing": 0.000295005,
  "FlipAngle": 90,
  "HeudiconvVersion": "0.13.1",
  "ImageOrientationPatientDICOM": [0.984904, 0.172746, 0.0111149, -0.167999, 0.93841, 0.301931],
  "ImageOrientationText": "Tra>Cor(17.4)>Sag(-2.4)",
  "ImageType": [
    "ORIGINAL",
    "PRIMARY",
    "DIFFUSION",
    "NONE",
    "ND",
    "NORM"
],
  "ImagingFrequency": 123.252,
  "InPlanePhaseEncodingDirectionDICOM": "COL",
  "InstitutionAddress": "Maynard 3,Hanover,NH,US,03755",
  "InstitutionName": "Dartmouth College - PBS",
  "InstitutionalDepartmentName": "Department",
  "MRAcquisitionType": "2D",
  "MagneticFieldStrength": 3,
  "Manufacturer": "Siemens",
  "ManufacturersModelName": "Prisma",
  "Modality": "MR",
  "MultibandAccelerationFactor": 4,
  "NonlinearGradientCorrection": false,
  "ParallelReductionFactorInPlane": 2,
  "PartialFourier": 1,
  "PatientPosition": "HFS",
  "PercentPhaseFOV": 100,
  "PercentSampling": 100,
  "PhaseEncodingDirection": "j-",
  "PhaseEncodingSteps": 122,
  "PhaseResolution": 1,
  "PixelBandwidth": 2050,
  "ProcedureStepDescription": "dbic^QA",
  "ProtocolName": "dwi_acq-DTI-30-p2-s4",
  "PulseSequenceDetails": "%SiemensSeq%\\ep2d_diff",
  "ReceiveCoilActiveElements": "HEA;HEP",
  "ReceiveCoilName": "Head_32",
  "ReconMatrixPE": 122,
  "RefLinesPE": 38,
  "RepetitionTime": 3.6,
  "SAR": 0.160918,
  "ScanOptions": "FS",
  "ScanningSequence": "EP",
  "SequenceName": "*ep_b0",
  "SequenceVariant": "SK\\SP",
  "SeriesDescription": "dwi_acq-DTI-30-p2-s4",
  "SeriesNumber": 13,
  "ShimSetting": [4144, -7689, -7516, 243, -56, -86, -26, 59],
  "SliceThickness": 2,
  "SliceTiming": [2.57812, 0, 1.78906, 0.19531, 1.98438, 0.39062, 2.1875, 0.59375, 2.38281, 0.99219, 2.78125, 1.1875, 2.97656, 1.39062, 3.17969, 1.58594, 3.375, 0.78906, 2.57812, 0, 1.78906, 0.19531, 1.98438, 0.39062, 2.1875, 0.59375, 2.38281, 0.99219, 2.78125, 1.1875, 2.97656, 1.39062, 3.17969, 1.58594, 3.375, 0.78906, 2.57812, 0, 1.78906, 0.19531, 1.98438, 0.39062, 2.1875, 0.59375, 2.38281, 0.99219, 2.78125, 1.1875, 2.97656, 1.39062, 3.17969, 1.58594, 3.375, 0.78906, 2.57812, 0, 1.78906, 0.19531, 1.98438, 0.39062, 2.1875, 0.59375, 2.38281, 0.99219, 2.78125, 1.1875, 2.97656, 1.39062, 3.17969, 1.58594, 3.375, 0.78906],
  "SoftwareVersions": "syngo MR E11",
  "SpacingBetweenSlices": 2,
  "SpoilingState": true,
  "StationName": "AWP66112",
  "TotalReadoutTime": 0.0356956,
  "TxRefAmp": 227.709,
  "dcmmeta_affine": [
    [-1.9375154972076416, -0.3304896056652069, -0.08345425128936768, 145.87864685058594],
    [-0.3398284912109375, 1.8460532426834106, 0.598480224609375, -112.42318725585938],
    [0.02186541259288788, -0.5939627885818481, 1.9065322875976562, -25.891204833984375],
    [0.0, 0.0, 0.0, 1.0]
],
  "dcmmeta_reorient_transform": [
    [0.0, -1.0, 0.0, 121.0],
    [1.0, 0.0, 0.0, 0.0],
    [0.0, 0.0, -1.0, 71.0],
    [0.0, 0.0, 0.0, 1.0]
],
  "dcmmeta_shape": [122, 122, 72, 31],
  "dcmmeta_slice_dim": 2,
  "dcmmeta_version": 0.6,
  "global": {
    "const": {
      "AccessionNumber": "qa",
      "AcquisitionMatrix": [122, 0, 0, 122],
      "AngioFlag": "N",
      "BitsAllocated": 16,
      "BitsStored": 12,
      "BodyPartExamined": "BRAIN",
      "Columns": 122,
      "EchoNumbers": 1,
      "EchoTime": 68.0,
      "EchoTrainLength": 61,
      "FlipAngle": 90.0,
      "HighBit": 11,
      "ImageOrientationPatient": [0.98490366451844, 0.1727461438682, 0.01111491775981, -0.1679988771293, 0.93841035714558, 0.30193108300605],
      "ImageType": [
        "ORIGINAL",
        "PRIMARY",
        "DIFFUSION",
        "NONE",
        "ND",
        "NORM"
],
      "ImagedNucleus": "1H",
      "ImagingFrequency": 123.252375,
      "InPlanePhaseEncodingDirection": "COL",
      "MRAcquisitionType": "2D",
      "MagneticFieldStrength": 3.0,
      "Manufacturer": "SIEMENS",
      "ManufacturerModelName": "Prisma",
      "Modality": "MR",
      "NumberOfAverages": 1.0,
      "NumberOfPhaseEncodingSteps": 122,
      "PercentPhaseFieldOfView": 100.0,
      "PercentSampling": 100.0,
      "PerformedProcedureStepStartTime": "100018.260000",
      "PhotometricInterpretation": "MONOCHROME2",
      "PixelBandwidth": 2050.0,
      "PixelRepresentation": 0,
      "PixelSpacing": [1.9672131538391, 1.9672131538391],
      "ProtocolName": "dwi_acq-DTI-30-p2-s4",
      "RepetitionTime": 3600.0,
      "Rows": 122,
      "SAR": 0.16091801773049,
      "SamplesPerPixel": 1,
      "ScanOptions": "FS",
      "ScanningSequence": "EP",
      "SequenceVariant": [
        "SK",
        "SP"
],
      "SeriesDescription": "dwi_acq-DTI-30-p2-s4",
      "SeriesNumber": 13,
      "SeriesTime": "103500.355000",
      "SliceThickness": 2.0,
      "SmallestImagePixelValue": 0,
      "SoftwareVersions": "syngo MR E11",
      "SpacingBetweenSlices": 2.0,
      "SpecificCharacterSet": "ISO_IR 100",
      "StudyID": "2",
      "StudyTime": "100018.218000",
      "TransmitCoilName": "Body",
      "VariableFlipAngleFlag": "N",
      "WindowCenterWidthExplanation": "Algo1",
      "dBdt": 0.0},
    "slices": {
      "AcquisitionTime": ["103455.472500", "103452.887500", "103454.677500", "103453.085000", "103454.875000", "103453.285000", "103455.075000", "103453.482500", "103455.272500", "103453.882500", "103455.672500", "103454.080000", "103455.870000", "103454.280000", "103456.070000", "103454.477500", "103456.267500", "103453.682500", "103455.472500", "103452.887500", "103454.677500", "103453.085000", "103454.875000", "103453.285000", "103455.075000", "103453.482500", "103455.272500", "103453.882500", "103455.672500", "103454.080000", "103455.870000", "103454.280000", "103456.070000", "103454.477500", "103456.267500", "103453.682500", "103455.472500", "103452.887500", "103454.677500", "103453.085000", "103454.875000", "103453.285000", "103455.075000", "103453.482500", "103455.272500", "103453.882500", "103455.672500", "103454.080000", "103455.870000", "103454.280000", "103456.070000", "103454.477500", "103456.267500", "103453.682500", "103455.472500", "103452.887500", "103454.677500", "103453.085000", "103454.875000", "103453.285000", "103455.075000", "103453.482500", "103455.272500", "103453.882500", "103455.672500", "103454.080000", "103455.870000", "103454.280000", "103456.070000", "103454.477500", "103456.267500", "103453.682500", "103459.072500", "103456.487500", "103458.277500", "103456.685000", "103458.475000", "103456.885000", "103458.675000", "103457.082500", "103458.872500", "103457.482500", "103459.272500", "103457.680000", "103459.470000", "103457.880000", "103459.670000", "103458.077500", "103459.867500", "103457.282500", "103459.072500", "103456.487500", "103458.277500", "103456.685000", "103458.475000", "103456.885000", "103458.675000", "103457.082500", "103458.872500", "103457.482500", "103459.272500", "103457.680000", "103459.470000", "103457.880000", "103459.670000", "103458.077500", "103459.867500", "103457.282500", "103459.072500", "103456.487500", "103458.277500", "103456.685000", "103458.475000", "103456.885000", "103458.675000", "103457.082500", "103458.872500", "103457.482500", "103459.272500", "103457.680000", "103459.470000", "103457.880000", "103459.670000", "103458.077500", "103459.867500", "103457.282500", "103459.072500", "103456.487500", "103458.277500", "103456.685000", "103458.475000", "103456.885000", "103458.675000", "103457.082500", "103458.872500", "103457.482500", "103459.272500", "103457.680000", "103459.470000", "103457.880000", "103459.670000", "103458.077500", "103459.867500", "103457.282500", "103502.672500", "103500.087500", "103501.877500", "103500.285000", "103502.075000", "103500.485000", "103502.275000", "103500.682500", "103502.472500", "103501.082500", "103502.872500", "103501.280000", "103503.070000", "103501.480000", "103503.270000", "103501.677500", "103503.467500", "103500.882500", "103502.672500", "103500.087500", "103501.877500", "103500.285000", "103502.075000", "103500.485000", "103502.275000", "103500.682500", "103502.472500", "103501.082500", "103502.872500", "103501.280000", "103503.070000", "103501.480000", "103503.270000", "103501.677500", "103503.467500", "103500.882500", "103502.672500", "103500.087500", "103501.877500", "103500.285000", "103502.075000", "103500.485000", "103502.275000", "103500.682500", "103502.472500", "103501.082500", "103502.872500", "103501.280000", "103503.070000", "103501.480000", "103503.270000", "103501.677500", "103503.467500", "103500.882500", "103502.672500", "103500.087500", "103501.877500", "103500.285000", "103502.075000", "103500.485000", "103502.275000", "103500.682500", "103502.472500", "103501.082500", "103502.872500", "103501.280000", "103503.070000", "103501.480000", "103503.270000", "103501.677500", "103503.467500", "103500.882500", "103506.272500", "103503.687500", "103505.477500", "103503.885000", "103505.675000", "103504.085000", "103505.875000", "103504.282500", "103506.072500", "103504.682500", "103506.472500", "103504.880000", "103506.670000", "103505.080000", "103506.870000", "103505.277500", "103507.067500", "103504.482500", "103506.272500", "103503.687500", "103505.477500", "103503.885000", "103505.675000", "103504.085000", "103505.875000", "103504.282500", "103506.072500", "103504.682500", "103506.472500", "103504.880000", "103506.670000", "103505.080000", "103506.870000", "103505.277500", "103507.067500", "103504.482500", "103506.272500", "103503.687500", "103505.477500", "103503.885000", "103505.675000", "103504.085000", "103505.875000", "103504.282500", "103506.072500", "103504.682500", "103506.472500", "103504.880000", "103506.670000", "103505.080000", "103506.870000", "103505.277500", "103507.067500", "103504.482500", "103506.272500", "103503.687500", "103505.477500", "103503.885000", "103505.675000", "103504.085000", "103505.875000", "103504.282500", "103506.072500", "103504.682500", "103506.472500", "103504.880000", "103506.670000", "103505.080000", "103506.870000", "103505.277500", "103507.067500", "103504.482500", "103509.872500", "103507.287500", "103509.077500", "103507.485000", "103509.275000", "103507.685000", "103509.475000", "103507.882500", "103509.672500", "103508.282500", "103510.072500", "103508.480000", "103510.270000", "103508.680000", "103510.470000", "103508.877500", "103510.667500", "103508.082500", "103509.872500", "103507.287500", "103509.077500", "103507.485000", "103509.275000", "103507.685000", "103509.475000", "103507.882500", "103509.672500", "103508.282500", "103510.072500", "103508.480000", "103510.270000", "103508.680000", "103510.470000", "103508.877500", "103510.667500", "103508.082500", "103509.872500", "103507.287500", "103509.077500", "103507.485000", "103509.275000", "103507.685000", "103509.475000", "103507.882500", "103509.672500", "103508.282500", "103510.072500", "103508.480000", "103510.270000", "103508.680000", "103510.470000", "103508.877500", "103510.667500", "103508.082500", "103509.872500", "103507.287500", "103509.077500", "103507.485000", "103509.275000", "103507.685000", "103509.475000", "103507.882500", "103509.672500", "103508.282500", "103510.072500", "103508.480000", "103510.270000", "103508.680000", "103510.470000", "103508.877500", "103510.667500", "103508.082500", "103513.472500", "103510.887500", "103512.677500", "103511.085000", "103512.875000", "103511.285000", "103513.075000", "103511.482500", "103513.272500", "103511.882500", "103513.672500", "103512.080000", "103513.870000", "103512.280000", "103514.070000", "103512.477500", "103514.267500", "103511.682500", "103513.472500", "103510.887500", "103512.677500", "103511.085000", "103512.875000", "103511.285000", "103513.075000", "103511.482500", "103513.272500", "103511.882500", "103513.672500", "103512.080000", "103513.870000", "103512.280000", "103514.070000", "103512.477500", "103514.267500", "103511.682500", "103513.472500", "103510.887500", "103512.677500", "103511.085000", "103512.875000", "103511.285000", "103513.075000", "103511.482500", "103513.272500", "103511.882500", "103513.672500", "103512.080000", "103513.870000", "103512.280000", "103514.070000", "103512.477500", "103514.267500", "103511.682500", "103513.472500", "103510.887500", "103512.677500", "103511.085000", "103512.875000", "103511.285000", "103513.075000", "103511.482500", "103513.272500", "103511.882500", "103513.672500", "103512.080000", "103513.870000", "103512.280000", "103514.070000", "103512.477500", "103514.267500", "103511.682500", "103517.072500", "103514.487500", "103516.277500", "103514.685000", "103516.475000", "103514.885000", "103516.675000", "103515.082500", "103516.872500", "103515.482500", "103517.272500", "103515.680000", "103517.470000", "103515.880000", "103517.670000", "103516.077500", "103517.867500", "103515.282500", "103517.072500", "103514.487500", "103516.277500", "103514.685000", "103516.475000", "103514.885000", "103516.675000", "103515.082500", "103516.872500", "103515.482500", "103517.272500", "103515.680000", "103517.470000", "103515.880000", "103517.670000", "103516.077500", "103517.867500", "103515.282500", "103517.072500", "103514.487500", "103516.277500", "103514.685000", "103516.475000", "103514.885000", "103516.675000", "103515.082500", "103516.872500", "103515.482500", "103517.272500", "103515.680000", "103517.470000", "103515.880000", "103517.670000", "103516.077500", "103517.867500", "103515.282500", "103517.072500", "103514.487500", "103516.277500", "103514.685000", "103516.475000", "103514.885000", "103516.675000", "103515.082500", "103516.872500", "103515.482500", "103517.272500", "103515.680000", "103517.470000", "103515.880000", "103517.670000", "103516.077500", "103517.867500", "103515.282500", "103520.672500", "103518.087500", "103519.877500", "103518.285000", "103520.075000", "103518.485000", "103520.275000", "103518.682500", "103520.472500", "103519.082500", "103520.872500", "103519.280000", "103521.070000", "103519.480000", "103521.270000", "103519.677500", "103521.467500", "103518.882500", "103520.672500", "103518.087500", "103519.877500", "103518.285000", "103520.075000", "103518.485000", "103520.275000", "103518.682500", "103520.472500", "103519.082500", "103520.872500", "103519.280000", "103521.070000", "103519.480000", "103521.270000", "103519.677500", "103521.467500", "103518.882500", "103520.672500", "103518.087500", "103519.877500", "103518.285000", "103520.075000", "103518.485000", "103520.275000", "103518.682500", "103520.472500", "103519.082500", "103520.872500", "103519.280000", "103521.070000", "103519.480000", "103521.270000", "103519.677500", "103521.467500", "103518.882500", "103520.672500", "103518.087500", "103519.877500", "103518.285000", "103520.075000", "103518.485000", "103520.275000", "103518.682500", "103520.472500", "103519.082500", "103520.872500", "103519.280000", "103521.070000", "103519.480000", "103521.270000", "103519.677500", "103521.467500", "103518.882500", "103524.272500", "103521.687500", "103523.477500", "103521.885000", "103523.675000", "103522.085000", "103523.875000", "103522.282500", "103524.072500", "103522.682500", "103524.472500", "103522.880000", "103524.670000", "103523.080000", "103524.870000", "103523.277500", "103525.067500", "103522.482500", "103524.272500", "103521.687500", "103523.477500", "103521.885000", "103523.675000", "103522.085000", "103523.875000", "103522.282500", "103524.072500", "103522.682500", "103524.472500", "103522.880000", "103524.670000", "103523.080000", "103524.870000", "103523.277500", "103525.067500", "103522.482500", "103524.272500", "103521.687500", "103523.477500", "103521.885000", "103523.675000", "103522.085000", "103523.875000", "103522.282500", "103524.072500", "103522.682500", "103524.472500", "103522.880000", "103524.670000", "103523.080000", "103524.870000", "103523.277500", "103525.067500", "103522.482500", "103524.272500", "103521.687500", "103523.477500", "103521.885000", "103523.675000", "103522.085000", "103523.875000", "103522.282500", "103524.072500", "103522.682500", "103524.472500", "103522.880000", "103524.670000", "103523.080000", "103524.870000", "103523.277500", "103525.067500", "103522.482500", "103527.872500", "103525.287500", "103527.077500", "103525.485000", "103527.275000", "103525.685000", "103527.475000", "103525.882500", "103527.672500", "103526.282500", "103528.072500", "103526.480000", "103528.270000", "103526.680000", "103528.470000", "103526.877500", "103528.667500", "103526.082500", "103527.872500", "103525.287500", "103527.077500", "103525.485000", "103527.275000", "103525.685000", "103527.475000", "103525.882500", "103527.672500", "103526.282500", "103528.072500", "103526.480000", "103528.270000", "103526.680000", "103528.470000", "103526.877500", "103528.667500", "103526.082500", "103527.872500", "103525.287500", "103527.077500", "103525.485000", "103527.275000", "103525.685000", "103527.475000", "103525.882500", "103527.672500", "103526.282500", "103528.072500", "103526.480000", "103528.270000", "103526.680000", "103528.470000", "103526.877500", "103528.667500", "103526.082500", "103527.872500", "103525.287500", "103527.077500", "103525.485000", "103527.275000", "103525.685000", "103527.475000", "103525.882500", "103527.672500", "103526.282500", "103528.072500", "103526.480000", "103528.270000", "103526.680000", "103528.470000", "103526.877500", "103528.667500", "103526.082500", "103531.472500", "103528.887500", "103530.677500", "103529.085000", "103530.875000", "103529.285000", "103531.075000", "103529.482500", "103531.272500", "103529.882500", "103531.672500", "103530.080000", "103531.870000", "103530.280000", "103532.070000", "103530.477500", "103532.267500", "103529.682500", "103531.472500", "103528.887500", "103530.677500", "103529.085000", "103530.875000", "103529.285000", "103531.075000", "103529.482500", "103531.272500", "103529.882500", "103531.672500", "103530.080000", "103531.870000", "103530.280000", "103532.070000", "103530.477500", "103532.267500", "103529.682500", "103531.472500", "103528.887500", "103530.677500", "103529.085000", "103530.875000", "103529.285000", "103531.075000", "103529.482500", "103531.272500", "103529.882500", "103531.672500", "103530.080000", "103531.870000", "103530.280000", "103532.070000", "103530.477500", "103532.267500", "103529.682500", "103531.472500", "103528.887500", "103530.677500", "103529.085000", "103530.875000", "103529.285000", "103531.075000", "103529.482500", "103531.272500", "103529.882500", "103531.672500", "103530.080000", "103531.870000", "103530.280000", "103532.070000", "103530.477500", "103532.267500", "103529.682500", "103535.072500", "103532.487500", "103534.277500", "103532.685000", "103534.475000", "103532.885000", "103534.675000", "103533.082500", "103534.872500", "103533.482500", "103535.272500", "103533.680000", "103535.470000", "103533.880000", "103535.670000", "103534.077500", "103535.867500", "103533.282500", "103535.072500", "103532.487500", "103534.277500", "103532.685000", "103534.475000", "103532.885000", "103534.675000", "103533.082500", "103534.872500", "103533.482500", "103535.272500", "103533.680000", "103535.470000", "103533.880000", "103535.670000", "103534.077500", "103535.867500", "103533.282500", "103535.072500", "103532.487500", "103534.277500", "103532.685000", "103534.475000", "103532.885000", "103534.675000", "103533.082500", "103534.872500", "103533.482500", "103535.272500", "103533.680000", "103535.470000", "103533.880000", "103535.670000", "103534.077500", "103535.867500", "103533.282500", "103535.072500", "103532.487500", "103534.277500", "103532.685000", "103534.475000", "103532.885000", "103534.675000", "103533.082500", "103534.872500", "103533.482500", "103535.272500", "103533.680000", "103535.470000", "103533.880000", "103535.670000", "103534.077500", "103535.867500", "103533.282500", "103538.672500", "103536.087500", "103537.877500", "103536.285000", "103538.075000", "103536.485000", "103538.275000", "103536.682500", "103538.472500", "103537.082500", "103538.872500", "103537.280000", "103539.070000", "103537.480000", "103539.270000", "103537.677500", "103539.467500", "103536.882500", "103538.672500", "103536.087500", "103537.877500", "103536.285000", "103538.075000", "103536.485000", "103538.275000", "103536.682500", "103538.472500", "103537.082500", "103538.872500", "103537.280000", "103539.070000", "103537.480000", "103539.270000", "103537.677500", "103539.467500", "103536.882500", "103538.672500", "103536.087500", "103537.877500", "103536.285000", "103538.075000", "103536.485000", "103538.275000", "103536.682500", "103538.472500", "103537.082500", "103538.872500", "103537.280000", "103539.070000", "103537.480000", "103539.270000", "103537.677500", "103539.467500", "103536.882500", "103538.672500", "103536.087500", "103537.877500", "103536.285000", "103538.075000", "103536.485000", "103538.275000", "103536.682500", "103538.472500", "103537.082500", "103538.872500", "103537.280000", "103539.070000", "103537.480000", "103539.270000", "103537.677500", "103539.467500", "103536.882500", "103542.272500", "103539.687500", "103541.477500", "103539.885000", "103541.675000", "103540.085000", "103541.875000", "103540.282500", "103542.072500", "103540.682500", "103542.472500", "103540.880000", "103542.670000", "103541.080000", "103542.870000", "103541.277500", "103543.067500", "103540.482500", "103542.272500", "103539.687500", "103541.477500", "103539.885000", "103541.675000", "103540.085000", "103541.875000", "103540.282500", "103542.072500", "103540.682500", "103542.472500", "103540.880000", "103542.670000", "103541.080000", "103542.870000", "103541.277500", "103543.067500", "103540.482500", "103542.272500", "103539.687500", "103541.477500", "103539.885000", "103541.675000", "103540.085000", "103541.875000", "103540.282500", "103542.072500", "103540.682500", "103542.472500", "103540.880000", "103542.670000", "103541.080000", "103542.870000", "103541.277500", "103543.067500", "103540.482500", "103542.272500", "103539.687500", "103541.477500", "103539.885000", "103541.675000", "103540.085000", "103541.875000", "103540.282500", "103542.072500", "103540.682500", "103542.472500", "103540.880000", "103542.670000", "103541.080000", "103542.870000", "103541.277500", "103543.067500", "103540.482500", "103545.872500", "103543.287500", "103545.077500", "103543.485000", "103545.275000", "103543.685000", "103545.475000", "103543.882500", "103545.672500", "103544.282500", "103546.072500", "103544.480000", "103546.270000", "103544.680000", "103546.470000", "103544.877500", "103546.667500", "103544.082500", "103545.872500", "103543.287500", "103545.077500", "103543.485000", "103545.275000", "103543.685000", "103545.475000", "103543.882500", "103545.672500", "103544.282500", "103546.072500", "103544.480000", "103546.270000", "103544.680000", "103546.470000", "103544.877500", "103546.667500", "103544.082500", "103545.872500", "103543.287500", "103545.077500", "103543.485000", "103545.275000", "103543.685000", "103545.475000", "103543.882500", "103545.672500", "103544.282500", "103546.072500", "103544.480000", "103546.270000", "103544.680000", "103546.470000", "103544.877500", "103546.667500", "103544.082500", "103545.872500", "103543.287500", "103545.077500", "103543.485000", "103545.275000", "103543.685000", "103545.475000", "103543.882500", "103545.672500", "103544.282500", "103546.072500", "103544.480000", "103546.270000", "103544.680000", "103546.470000", "103544.877500", "103546.667500", "103544.082500", "103549.472500", "103546.887500", "103548.677500", "103547.085000", "103548.875000", "103547.285000", "103549.075000", "103547.482500", "103549.272500", "103547.882500", "103549.672500", "103548.080000", "103549.870000", "103548.280000", "103550.070000", "103548.477500", "103550.267500", "103547.682500", "103549.472500", "103546.887500", "103548.677500", "103547.085000", "103548.875000", "103547.285000", "103549.075000", "103547.482500", "103549.272500", "103547.882500", "103549.672500", "103548.080000", "103549.870000", "103548.280000", "103550.070000", "103548.477500", "103550.267500", "103547.682500", "103549.472500", "103546.887500", "103548.677500", "103547.085000", "103548.875000", "103547.285000", "103549.075000", "103547.482500", "103549.272500", "103547.882500", "103549.672500", "103548.080000", "103549.870000", "103548.280000", "103550.070000", "103548.477500", "103550.267500", "103547.682500", "103549.472500", "103546.887500", "103548.677500", "103547.085000", "103548.875000", "103547.285000", "103549.075000", "103547.482500", "103549.272500", "103547.882500", "103549.672500", "103548.080000", "103549.870000", "103548.280000", "103550.070000", "103548.477500", "103550.267500", "103547.682500", "103553.072500", "103550.487500", "103552.277500", "103550.685000", "103552.475000", "103550.885000", "103552.675000", "103551.082500", "103552.872500", "103551.482500", "103553.272500", "103551.680000", "103553.470000", "103551.880000", "103553.670000", "103552.077500", "103553.867500", "103551.282500", "103553.072500", "103550.487500", "103552.277500", "103550.685000", "103552.475000", "103550.885000", "103552.675000", "103551.082500", "103552.872500", "103551.482500", "103553.272500", "103551.680000", "103553.470000", "103551.880000", "103553.670000", "103552.077500", "103553.867500", "103551.282500", "103553.072500", "103550.487500", "103552.277500", "103550.685000", "103552.475000", "103550.885000", "103552.675000", "103551.082500", "103552.872500", "103551.482500", "103553.272500", "103551.680000", "103553.470000", "103551.880000", "103553.670000", "103552.077500", "103553.867500", "103551.282500", "103553.072500", "103550.487500", "103552.277500", "103550.685000", "103552.475000", "103550.885000", "103552.675000", "103551.082500", "103552.872500", "103551.482500", "103553.272500", "103551.680000", "103553.470000", "103551.880000", "103553.670000", "103552.077500", "103553.867500", "103551.282500", "103556.672500", "103554.087500", "103555.877500", "103554.285000", "103556.075000", "103554.485000", "103556.275000", "103554.682500", "103556.472500", "103555.082500", "103556.872500", "103555.280000", "103557.070000", "103555.480000", "103557.270000", "103555.677500", "103557.467500", "103554.882500", "103556.672500", "103554.087500", "103555.877500", "103554.285000", "103556.075000", "103554.485000", "103556.275000", "103554.682500", "103556.472500", "103555.082500", "103556.872500", "103555.280000", "103557.070000", "103555.480000", "103557.270000", "103555.677500", "103557.467500", "103554.882500", "103556.672500", "103554.087500", "103555.877500", "103554.285000", "103556.075000", "103554.485000", "103556.275000", "103554.682500", "103556.472500", "103555.082500", "103556.872500", "103555.280000", "103557.070000", "103555.480000", "103557.270000", "103555.677500", "103557.467500", "103554.882500", "103556.672500", "103554.087500", "103555.877500", "103554.285000", "103556.075000", "103554.485000", "103556.275000", "103554.682500", "103556.472500", "103555.082500", "103556.872500", "103555.280000", "103557.070000", "103555.480000", "103557.270000", "103555.677500", "103557.467500", "103554.882500", "103600.272500", "103557.687500", "103559.477500", "103557.885000", "103559.675000", "103558.085000", "103559.875000", "103558.282500", "103600.072500", "103558.682500", "103600.472500", "103558.880000", "103600.670000", "103559.080000", "103600.870000", "103559.277500", "103601.067500", "103558.482500", "103600.272500", "103557.687500", "103559.477500", "103557.885000", "103559.675000", "103558.085000", "103559.875000", "103558.282500", "103600.072500", "103558.682500", "103600.472500", "103558.880000", "103600.670000", "103559.080000", "103600.870000", "103559.277500", "103601.067500", "103558.482500", "103600.272500", "103557.687500", "103559.477500", "103557.885000", "103559.675000", "103558.085000", "103559.875000", "103558.282500", "103600.072500", "103558.682500", "103600.472500", "103558.880000", "103600.670000", "103559.080000", "103600.870000", "103559.277500", "103601.067500", "103558.482500", "103600.272500", "103557.687500", "103559.477500", "103557.885000", "103559.675000", "103558.085000", "103559.875000", "103558.282500", "103600.072500", "103558.682500", "103600.472500", "103558.880000", "103600.670000", "103559.080000", "103600.870000", "103559.277500", "103601.067500", "103558.482500", "103603.872500", "103601.287500", "103603.077500", "103601.485000", "103603.275000", "103601.685000", "103603.475000", "103601.882500", "103603.672500", "103602.282500", "103604.072500", "103602.480000", "103604.270000", "103602.680000", "103604.470000", "103602.877500", "103604.667500", "103602.082500", "103603.872500", "103601.287500", "103603.077500", "103601.485000", "103603.275000", "103601.685000", "103603.475000", "103601.882500", "103603.672500", "103602.282500", "103604.072500", "103602.480000", "103604.270000", "103602.680000", "103604.470000", "103602.877500", "103604.667500", "103602.082500", "103603.872500", "103601.287500", "103603.077500", "103601.485000", "103603.275000", "103601.685000", "103603.475000", "103601.882500", "103603.672500", "103602.282500", "103604.072500", "103602.480000", "103604.270000", "103602.680000", "103604.470000", "103602.877500", "103604.667500", "103602.082500", "103603.872500", "103601.287500", "103603.077500", "103601.485000", "103603.275000", "103601.685000", "103603.475000", "103601.882500", "103603.672500", "103602.282500", "103604.072500", "103602.480000",