{
  "AcquisitionMatrixPE": 80,
  "AcquisitionNumber": 1,
  "AcquisitionTime": "09:22:43.722500",
  "BandwidthPerPixelPhaseEncode": 48.077,
  "BaseResolution": 80,
  "BodyPartExamined": "BRAIN",
  "CoilCombinationMethod": "Sum of Squares",
  "ConsistencyInfo": "N4_VE11E_LATEST_20181129",
  "ConversionSoftware": "dcm2niix",
  "ConversionSoftwareVersion": "v1.0.20220720",
  "DerivedVendorReportedEchoSpacing": 0.000519999,
  "DeviceSerialNumber": "66112",
  "DwellTime": 2.7e-06,
  "EchoTime": 0.035,
  "EchoTrainLength": 39,
  "EffectiveEchoSpacing": 0.00026,
  "FlipAngle": 90,
  "HeudiconvVersion": "0.13.1",
  "ImageOrientationPatientDICOM": [0.984774, 0.173781, 0.00447028, -0.166739, 0.936971, 0.307057],
  "ImageOrientationText": "Tra>Cor(17.7)>Sag(-2.8)",
  "ImageType": [
    "ORIGINAL",
    "PRIMARY",
    "M",
    "ND",
    "NORM",
    "MOSAIC"
],
  "ImagingFrequency": 123.252,
  "InPlanePhaseEncodingDirectionDICOM": "COL",
  "InstitutionAddress": "Maynard 3,Hanover,NH,US,03755",
  "InstitutionName": "Dartmouth College - PBS",
  "InstitutionalDepartmentName": "Department",
  "MRAcquisitionType": "2D",
  "MagneticFieldStrength": 3,
  "Manufacturer": "Siemens",
  "ManufacturersModelName": "Prisma",
  "MatrixCoilMode": "GRAPPA",
  "Modality": "MR",
  "NonlinearGradientCorrection": false,
  "ParallelReductionFactorInPlane": 2,
  "PartialFourier": 1,
  "PatientPosition": "HFS",
  "PercentPhaseFOV": 100,
  "PercentSampling": 100,
  "PhaseEncodingDirection": "j-",
  "PhaseEncodingSteps": 79,
  "PhaseResolution": 1,
  "PixelBandwidth": 2315,
  "ProcedureStepDescription": "dbic^QA",
  "ProtocolName": "func-bold_task-rest_acq-p2",
  "PulseSequenceDetails": "%SiemensSeq%\\ep2d_bold",
  "ReceiveCoilActiveElements": "HEA;HEP",
  "ReceiveCoilName": "Head_32",
  "ReconMatrixPE": 80,
  "RefLinesPE": 24,
  "RepetitionTime": 2,
  "SAR": 0.055001,
  "ScanOptions": "FS",
  "ScanningSequence": "EP",
  "SequenceName": "*epfid2d1_80",
  "SequenceVariant": "SK",
  "SeriesDescription": "func-bold_task-rest_acq-p2",
  "SeriesNumber": 5,
  "ShimSetting": [4144, -7702, -7522, 251, -69, -45, -25, 67],
  "SliceThickness": 3.5,
  "SliceTiming": [0.99, 0, 1.0575, 0.0675, 1.1225, 0.1325, 1.19, 0.2, 1.255, 0.265, 1.32, 0.33, 1.3875, 0.3975, 1.4525, 0.4625, 1.52, 0.53, 1.585, 0.595, 1.65, 0.66, 1.7175, 0.7275, 1.7825, 0.7925, 1.8475, 0.86, 1.915, 0.925],
  "SoftwareVersions": "syngo MR E11",
  "SpacingBetweenSlices": 3.99,
  "StationName": "AWP66112",
  "TaskName": "rest",
  "TotalReadoutTime": 0.02054,
  "TxRefAmp": 224.971,
  "dcmmeta_affine": [
    [-2.954322576522827, -0.5002166032791138, -0.19619658589363098, 141.34500122070312],
    [-0.5213423371315002, 2.8109121322631836, 1.2094773054122925, -98.42318725585938],
    [0.01341085135936737, -0.9211709499359131, 3.797205686569214, -19.444164276123047],
    [0.0, 0.0, 0.0, 1.0]
],
  "dcmmeta_reorient_transform": [
    [0.0, -1.0, 0.0, 79.0],
    [1.0, 0.0, 0.0, 0.0],
    [0.0, 0.0, 1.0, 0.0],
    [0.0, 0.0, 0.0, 1.0]
],
  "dcmmeta_shape": [80, 80, 30, 200],
  "dcmmeta_slice_dim": 2,
  "dcmmeta_version": 0.6,
  "global": {
    "const": {
      "AccessionNumber": "qa",
      "AcquisitionMatrix": [80, 0, 0, 80],
      "AngioFlag": "N",
      "BitsAllocated": 16,
      "BitsStored": 12,
      "BodyPartExamined": "BRAIN",
      "Columns": 480,
      "EchoNumbers": 1,
      "EchoTime": 35.0,
      "EchoTrainLength": 39,
      "FlipAngle": 90.0,
      "HighBit": 11,
      "ImageOrientationPatient": [0.98477421579734, 0.17378078278179, 0.00447028371485, -0.1667388700693, 0.93697073757091, 0.30705697540336],
      "ImagePositionPatient": [-592.64909872166, -790.0897885016, -279.13302347673],
      "ImageType": [
        "ORIGINAL",
        "PRIMARY",
        "M",
        "ND",
        "NORM",
        "MOSAIC"
],
      "ImagedNucleus": "1H",
      "ImagingFrequency": 123.252353,
      "InPlanePhaseEncodingDirection": "COL",
      "MRAcquisitionType": "2D",
      "MagneticFieldStrength": 3.0,
      "Manufacturer": "SIEMENS",
      "ManufacturerModelName": "Prisma",
      "Modality": "MR",
      "NumberOfAverages": 1.0,
      "NumberOfPhaseEncodingSteps": 79,
      "PercentPhaseFieldOfView": 100.0,
      "PercentSampling": 100.0,
      "PerformedProcedureStepStartTime": "091204.941000",
      "PhotometricInterpretation": "MONOCHROME2",
      "PixelBandwidth": 2315.0,
      "PixelRepresentation": 0,
      "PixelSpacing": [3.0, 3.0],
      "ProtocolName": "func-bold_task-rest_acq-p2",
      "RepetitionTime": 2000.0,
      "Rows": 480,
      "SAR": 0.05500096411781,
      "SamplesPerPixel": 1,
      "ScanOptions": "FS",
      "ScanningSequence": "EP",
      "SequenceName": "*epfid2d1_80",
      "SequenceVariant": "SK",
      "SeriesDescription": "func-bold_task-rest_acq-p2",
      "SeriesNumber": 5,
      "SeriesTime": "092325.285000",
      "SliceLocation": -55.289604288136,
      "SliceThickness": 3.5,
      "SmallestImagePixelValue": 0,
      "SoftwareVersions": "syngo MR E11",
      "SpacingBetweenSlices": 3.9899999492891,
      "SpecificCharacterSet": "ISO_IR 100",
      "StudyID": "7",
      "StudyTime": "091204.879000",
      "TransmitCoilName": "Body",
      "VariableFlipAngleFlag": "N",
      "WindowCenterWidthExplanation": "Algo1"
    },
    "slices": {}
  },
  "time": {
    "samples": {
      "AcquisitionNumber": [1, 2, 3, 4, 5, 6, 7, 8, 9, 10, 11, 12, 13, 14, 15, 16, 17, 18, 19, 20, 21, 22, 23, 24, 25, 26, 27, 28, 29, 30, 31, 32, 33, 34, 35, 36, 37, 38, 39, 40, 41, 42, 43, 44, 45, 46, 47, 48, 49, 50, 51, 52, 53, 54, 55, 56, 57, 58, 59, 60, 61, 62, 63, 64, 65, 66, 67, 68, 69, 70, 71, 72, 73, 74, 75, 76, 77, 78, 79, 80, 81, 82, 83, 84, 85, 86, 87, 88, 89, 90, 91, 92, 93, 94, 95, 96, 97, 98, 99, 100, 101, 102, 103, 104, 105, 106, 107, 108, 109, 110, 111, 112, 113, 114, 115, 116, 117, 118, 119, 120, 121, 122, 123, 124, 125, 126, 127, 128, 129, 130, 131, 132, 133, 134, 135, 136, 137, 138, 139, 140, 141, 142, 143, 144, 145, 146, 147, 148, 149, 150, 151, 152, 153, 154, 155, 156, 157, 158, 159, 160, 161, 162, 163, 164, 165, 166, 167, 168, 169, 170, 171, 172, 173, 174, 175, 176, 177, 178, 179, 180, 181, 182, 183, 184, 185, 186, 187, 188, 189, 190, 191, 192, 193, 194, 195, 196, 197, 198, 199, 200],
      "AcquisitionTime": ["092243.722500", "092245.722500", "092247.722500", "092249.722500", "092251.722500", "092253.722500", "092255.722500", "092257.722500", "092259.722500", "092301.722500", "092303.722500", "092305.722500", "092307.722500", "092309.722500", "092311.722500", "092313.722500", "092315.722500", "092317.722500", "092319.722500", "092321.722500", "092323.722500", "092325.722500", "092327.722500", "092329.722500", "092331.722500", "092333.722500", "092335.722500", "092337.722500", "092339.722500", "092341.722500", "092343.722500", "092345.722500", "092347.722500", "092349.722500", "092351.722500", "092353.722500", "092355.722500", "092357.722500", "092359.722500", "092401.722500", "092403.722500", "092405.722500", "092407.722500", "092409.722500", "092411.722500", "092413.722500", "092415.722500", "092417.722500", "092419.722500", "092421.722500", "092423.722500", "092425.722500", "092427.722500", "092429.722500", "092431.722500", "092433.722500", "092435.722500", "092437.722500", "092439.722500", "092441.722500", "092443.722500", "092445.722500", "092447.722500", "092449.722500", "092451.722500", "092453.722500", "092455.722500", "092457.722500", "092459.722500", "092501.722500", "092503.722500", "092505.722500", "092507.722500", "092509.722500", "092511.722500", "092513.722500", "092515.722500", "092517.722500", "092519.722500", "092521.722500", "092523.722500", "092525.722500", "092527.722500", "092529.722500", "092531.722500", "092533.722500", "092535.722500", "092537.722500", "092539.722500", "092541.722500", "092543.722500", "092545.722500", "092547.722500", "092549.722500", "092551.722500", "092553.722500", "092555.722500", "092557.722500", "092559.722500", "092601.722500", "092603.722500", "092605.722500", "092607.722500", "092609.722500", "092611.722500", "092613.722500", "092615.722500", "092617.722500", "092619.722500", "092621.722500", "092623.722500", "092625.722500", "092627.722500", "092629.722500", "092631.722500", "092633.722500", "092635.722500", "092637.722500", "092639.722500", "092641.722500", "092643.722500", "092645.722500", "092647.722500", "092649.722500", "092651.722500", "092653.722500", "092655.722500", "092657.722500", "092659.722500", "092701.722500", "092703.722500", "092705.722500", "092707.722500", "092709.722500", "092711.722500", "092713.722500", "092715.722500", "092717.722500", "092719.722500", "092721.722500", "092723.722500", "092725.722500", "092727.722500", "092729.722500", "092731.722500", "092733.722500", "092735.722500", "092737.722500", "092739.722500", "092741.722500", "092743.722500", "092745.722500", "092747.722500", "092749.722500", "092751.722500", "092753.722500", "092755.722500", "092757.722500", "092759.722500", "092801.722500", "092803.722500", "092805.722500", "092807.722500", "092809.722500", "092811.722500", "092813.722500", "092815.722500", "092817.722500", "092819.722500", "092821.722500", "092823.722500", "092825.722500", "092827.722500", "092829.722500", "092831.722500", "092833.722500", "092835.722500", "092837.722500", "092839.722500", "092841.722500", "092843.722500", "092845.722500", "092847.722500", "092849.722500", "092851.722500", "092853.722500", "092855.722500", "092857.722500", "092859.722500", "092901.722500", "092903.722500", "092905.722500", "092907.722500", "092909.722500", "092911.722500", "092913.722500", "092915.722500", "092917.722500", "092919.722500", "092921.722500"],
      "ContentTime": ["092325.288000", "092325.291000", "092325.298000", "092325.300000", "092325.303000", "092325.305000", "092325.307000", "092325.309000", "092325.312000", "092325.314000", "092325.316000", "092325.319000", "092325.321000", "092325.323000", "092325.331000", "092325.333000", "092325.336000", "092325.338000", "092325.340000", "092325.342000", "092325.345000", "092405.283000", "092405.286000", "092405.288000", "092405.290000", "092405.293000", "092405.295000", "092405.297000", "092405.299000", "092405.302000", "092405.304000", "092405.306000", "092405.309000", "092405.311000", "092405.313000", "092405.316000", "092405.318000", "092405.320000", "092405.323000", "092405.325000", "092405.327000", "092445.282000", "092445.285000", "092445.287000", "092445.290000", "092445.292000", "092445.294000", "092445.296000", "092445.299000", "092445.304000", "092445.306000", "092445.309000", "092445.311000", "092445.313000", "092445.316000", "092445.318000", "092445.320000", "092445.322000", "092445.325000", "092445.327000", "092445.329000", "092505.282000", "092505.285000", "092505.287000", "092505.290000", "092505.292000", "092505.294000", "092505.296000", "092505.299000", "092505.301000", "092505.303000", "092545.283000", "092545.286000", "092545.288000", "092545.291000", "092545.293000", "092545.295000", "092545.298000", "092545.300000", "092545.302000", "092545.305000", "092545.307000", "092545.309000", "092545.312000", "092545.314000", "092545.316000", "092545.318000", "092545.321000", "092545.323000", "092545.325000", "092545.328000", "092625.283000", "092625.286000", "092625.288000", "092625.290000", "092625.293000", "092625.295000", "092625.297000", "092625.300000", "092625.302000", "092625.305000", "092625.307000", "092625.309000", "092625.311000", "092625.314000", "092625.316000", "092625.318000", "092625.321000", "092625.323000", "092625.325000", "092625.341000", "092705.282000", "092705.285000", "092705.287000", "092705.289000", "092705.292000", "092705.294000", "092705.296000", "092705.299000", "092705.301000", "092705.303000", "092705.306000", "092705.308000", "092705.310000", "092705.313000", "092705.315000", "092705.317000", "092705.319000", "092705.327000", "092705.330000", "092705.332000", "092745.282000", "092745.285000", "092745.287000", "092745.290000", "092745.292000", "092745.294000", "092745.296000", "092745.299000", "092745.301000", "092745.303000", "092745.306000", "092745.308000", "092745.310000", "092745.313000", "092745.315000", "092745.317000", "092745.320000", "092745.322000", "092745.324000", "092745.327000", "092825.283000", "092825.286000", "092825.288000", "092825.290000", "092825.293000", "092825.295000", "092825.297000", "092825.300000", "092825.302000", "092825.304000", "092825.307000", "092825.309000", "092825.311000", "092825.314000", "092825.316000", "092825.318000", "092825.321000", "092825.323000", "092825.325000", "092825.328000", "092905.283000", "092905.286000", "092905.288000", "092905.290000", "092905.293000", "092905.295000", "092905.297000", "092905.300000", "092905.302000", "092905.304000", "092905.307000", "092905.309000", "092905.311000", "092905.313000", "092905.316000", "092905.318000", "092905.320000", "092905.323000", "092905.325000", "092905.327000", "092922.886000", "092922.890000", "092922.892000", "092922.897000", "092922.899000", "092922.902000", "092922.904000", "092922.907000", "092922.913000"],
      "InstanceCreationTime": ["092325.288000", "092325.291000", "092325.298000", "092325.300000", "092325.303000", "092325.305000", "092325.307000", "092325.309000", "092325.312000", "092325.314000", "092325.316000", "092325.319000", "092325.321000", "092325.323000", "092325.331000", "092325.333000", "092325.336000", "092325.338000", "092325.340000", "092325.342000", "092325.345000", "092405.283000", "092405.286000", "092405.288000", "092405.290000", "092405.293000", "092405.295000", "092405.297000", "092405.299000", "092405.302000", "092405.304000", "092405.306000", "092405.309000", "092405.311000", "092405.313000", "092405.316000", "092405.318000", "092405.320000", "092405.323000", "092405.325000", "092405.327000", "092445.282000", "092445.285000", "092445.287000", "092445.290000", "092445.292000", "092445.294000", "092445.296000", "092445.299000", "092445.304000", "092445.306000", "092445.309000", "092445.311000", "092445.313000", "092445.316000", "092445.318000", "092445.320000", "092445.322000", "092445.325000", "092445.327000", "092445.329000", "092505.282000", "092505.285000", "092505.287000", "092505.290000", "092505.292000", "092505.294000", "092505.296000", "092505.299000", "092505.301000", "092505.303000", "092545.283000", "092545.286000", "092545.288000", "092545.291000", "092545.293000", "092545.295000", "092545.298000", "092545.300000", "092545.302000", "092545.305000", "092545.307000", "092545.309000", "092545.312000", "092545.314000", "092545.316000", "092545.318000", "092545.321000", "092545.323000", "092545.325000", "092545.328000", "092625.283000", "092625.286000", "092625.288000", "092625.290000", "092625.293000", "092625.295000", "092625.297000", "092625.300000", "092625.302000", "092625.305000", "092625.307000", "092625.309000", "092625.311000", "092625.314000", "092625.316000", "092625.318000", "092625.321000", "092625.323000", "092625.325000", "092625.341000", "092705.282000", "092705.285000", "092705.287000", "092705.289000", "092705.292000", "092705.294000", "092705.296000", "092705.299000", "092705.301000", "092705.303000", "092705.306000", "092705.308000", "092705.310000", "092705.313000", "092705.315000", "092705.317000", "092705.319000", "092705.327000", "092705.330000", "092705.332000", "092745.282000", "092745.285000", "092745.287000", "092745.290000", "092745.292000", "092745.294000", "092745.296000", "092745.299000", "092745.301000", "092745.303000", "092745.306000", "092745.308000", "092745.310000", "092745.313000", "092745.315000", "092745.317000", "092745.320000", "092745.322000", "092745.324000", "092745.327000", "092825.283000", "092825.286000", "092825.288000", "092825.290000", "092825.293000", "092825.295000", "092825.297000", "092825.300000", "092825.302000", "092825.304000", "092825.307000", "092825.309000", "092825.311000", "092825.314000", "092825.316000", "092825.318000", "092825.321000", "092825.323000", "092825.325000", "092825.328000", "092905.283000", "092905.286000", "092905.288000", "092905.290000", "092905.293000", "092905.295000", "092905.297000", "092905.300000", "092905.302000", "092905.304000", "092905.307000", "092905.309000", "092905.311000", "092905.313000", "092905.316000", "092905.318000", "092905.320000", "092905.323000", "092905.325000", "092905.327000", "092922.886000", "092922.890000", "092922.892000", "092922.897000", "092922.899000", "092922.902000", "092922.904000", "092922.907000", "092922.913000"],
      "InstanceNumber": [1, 2, 3, 4, 5, 6, 7, 8, 9, 10, 11, 12, 13, 14, 15, 16, 17, 18, 19, 20, 21, 22, 23, 24, 25, 26, 27, 28, 29, 30, 31, 32, 33, 34, 35, 36, 37, 38, 39, 40, 41, 42, 43, 44, 45, 46, 47, 48, 49, 50, 51, 52, 53, 54, 55, 56, 57, 58, 59, 60, 61, 62, 63, 64, 65, 66, 67, 68, 69, 70, 71, 72, 73, 74, 75, 76, 77, 78, 79, 80, 81, 82, 83, 84, 85, 86, 87, 88, 89, 90, 91, 92, 93, 94, 95, 96, 97, 98, 99, 100, 101, 102, 103, 104, 105, 106, 107, 108, 109, 110, 111, 112, 113, 114, 115, 116, 117, 118, 119, 120, 121, 122, 123, 124, 125, 126, 127, 128, 129, 130, 131, 132, 133, 134, 135, 136, 137, 138, 139, 140, 141, 142, 143, 144, 145, 146, 147, 148, 149, 150, 151, 152, 153, 154, 155, 156, 157, 158, 159, 160, 161, 162, 163, 164, 165, 166, 167, 168, 169, 170, 171, 172, 173, 174, 175, 176, 177, 178, 179, 180, 181, 182, 183, 184, 185, 186, 187, 188, 189, 190, 191, 192, 193, 194, 195, 196, 197, 198, 199, 200],
      "LargestImagePixelValue": [2010, 2006, 2010, 2012, 1999, 2004, 2007, 2008, 1996, 2012, 2009, 2006, 2000, 2003, 1996, 2003, 2007, 2005, 2002, 2006, 2000, 2003, 2004, 2009, 2015, 2000, 2004, 2003, 2007, 1996, 1996, 2001, 2006, 2001, 2005, 2002, 2011, 1994, 2004, 1999, 1999, 2010, 2014, 2000, 1994, 2002, 2001, 2001, 1999, 2010, 2006, 2007, 2000, 1997, 2004, 2004, 2009, 2011, 2002, 2005, 2008, 2004, 2005, 2004, 2000, 2004, 2009, 2003, 2005, 1999, 1996, 2004, 2004, 2003, 2003, 2004, 1994, 1996, 2006, 2014, 2007, 2000, 2006, 2002, 2011, 2000, 2001, 2006, 2003, 2004, 2006, 1999, 2000, 2000, 2006, 2002, 2004, 2001, 2006, 2007, 2000, 2011, 1999, 1999, 2007, 2007, 2010, 2009, 2004, 2001, 2002, 2002, 2003, 2004, 2003, 2000, 2000, 2012, 1999, 2006, 1996, 1993, 2004, 1994, 2000, 2002, 2004, 2008, 2004, 2004, 2003, 2001, 2003, 2008, 1997, 2003, 2004, 2000, 2006, 2006, 2005, 2006, 2011, 2001, 2006, 1994, 2001, 1998, 1996, 1999, 2001, 2000, 2001, 1997, 1997, 2003, 2002, 2005, 2003, 1999, 1996, 1998, 2001, 2006, 2005, 1999, 2000, 2006, 2005, 1997, 1999, 2002, 1997, 1996, 2000, 1997, 2001, 2008, 2004, 2001, 1992, 2004, 1995, 2005, 2004, 2007, 2006, 2001, 2008, 1999, 2005, 2005, 2000, 1998, 2007, 2001, 2001, 2003, 2008, 2001],
      "WindowCenter": [983.0, 983.0, 984.0, 983.0, 983.0, 983.0, 983.0, 983.0, 983.0, 983.0, 983.0, 983.0, 983.0, 983.0, 983.0, 983.0, 983.0, 983.0, 983.0, 983.0, 983.0, 984.0, 983.0, 983.0, 983.0, 983.0, 984.0, 983.0, 984.0, 983.0, 983.0, 983.0, 983.0, 983.0, 983.0, 983.0, 983.0, 983.0, 983.0, 983.0, 983.0, 983.0, 984.0, 983.0, 983.0, 983.0, 983.0, 983.0, 983.0, 983.0, 983.0, 983.0, 983.0, 983.0, 983.0, 983.0, 983.0, 983.0, 983.0, 983.0, 982.0, 983.0, 982.0, 983.0, 982.0, 983.0, 983.0, 983.0, 983.0, 982.0, 982.0, 982.0, 982.0, 982.0, 982.0, 982.0, 982.0, 983.0, 983.0, 982.0, 982.0, 982.0, 983.0, 982.0, 983.0, 982.0, 982.0, 982.0, 982.0, 982.0, 982.0, 983.0, 982.0, 982.0, 982.0, 982.0, 982.0, 983.0, 982.0, 982.0, 982.0, 982.0, 983.0, 982.0, 982.0, 982.0, 982.0, 982.0, 983.0, 982.0, 982.0, 982.0, 982.0, 982.0, 982.0, 982.0, 982.0, 983.0, 982.0, 983.0, 982.0, 982.0, 982.0, 982.0, 982.0, 982.0, 982.0, 982.0, 983.0, 982.0, 982.0, 982.0, 982.0, 982.0, 983.0, 982.0, 982.0, 982.0, 983.0, 982.0, 982.0, 982.0, 982.0, 982.0, 983.0, 982.0, 983.0, 982.0, 982.0, 982.0, 984.0, 984.0, 982.0, 982.0, 982.0, 982.0, 982.0, 982.0, 982.0, 982.0, 983.0, 982.0, 982.0, 982.0, 982.0, 982.0, 983.0, 984.0, 982.0, 982.0, 982.0, 982.0, 983.0, 982.0, 982.0, 982.0, 982.0, 982.0, 983.0, 982.0, 982.0, 983.0, 982.0, 982.0, 982.0, 982.0, 982.0, 982.0, 983.0, 982.0, 982.0, 982.0, 982.0, 982.0, 982.0, 983.0, 982.0, 982.0, 982.0, 983.0],
      "WindowWidth": [2153.0, 2152.0, 2152.0, 2152.0, 2152.0, 2151.0, 2152.0, 2152.0, 2152.0, 2152.0, 2152.0, 2151.0, 2151.0, 2151.0, 2151.0, 2151.0, 2151.0, 2151.0, 2151.0, 2151.0, 2151.0, 2152.0, 2151.0, 2151.0, 2151.0, 2151.0, 2151.0, 2151.0, 2151.0, 2151.0, 2151.0, 2151.0, 2151.0, 2151.0, 2151.0, 2151.0, 2151.0, 2151.0, 2151.0, 2151.0, 2151.0, 2151.0, 2151.0, 2151.0, 2151.0, 2151.0, 2150.0, 2150.0, 2150.0, 2151.0, 2150.0, 2150.0, 2150.0, 2150.0, 2150.0, 2150.0, 2150.0, 2150.0, 2150.0, 2150.0, 2150.0, 2150.0, 2150.0, 2150.0, 2150.0, 2151.0, 2150.0, 2150.0, 2151.0, 2150.0, 2150.0, 2150.0, 2150.0, 2150.0, 2150.0, 2150.0, 2150.0, 2150.0, 2150.0, 2150.0, 2150.0, 2150.0, 2150.0, 2150.0, 2150.0, 2150.0, 2150.0, 2150.0, 2150.0, 2150.0, 2150.0, 2150.0, 2150.0, 2149.0, 2150.0, 2150.0, 2150.0, 2150.0, 2150.0, 2150.0, 2150.0, 2150.0, 2150.0, 2149.0, 2149.0, 2149.0, 2149.0, 2149.0, 2150.0, 2149.0, 2149.0, 2149.0, 2149.0, 2149.0, 2149.0, 2149.0, 2149.0, 2150.0, 2149.0, 2150.0, 2149.0, 2149.0, 2149.0, 2149.0, 2149.0, 2149.0, 2149.0, 2149.0, 2150.0, 2149.0, 2149.0, 2149.0, 2149.0, 2149.0, 2150.0, 2149.0, 2149.0, 2149.0, 2149.0, 2149.0, 2149.0, 2149.0, 2149.0, 2149.0, 2149.0, 2149.0, 2149.0, 2149.0, 2149.0, 2149.0, 2150.0, 2150.0, 2149.0, 2148.0, 2148.0, 2148.0, 2148.0, 2148.0, 2149.0, 2148.0, 2149.0, 2148.0, 2148.0, 2148.0, 2148.0, 2148.0, 2149.0, 2150.0, 2148.0, 2148.0, 2148.0, 2148.0, 2149.0, 2148.0, 2148.0, 2148.0, 2148.0, 2148.0, 2149.0, 2148.0, 2148.0, 2149.0, 2148.0, 2148.0, 2148.0, 2148.0, 2148.0, 2148.0, 2149.0, 2148.0, 2148.0, 2148.0, 2148.0, 2148.0, 2148.0, 2149.0, 2148.0, 2148.0, 2148.0, 2148.0]
    },
    "slices": {}
  }
}