{
  "AcquisitionMatrixPE": 80,
  "AcquisitionNumber": 1,
  "AcquisitionTime": "09:45:9.792500",
  "BandwidthPerPixelPhaseEncode": 48.077,
  "BaseResolution": 80,
  "BodyPartExamined": "BRAIN",
  "CoilCombinationMethod": "Sum of Squares",
  "ConsistencyInfo": "N4_VE11C_LATEST_20160120",
  "ConversionSoftware": "dcm2niix",
  "ConversionSoftwareVersion": "v1.0.20220720",
  "DerivedVendorReportedEchoSpacing": 0.000519999,
  "DeviceSerialNumber": "66112",
  "DwellTime": 2.7e-06,
  "EchoTime": 0.035,
  "EchoTrainLength": 39,
  "EffectiveEchoSpacing": 0.00026,
  "FlipAngle": 90,
  "HeudiconvVersion": "0.13.1",
  "ImageOrientationPatientDICOM": [0.989328, -0.14566, 0.00369023, 0.137457, 0.941411, 0.307977],
  "ImageOrientationText": "Tra>Cor(17.7)>Sag(2.8)",
  "ImageType": [
    "ORIGINAL",
    "PRIMARY",
    "M",
    "ND",
    "NORM",
    "MOSAIC"
],
  "ImagingFrequency": 123.252,
  "InPlanePhaseEncodingDirectionDICOM": "COL",
  "InstitutionAddress": "Maynard 3,Hanover,NH,US,03755",
  "InstitutionName": "Dartmouth College - PBS",
  "InstitutionalDepartmentName": "Department",
  "MRAcquisitionType": "2D",
  "MagneticFieldStrength": 3,
  "Manufacturer": "Siemens",
  "ManufacturersModelName": "Prisma",
  "MatrixCoilMode": "GRAPPA",
  "Modality": "MR",
  "NonlinearGradientCorrection": false,
  "ParallelReductionFactorInPlane": 2,
  "PartialFourier": 1,
  "PatientPosition": "HFS",
  "PercentPhaseFOV": 100,
  "PercentSampling": 100,
  "PhaseEncodingDirection": "j-",
  "PhaseEncodingSteps": 79,
  "PhaseResolution": 1,
  "PixelBandwidth": 2315,
  "ProcedureStepDescription": "dbic^QA",
  "ProtocolName": "func-bold_task-rest_acq-p2",
  "PulseSequenceDetails": "%SiemensSeq%\\ep2d_bold",
  "ReceiveCoilActiveElements": "HEA;HEP",
  "ReceiveCoilName": "Head_32",
  "ReconMatrixPE": 80,
  "RefLinesPE": 24,
  "RepetitionTime": 2,
  "SAR": 0.0657343,
  "ScanOptions": "FS",
  "ScanningSequence": "EP",
  "SequenceName": "*epfid2d1_80",
  "SequenceVariant": "SK",
  "SeriesDescription": "func-bold_task-rest_acq-p2",
  "SeriesNumber": 5,
  "ShimSetting": [4147, -7688, -7496, 346, -75, -149, -76, 78],
  "SliceThickness": 3.5,
  "SliceTiming": [0.99, 0, 1.055, 0.0675, 1.1225, 0.1325, 1.1875, 0.1975, 1.255, 0.265, 1.32, 0.33, 1.385, 0.3975, 1.4525, 0.4625, 1.5175, 0.5275, 1.585, 0.595, 1.65, 0.66, 1.715, 0.725, 1.7825, 0.7925, 1.8475, 0.8575, 1.915, 0.925],
  "SoftwareVersions": "syngo MR E11",
  "SpacingBetweenSlices": 3.99,
  "StationName": "AWP66112",
  "TaskName": "rest",
  "TotalReadoutTime": 0.02054,
  "TxRefAmp": 226.42,
  "dcmmeta_affine": [
    [-2.9679834842681885, 0.41236984729766846, 0.19285300374031067, 97.90535736083984],
    [0.43698054552078247, 2.8242344856262207, 1.2136919498443604, -138.24493408203125],
    [0.011070705018937588, -0.9239324927330017, 3.796032190322876, -23.92251205444336],
    [0.0, 0.0, 0.0, 1.0]
],
  "dcmmeta_reorient_transform": [
    [0.0, -1.0, 0.0, 79.0],
    [1.0, 0.0, 0.0, 0.0],
    [0.0, 0.0, 1.0, 0.0],
    [0.0, 0.0, 0.0, 1.0]
],
  "dcmmeta_shape": [80, 80, 30, 200],
  "dcmmeta_slice_dim": 2,
  "dcmmeta_version": 0.6,
  "global": {
    "const": {
      "AccessionNumber": "qa",
      "AcquisitionMatrix": [80, 0, 0, 80],
      "AngioFlag": "N",
      "BitsAllocated": 16,
      "BitsStored": 12,
      "BodyPartExamined": "BRAIN",
      "Columns": 480,
      "EchoNumbers": 1,
      "EchoTime": 35.0,
      "EchoTrainLength": 39,
      "FlipAngle": 90.0,
      "HighBit": 11,
      "ImageOrientationPatient": [0.98932779907029, -0.1456601803954, 0.00369023494033, 0.13745661865864, 0.94141146158913, 0.30797749589142],
      "ImagePositionPatient": [-806.55322768713, -562.32034846199, -283.91381627821],
      "ImageType": [
        "ORIGINAL",
        "PRIMARY",
        "M",
        "ND",
        "NORM",
        "MOSAIC"
],
      "ImagedNucleus": "1H",
      "ImagingFrequency": 123.252449,
      "InPlanePhaseEncodingDirection": "COL",
      "MRAcquisitionType": "2D",
      "MagneticFieldStrength": 3.0,
      "Manufacturer": "SIEMENS",
      "ManufacturerModelName": "Prisma",
      "Modality": "MR",
      "NumberOfAverages": 1.0,
      "NumberOfPhaseEncodingSteps": 79,
      "PercentPhaseFieldOfView": 100.0,
      "PercentSampling": 100.0,
      "PerformedProcedureStepStartTime": "093114.429000",
      "PhotometricInterpretation": "MONOCHROME2",
      "PixelBandwidth": 2315.0,
      "PixelRepresentation": 0,
      "PixelSpacing": [3.0, 3.0],
      "ProtocolName": "func-bold_task-rest_acq-p2",
      "RepetitionTime": 2000.0,
      "Rows": 480,
      "SAR": 0.06573434939262,
      "SamplesPerPixel": 1,
      "ScanOptions": "FS",
      "ScanningSequence": "EP",
      "SequenceName": "*epfid2d1_80",
      "SequenceVariant": "SK",
      "SeriesDescription": "func-bold_task-rest_acq-p2",
      "SeriesNumber": 5,
      "SeriesTime": "094601.928000",
      "SliceLocation": -60.07920968573,
      "SliceThickness": 3.5,
      "SmallestImagePixelValue": 0,
      "SoftwareVersions": "syngo MR E11",
      "SpacingBetweenSlices": 3.9899999985419,
      "SpecificCharacterSet": "ISO_IR 100",
      "StudyID": "24",
      "StudyTime": "093114.352000",
      "TransmitCoilName": "Body",
      "VariableFlipAngleFlag": "N",
      "WindowCenterWidthExplanation": "Algo1",
      "dBdt": 0.0},
    "slices": {}
  },
  "time": {
    "samples": {
      "AcquisitionNumber": [1, 2, 3, 4, 5, 6, 7, 8, 9, 10, 11, 12, 13, 14, 15, 16, 17, 18, 19, 20, 21, 22, 23, 24, 25, 26, 27, 28, 29, 30, 31, 32, 33, 34, 35, 36, 37, 38, 39, 40, 41, 42, 43, 44, 45, 46, 47, 48, 49, 50, 51, 52, 53, 54, 55, 56, 57, 58, 59, 60, 61, 62, 63, 64, 65, 66, 67, 68, 69, 70, 71, 72, 73, 74, 75, 76, 77, 78, 79, 80, 81, 82, 83, 84, 85, 86, 87, 88, 89, 90, 91, 92, 93, 94, 95, 96, 97, 98, 99, 100, 101, 102, 103, 104, 105, 106, 107, 108, 109, 110, 111, 112, 113, 114, 115, 116, 117, 118, 119, 120, 121, 122, 123, 124, 125, 126, 127, 128, 129, 130, 131, 132, 133, 134, 135, 136, 137, 138, 139, 140, 141, 142, 143, 144, 145, 146, 147, 148, 149, 150, 151, 152, 153, 154, 155, 156, 157, 158, 159, 160, 161, 162, 163, 164, 165, 166, 167, 168, 169, 170, 171, 172, 173, 174, 175, 176, 177, 178, 179, 180, 181, 182, 183, 184, 185, 186, 187, 188, 189, 190, 191, 192, 193, 194, 195, 196, 197, 198, 199, 200],
      "AcquisitionTime": ["094509.792500", "094511.792500", "094513.792500", "094515.792500", "094517.792500", "094519.792500", "094521.792500", "094523.792500", "094525.792500", "094527.792500", "094529.792500", "094531.792500", "094533.792500", "094535.792500", "094537.792500", "094539.792500", "094541.792500", "094543.792500", "094545.792500", "094547.792500", "094549.792500", "094551.792500", "094553.792500", "094555.792500", "094557.792500", "094559.792500", "094601.792500", "094603.792500", "094605.792500", "094607.792500", "094609.792500", "094611.792500", "094613.792500", "094615.792500", "094617.792500", "094619.792500", "094621.792500", "094623.792500", "094625.792500", "094627.792500", "094629.792500", "094631.792500", "094633.792500", "094635.792500", "094637.792500", "094639.792500", "094641.792500", "094643.792500", "094645.792500", "094647.792500", "094649.792500", "094651.792500", "094653.792500", "094655.792500", "094657.792500", "094659.792500", "094701.792500", "094703.792500", "094705.792500", "094707.792500", "094709.792500", "094711.792500", "094713.792500", "094715.792500", "094717.792500", "094719.792500", "094721.792500", "094723.792500", "094725.792500", "094727.792500", "094729.792500", "094731.792500", "094733.792500", "094735.792500", "094737.792500", "094739.792500", "094741.792500", "094743.792500", "094745.792500", "094747.792500", "094749.792500", "094751.792500", "094753.792500", "094755.792500", "094757.792500", "094759.792500", "094801.792500", "094803.792500", "094805.792500", "094807.792500", "094809.792500", "094811.792500", "094813.792500", "094815.792500", "094817.792500", "094819.792500", "094821.792500", "094823.792500", "094825.792500", "094827.792500", "094829.792500", "094831.792500", "094833.792500", "094835.792500", "094837.792500", "094839.792500", "094841.792500", "094843.792500", "094845.792500", "094847.792500", "094849.792500", "094851.792500", "094853.792500", "094855.792500", "094857.792500", "094859.792500", "094901.792500", "094903.792500", "094905.792500", "094907.792500", "094909.792500", "094911.792500", "094913.792500", "094915.792500", "094917.792500", "094919.792500", "094921.792500", "094923.792500", "094925.792500", "094927.792500", "094929.792500", "094931.792500", "094933.792500", "094935.792500", "094937.792500", "094939.792500", "094941.792500", "094943.792500", "094945.792500", "094947.792500", "094949.792500", "094951.792500", "094953.792500", "094955.792500", "094957.792500", "094959.792500", "095001.792500", "095003.792500", "095005.792500", "095007.792500", "095009.792500", "095011.792500", "095013.792500", "095015.792500", "095017.792500", "095019.792500", "095021.792500", "095023.792500", "095025.792500", "095027.792500", "095029.792500", "095031.792500", "095033.792500", "095035.792500", "095037.792500", "095039.792500", "095041.792500", "095043.792500", "095045.792500", "095047.792500", "095049.792500", "095051.792500", "095053.792500", "095055.792500", "095057.792500", "095059.792500", "095101.792500", "095103.792500", "095105.792500", "095107.792500", "095109.792500", "095111.792500", "095113.792500", "095115.792500", "095117.792500", "095119.792500", "095121.792500", "095123.792500", "095125.792500", "095127.792500", "095129.792500", "095131.792500", "095133.792500", "095135.792500", "095137.792500", "095139.792500", "095141.792500", "095143.792500", "095145.792500", "095147.792500"],
      "ContentTime": ["094601.932000", "094601.941000", "094601.944000", "094601.946000", "094601.949000", "094601.951000", "094601.954000", "094601.956000", "094601.959000", "094601.961000", "094601.964000", "094601.966000", "094601.969000", "094601.971000", "094601.974000", "094601.976000", "094601.979000", "094601.981000", "094601.984000", "094601.986000", "094601.989000", "094601.998000", "094602.002000", "094602.004000", "094602.007000", "094602.009000", "094641.905000", "094641.908000", "094641.911000", "094641.913000", "094641.916000", "094641.918000", "094641.921000", "094641.923000", "094641.926000", "094641.928000", "094641.931000", "094641.933000", "094641.936000", "094641.938000", "094641.941000", "094641.943000", "094641.946000", "094641.948000", "094641.951000", "094641.953000", "094721.904000", "094721.907000", "094721.910000", "094721.912000", "094721.915000", "094721.917000", "094721.920000", "094721.922000", "094721.925000", "094721.928000", "094721.930000", "094721.933000", "094721.935000", "094721.938000", "094721.940000", "094721.943000", "094721.945000", "094721.948000", "094721.950000", "094721.953000", "094801.906000", "094801.908000", "094801.911000", "094801.913000", "094801.916000", "094801.918000", "094801.921000", "094801.923000", "094801.926000", "094801.928000", "094801.931000", "094801.933000", "094801.936000", "094801.938000", "094801.941000", "094801.943000", "094801.946000", "094801.948000", "094801.951000", "094801.953000", "094841.905000", "094841.908000", "094841.911000", "094841.913000", "094841.916000", "094841.918000", "094841.921000", "094841.923000", "094841.926000", "094841.928000", "094841.931000", "094841.933000", "094841.936000", "094841.938000", "094841.941000", "094841.943000", "094841.946000", "094841.948000", "094841.951000", "094841.953000", "094921.906000", "094921.908000", "094921.911000", "094921.913000", "094921.916000", "094921.919000", "094921.921000", "094921.924000", "094921.926000", "094921.928000", "094921.931000", "094921.933000", "094921.936000", "094921.938000", "094921.941000", "094921.943000", "094921.946000", "094921.948000", "094921.951000", "094921.954000", "095001.904000", "095001.907000", "095001.910000", "095001.912000", "095001.915000", "095001.918000", "095001.920000", "095001.923000", "095001.925000", "095001.928000", "095001.930000", "095001.933000", "095001.935000", "095001.937000", "095001.940000", "095001.942000", "095001.945000", "095001.947000", "095001.950000", "095001.953000", "095041.906000", "095041.908000", "095041.911000", "095041.913000", "095041.916000", "095041.918000", "095041.921000", "095041.923000", "095041.926000", "095041.928000", "095041.931000", "095041.933000", "095041.936000", "095041.938000", "095041.941000", "095041.943000", "095041.946000", "095041.948000", "095041.951000", "095041.954000", "095101.905000", "095101.908000", "095101.911000", "095101.913000", "095101.916000", "095101.918000", "095101.921000", "095101.923000", "095101.926000", "095101.928000", "095141.906000", "095141.908000", "095141.911000", "095141.914000", "095141.916000", "095141.919000", "095141.921000", "095141.924000", "095141.926000", "095141.929000", "095141.931000", "095141.934000", "095141.936000", "095141.939000", "095141.941000", "095141.944000", "095141.946000", "095141.949000", "095141.951000", "095141.954000", "095148.872000", "095148.875000", "095148.877000", "095148.880000"],
      "InstanceCreationTime": ["094601.932000", "094601.941000", "094601.944000", "094601.946000", "094601.949000", "094601.951000", "094601.954000", "094601.956000", "094601.959000", "094601.961000", "094601.964000", "094601.966000", "094601.969000", "094601.971000", "094601.974000", "094601.976000", "094601.979000", "094601.981000", "094601.984000", "094601.986000", "094601.989000", "094601.998000", "094602.002000", "094602.004000", "094602.007000", "094602.009000", "094641.905000", "094641.908000", "094641.911000", "094641.913000", "094641.916000", "094641.918000", "094641.921000", "094641.923000", "094641.926000", "094641.928000", "094641.931000", "094641.933000", "094641.936000", "094641.938000", "094641.941000", "094641.943000", "094641.946000", "094641.948000", "094641.951000", "094641.953000", "094721.904000", "094721.907000", "094721.910000", "094721.912000", "094721.915000", "094721.917000", "094721.920000", "094721.922000", "094721.925000", "094721.928000", "094721.930000", "094721.933000", "094721.935000", "094721.938000", "094721.940000", "094721.943000", "094721.945000", "094721.948000", "094721.950000", "094721.953000", "094801.906000", "094801.908000", "094801.911000", "094801.913000", "094801.916000", "094801.918000", "094801.921000", "094801.923000", "094801.926000", "094801.928000", "094801.931000", "094801.933000", "094801.936000", "094801.938000", "094801.941000", "094801.943000", "094801.946000", "094801.948000", "094801.951000", "094801.953000", "094841.905000", "094841.908000", "094841.911000", "094841.913000", "094841.916000", "094841.918000", "094841.921000", "094841.923000", "094841.926000", "094841.928000", "094841.931000", "094841.933000", "094841.936000", "094841.938000", "094841.941000", "094841.943000", "094841.946000", "094841.948000", "094841.951000", "094841.953000", "094921.906000", "094921.908000", "094921.911000", "094921.913000", "094921.916000", "094921.919000", "094921.921000", "094921.924000", "094921.926000", "094921.928000", "094921.931000", "094921.933000", "094921.936000", "094921.938000", "094921.941000", "094921.943000", "094921.946000", "094921.948000", "094921.951000", "094921.954000", "095001.904000", "095001.907000", "095001.910000", "095001.912000", "095001.915000", "095001.918000", "095001.920000", "095001.923000", "095001.925000", "095001.928000", "095001.930000", "095001.933000", "095001.935000", "095001.937000", "095001.940000", "095001.942000", "095001.945000", "095001.947000", "095001.950000", "095001.953000", "095041.906000", "095041.908000", "095041.911000", "095041.913000", "095041.916000", "095041.918000", "095041.921000", "095041.923000", "095041.926000", "095041.928000", "095041.931000", "095041.933000", "095041.936000", "095041.938000", "095041.941000", "095041.943000", "095041.946000", "095041.948000", "095041.951000", "095041.954000", "095101.905000", "095101.908000", "095101.911000", "095101.913000", "095101.916000", "095101.918000", "095101.921000", "095101.923000", "095101.926000", "095101.928000", "095141.906000", "095141.908000", "095141.911000", "095141.914000", "095141.916000", "095141.919000", "095141.921000", "095141.924000", "095141.926000", "095141.929000", "095141.931000", "095141.934000", "095141.936000", "095141.939000", "095141.941000", "095141.944000", "095141.946000", "095141.949000", "095141.951000", "095141.954000", "095148.872000", "095148.875000", "095148.877000", "095148.880000"],
      "InstanceNumber": [1, 2, 3, 4, 5, 6, 7, 8, 9, 10, 11, 12, 13, 14, 15, 16, 17, 18, 19, 20, 21, 22, 23, 24, 25, 26, 27, 28, 29, 30, 31, 32, 33, 34, 35, 36, 37, 38, 39, 40, 41, 42, 43, 44, 45, 46, 47, 48, 49, 50, 51, 52, 53, 54, 55, 56, 57, 58, 59, 60, 61, 62, 63, 64, 65, 66, 67, 68, 69, 70, 71, 72, 73, 74, 75, 76, 77, 78, 79, 80, 81, 82, 83, 84, 85, 86, 87, 88, 89, 90, 91, 92, 93, 94, 95, 96, 97, 98, 99, 100, 101, 102, 103, 104, 105, 106, 107, 108, 109, 110, 111, 112, 113, 114, 115, 116, 117, 118, 119, 120, 121, 122, 123, 124, 125, 126, 127, 128, 129, 130, 131, 132, 133, 134, 135, 136, 137, 138, 139, 140, 141, 142, 143, 144, 145, 146, 147, 148, 149, 150, 151, 152, 153, 154, 155, 156, 157, 158, 159, 160, 161, 162, 163, 164, 165, 166, 167, 168, 169, 170, 171, 172, 173, 174, 175, 176, 177, 178, 179, 180, 181, 182, 183, 184, 185, 186, 187, 188, 189, 190, 191, 192, 193, 194, 195, 196, 197, 198, 199, 200],
      "LargestImagePixelValue": [1911, 1904, 1914, 1897, 1901, 1903, 1904, 1900, 1908, 1905, 1905, 1904, 1903, 1902, 1905, 1897, 1905, 1908, 1905, 1910, 1907, 1903, 1909, 1902, 1905, 1911, 1902, 1908, 1911, 1905, 1901, 1900, 1901, 1904, 1908, 1904, 1903, 1906, 1907, 1900, 1902, 1902, 1906, 1910, 1897, 1902, 1897, 1902, 1906, 1904, 1902, 1907, 1909, 1910, 1913, 1912, 1914, 1904, 1906, 1905, 1906, 1905, 1908, 1907, 1901, 1901, 1902, 1917, 1903, 1913, 1900, 1902, 1912, 1911, 1906, 1900, 1905, 1905, 1910, 1904, 1902, 1907, 1914, 1908, 1901, 1898, 1901, 1909, 1904, 1910, 1911, 1899, 1906, 1908, 1901, 1903, 1905, 1904, 1901, 1905, 1905, 1909, 1907, 1902, 1898, 1902, 1905, 1908, 1895, 1907, 1904, 1903, 1909, 1906, 1902, 1905, 1900, 1908, 1902, 1909, 1907, 1902, 1910, 1902, 1902, 1909, 1907, 1899, 1907, 1907, 1905, 1901, 1905, 1907, 1907, 1902, 1911, 1905, 1899, 1899, 1906, 1906, 1908, 1901, 1899, 1897, 1906, 1902, 1911, 1912, 1907, 1900, 1907, 1897, 1912, 1914, 1911, 1898, 1899, 1901, 1904, 1894, 1900, 1910, 1902, 1903, 1908, 1910, 1897, 1899, 1897, 1905, 1898, 1906, 1901, 1912, 1908, 1907, 1898, 1901, 1902, 1907, 1917, 1899, 1901, 1910, 1910, 1901, 1899, 1906, 1906, 1902, 1900, 1900, 1902, 1907, 1897, 1902, 1906, 1913],
      "WindowCenter": [944.0, 944.0, 944.0, 944.0, 944.0, 944.0, 944.0, 943.0, 944.0, 944.0, 944.0, 944.0, 944.0, 944.0, 944.0, 944.0, 944.0, 944.0, 944.0, 944.0, 944.0, 944.0, 944.0, 944.0, 944.0, 943.0, 944.0, 943.0, 943.0, 944.0, 943.0, 943.0, 944.0, 944.0, 944.0, 943.0, 943.0, 943.0, 943.0, 943.0, 943.0, 943.0, 943.0, 943.0, 943.0, 943.0, 943.0, 943.0, 943.0, 943.0, 943.0, 943.0, 943.0, 943.0, 943.0, 943.0, 943.0, 943.0, 943.0, 943.0, 943.0, 943.0, 944.0, 943.0, 943.0, 943.0, 943.0, 944.0, 943.0, 943.0, 943.0, 943.0, 943.0, 943.0, 943.0, 943.0, 943.0, 943.0, 944.0, 943.0, 943.0, 943.0, 943.0, 943.0, 943.0, 943.0, 943.0, 943.0, 943.0, 943.0, 943.0, 944.0, 943.0, 943.0, 943.0, 943.0, 943.0, 943.0, 943.0, 943.0, 943.0, 943.0, 943.0, 943.0, 943.0, 943.0, 943.0, 943.0, 943.0, 944.0, 943.0, 943.0, 943.0, 943.0, 943.0, 943.0, 943.0, 943.0, 943.0, 943.0, 943.0, 943.0, 943.0, 943.0, 943.0, 943.0, 943.0, 943.0, 943.0, 943.0, 943.0, 943.0, 943.0, 943.0, 943.0, 943.0, 943.0, 943.0, 944.0, 943.0, 943.0, 943.0, 943.0, 943.0, 943.0, 943.0, 943.0, 944.0, 943.0, 944.0, 943.0, 943.0, 943.0, 943.0, 943.0, 943.0, 943.0, 943.0, 943.0, 943.0, 943.0, 943.0, 943.0, 943.0, 943.0, 943.0, 944.0, 943.0, 943.0, 943.0, 943.0, 943.0, 943.0, 943.0, 943.0, 943.0, 943.0, 943.0, 943.0, 943.0, 943.0, 943.0, 943.0, 943.0, 943.0, 943.0, 943.0, 943.0, 943.0, 944.0, 943.0, 944.0, 943.0, 943.0, 943.0, 943.0, 943.0, 943.0, 943.0, 943.0],
      "WindowWidth": [2042.0, 2041.0, 2041.0, 2041.0, 2041.0, 2041.0, 2041.0, 2041.0, 2041.0, 2041.0, 2041.0, 2041.0, 2041.0, 2041.0, 2041.0, 2041.0, 2041.0, 2041.0, 2041.0, 2041.0, 2041.0, 2041.0, 2041.0, 2041.0, 2041.0, 2041.0, 2040.0, 2041.0, 2041.0, 2041.0, 2040.0, 2040.0, 2041.0, 2040.0, 2040.0, 2040.0, 2041.0, 2041.0, 2041.0, 2041.0, 2041.0, 2040.0, 2041.0, 2041.0, 2040.0, 2040.0, 2040.0, 2040.0, 2040.0, 2040.0, 2040.0, 2040.0, 2041.0, 2041.0, 2041.0, 2041.0, 2041.0, 2041.0, 2041.0, 2040.0, 2041.0, 2040.0, 2041.0, 2040.0, 2041.0, 2040.0, 2041.0, 2041.0, 2040.0, 2041.0, 2040.0, 2040.0, 2041.0, 2041.0, 2041.0, 2040.0, 2041.0, 2040.0, 2041.0, 2041.0, 2041.0, 2041.0, 2040.0, 2041.0, 2041.0, 2040.0, 2040.0, 2040.0, 2041.0, 2041.0, 2040.0, 2041.0, 2041.0, 2040.0, 2041.0, 2041.0, 2040.0, 2040.0, 2041.0, 2040.0, 2041.0, 2041.0, 2041.0, 2040.0, 2041.0, 2040.0, 2040.0, 2040.0, 2041.0, 2041.0, 2040.0, 2040.0, 2040.0, 2040.0, 2040.0, 2040.0, 2041.0, 2040.0, 2040.0, 2040.0, 2040.0, 2040.0, 2040.0, 2040.0, 2041.0, 2040.0, 2041.0, 2041.0, 2041.0, 2040.0, 2040.0, 2040.0, 2040.0, 2040.0, 2041.0, 2040.0, 2041.0, 2041.0, 2041.0, 2040.0, 2040.0, 2040.0, 2041.0, 2040.0, 2040.0, 2040.0, 2040.0, 2041.0, 2041.0, 2041.0, 2040.0, 2040.0, 2040.0, 2040.0, 2041.0, 2040.0, 2040.0, 2040.0, 2040.0, 2040.0, 2040.0, 2041.0, 2040.0, 2041.0, 2040.0, 2040.0, 2041.0, 2040.0, 2040.0, 2040.0, 2040.0, 2040.0, 2040.0, 2040.0, 2040.0, 2040.0, 2040.0, 2040.0, 2040.0, 2040.0, 2040.0, 2040.0, 2040.0, 2040.0, 2040.0, 2040.0, 2040.0, 2040.0, 2041.0, 2041.0, 2040.0, 2041.0, 2040.0, 2040.0, 2040.0, 2040.0, 2040.0, 2040.0, 2040.0, 2040.0]
    },
    "slices": {}
  }
}