{
  "AcquisitionMatrixPE": 80,
  "AcquisitionNumber": 1,
  "AcquisitionTime": "09:50:52.092500",
  "BandwidthPerPixelPhaseEncode": 46.296,
  "BaseResolution": 80,
  "BodyPartExamined": "BRAIN",
  "CoilCombinationMethod": "Sum of Squares",
  "ConsistencyInfo": "N4_VE11E_LATEST_20181129",
  "ConversionSoftware": "dcm2niix",
  "ConversionSoftwareVersion": "v1.0.20220720",
  "DerivedVendorReportedEchoSpacing": 0.000540003,
  "DeviceSerialNumber": "66112",
  "DwellTime": 2.7e-06,
  "EchoTime": 0.035,
  "EchoTrainLength": 39,
  "EffectiveEchoSpacing": 0.000270002,
  "FlipAngle": 90,
  "HeudiconvVersion": "0.13.1",
  "ImageOrientationPatientDICOM": [0.999962, 0.00697901, 0.00513703, -0.00820286, 0.953459, 0.30141],
  "ImageOrientationText": "Tra>Cor(17.5)>Sag(0.2)",
  "ImageType": [
    "ORIGINAL",
    "PRIMARY",
    "M",
    "ND",
    "NORM",
    "MOSAIC"
],
  "ImagingFrequency": 123.259,
  "InPlanePhaseEncodingDirectionDICOM": "COL",
  "InstitutionAddress": "Maynard 3,Hanover,NH,US,03755",
  "InstitutionName": "Dartmouth College - PBS",
  "InstitutionalDepartmentName": "Department",
  "MRAcquisitionType": "2D",
  "MagneticFieldStrength": 3,
  "Manufacturer": "Siemens",
  "ManufacturersModelName": "Prisma",
  "Modality": "MR",
  "MultibandAccelerationFactor": 4,
  "NonlinearGradientCorrection": false,
  "ParallelReductionFactorInPlane": 2,
  "PartialFourier": 1,
  "PatientPosition": "HFS",
  "PercentPhaseFOV": 100,
  "PercentSampling": 100,
  "PhaseEncodingDirection": "j-",
  "PhaseEncodingSteps": 79,
  "PhaseResolution": 1,
  "PixelBandwidth": 2315,
  "ProcedureStepDescription": "dbic^QA",
  "ProtocolName": "func-bold_task-rest_acq-p2-s4-3.5mm",
  "PulseSequenceDetails": "%SiemensSeq%\\ep2d_bold",
  "ReceiveCoilActiveElements": "HEA;HEP",
  "ReceiveCoilName": "Head_32",
  "ReconMatrixPE": 80,
  "RefLinesPE": 24,
  "RepetitionTime": 2,
  "SAR": 0.0269203,
  "ScanOptions": "FS",
  "ScanningSequence": "EP",
  "SequenceName": "*epfid2d1_80",
  "SequenceVariant": "SK",
  "SeriesDescription": "func-bold_task-rest_acq-p2-s4-3.5mm",
  "SeriesNumber": 6,
  "ShimSetting": [4227, -7746, -7511, -51, -107, -149, 47, 91],
  "SliceThickness": 3.5,
  "SliceTiming": [1.485, 0, 0.99, 0.2475, 1.2375, 0.7425, 1.7325, 0.495, 1.485, 0, 0.99, 0.2475, 1.2375, 0.7425, 1.7325, 0.495, 1.485, 0, 0.99, 0.2475, 1.2375, 0.7425, 1.7325, 0.495, 1.485, 0, 0.99, 0.2475, 1.2375, 0.7425, 1.7325, 0.495],
  "SoftwareVersions": "syngo MR E11",
  "SpacingBetweenSlices": 3.99,
  "StationName": "AWP66112",
  "TaskName": "rest",
  "TotalReadoutTime": 0.0213301,
  "TxRefAmp": 221.866,
  "dcmmeta_affine": [
    [-2.999887466430664, -0.02460857480764389, 0.011149662546813488, 121.0126724243164],
    [-0.02093701809644699, 2.860377788543701, 1.2027499675750732, -123.88085174560547],
    [0.015411079861223698, -0.9042307734489441, 3.8043880462646484, -24.18403434753418],
    [0.0, 0.0, 0.0, 1.0]
],
  "dcmmeta_reorient_transform": [
    [0.0, -1.0, 0.0, 79.0],
    [1.0, 0.0, 0.0, 0.0],
    [0.0, 0.0, 1.0, 0.0],
    [0.0, 0.0, 0.0, 1.0]
],
  "dcmmeta_shape": [80, 80, 32, 200],
  "dcmmeta_slice_dim": 2,
  "dcmmeta_version": 0.6,
  "global": {
    "const": {
      "AccessionNumber": "qa",
      "AcquisitionMatrix": [80, 0, 0, 80],
      "AngioFlag": "N",
      "BitsAllocated": 16,
      "BitsStored": 12,
      "BodyPartExamined": "BRAIN",
      "Columns": 480,
      "EchoNumbers": 1,
      "EchoTime": 35.0,
      "EchoTrainLength": 39,
      "FlipAngle": 90.0,
      "HighBit": 11,
      "ImageOrientationPatient": [0.99996245151258, 0.0069790057494, 0.00513702673796, -0.0082028582781, 0.95345926166274, 0.30141026768447],
      "ImagePositionPatient": [-714.12435199559, -678.35195256879, -279.54664399465],
      "ImageType": [
        "ORIGINAL",
        "PRIMARY",
        "M",
        "ND",
        "NORM",
        "MOSAIC"
],
      "ImagedNucleus": "1H",
      "ImagingFrequency": 123.259147,
      "InPlanePhaseEncodingDirection": "COL",
      "MRAcquisitionType": "2D",
      "MagneticFieldStrength": 3.0,
      "Manufacturer": "SIEMENS",
      "ManufacturerModelName": "Prisma",
      "Modality": "MR",
      "NumberOfAverages": 1.0,
      "NumberOfPhaseEncodingSteps": 79,
      "PercentPhaseFieldOfView": 100.0,
      "PercentSampling": 100.0,
      "PerformedProcedureStepStartTime": "093942.588000",
      "PhotometricInterpretation": "MONOCHROME2",
      "PixelBandwidth": 2315.0,
      "PixelRepresentation": 0,
      "PixelSpacing": [3.0, 3.0],
      "ProtocolName": "func-bold_task-rest_acq-p2-s4-3.5mm",
      "RepetitionTime": 2000.0,
      "Rows": 480,
      "SAR": 0.02692029738489,
      "SamplesPerPixel": 1,
      "ScanOptions": "FS",
      "ScanningSequence": "EP",
      "SequenceName": "*epfid2d1_80",
      "SequenceVariant": "SK",
      "SeriesDescription": "func-bold_task-rest_acq-p2-s4-3.5mm",
      "SeriesNumber": 6,
      "SeriesTime": "095144.905000",
      "SliceLocation": -60.063630892054,
      "SliceThickness": 3.5,
      "SmallestImagePixelValue": 0,
      "SoftwareVersions": "syngo MR E11",
      "SpacingBetweenSlices": 3.9899999647544,
      "SpecificCharacterSet": "ISO_IR 100",
      "StudyID": "44",
      "StudyTime": "093942.484000",
      "TransmitCoilName": "Body",
      "VariableFlipAngleFlag": "N",
      "WindowCenterWidthExplanation": "Algo1"
    },
    "slices": {}
  },
  "time": {
    "samples": {
      "AcquisitionNumber": [1, 2, 3, 4, 5, 6, 7, 8, 9, 10, 11, 12, 13, 14, 15, 16, 17, 18, 19, 20, 21, 22, 23, 24, 25, 26, 27, 28, 29, 30, 31, 32, 33, 34, 35, 36, 37, 38, 39, 40, 41, 42, 43, 44, 45, 46, 47, 48, 49, 50, 51, 52, 53, 54, 55, 56, 57, 58, 59, 60, 61, 62, 63, 64, 65, 66, 67, 68, 69, 70, 71, 72, 73, 74, 75, 76, 77, 78, 79, 80, 81, 82, 83, 84, 85, 86, 87, 88, 89, 90, 91, 92, 93, 94, 95, 96, 97, 98, 99, 100, 101, 102, 103, 104, 105, 106, 107, 108, 109, 110, 111, 112, 113, 114, 115, 116, 117, 118, 119, 120, 121, 122, 123, 124, 125, 126, 127, 128, 129, 130, 131, 132, 133, 134, 135, 136, 137, 138, 139, 140, 141, 142, 143, 144, 145, 146, 147, 148, 149, 150, 151, 152, 153, 154, 155, 156, 157, 158, 159, 160, 161, 162, 163, 164, 165, 166, 167, 168, 169, 170, 171, 172, 173, 174, 175, 176, 177, 178, 179, 180, 181, 182, 183, 184, 185, 186, 187, 188, 189, 190, 191, 192, 193, 194, 195, 196, 197, 198, 199, 200],
      "AcquisitionTime": ["095052.092500", "095054.092500", "095056.092500", "095058.092500", "095100.092500", "095102.092500", "095104.092500", "095106.092500", "095108.092500", "095110.092500", "095112.092500", "095114.092500", "095116.092500", "095118.092500", "095120.092500", "095122.092500", "095124.092500", "095126.092500", "095128.092500", "095130.092500", "095132.092500", "095134.092500", "095136.092500", "095138.092500", "095140.092500", "095142.092500", "095144.092500", "095146.092500", "095148.092500", "095150.092500", "095152.092500", "095154.092500", "095156.092500", "095158.092500", "095200.092500", "095202.092500", "095204.092500", "095206.092500", "095208.092500", "095210.092500", "095212.092500", "095214.092500", "095216.092500", "095218.092500", "095220.092500", "095222.092500", "095224.092500", "095226.092500", "095228.092500", "095230.092500", "095232.092500", "095234.092500", "095236.092500", "095238.092500", "095240.092500", "095242.092500", "095244.092500", "095246.092500", "095248.092500", "095250.092500", "095252.092500", "095254.092500", "095256.092500", "095258.092500", "095300.092500", "095302.092500", "095304.092500", "095306.092500", "095308.092500", "095310.092500", "095312.092500", "095314.092500", "095316.092500", "095318.092500", "095320.092500", "095322.092500", "095324.092500", "095326.092500", "095328.092500", "095330.092500", "095332.092500", "095334.092500", "095336.092500", "095338.092500", "095340.092500", "095342.092500", "095344.092500", "095346.092500", "095348.092500", "095350.092500", "095352.092500", "095354.092500", "095356.092500", "095358.092500", "095400.092500", "095402.092500", "095404.092500", "095406.092500", "095408.092500", "095410.092500", "095412.092500", "095414.092500", "095416.092500", "095418.092500", "095420.092500", "095422.092500", "095424.092500", "095426.092500", "095428.092500", "095430.092500", "095432.092500", "095434.092500", "095436.092500", "095438.092500", "095440.092500", "095442.092500", "095444.092500", "095446.092500", "095448.092500", "095450.092500", "095452.092500", "095454.092500", "095456.092500", "095458.092500", "095500.092500", "095502.092500", "095504.092500", "095506.092500", "095508.092500", "095510.092500", "095512.092500", "095514.092500", "095516.092500", "095518.092500", "095520.092500", "095522.092500", "095524.092500", "095526.092500", "095528.092500", "095530.092500", "095532.092500", "095534.092500", "095536.092500", "095538.092500", "095540.092500", "095542.092500", "095544.092500", "095546.092500", "095548.092500", "095550.092500", "095552.092500", "095554.092500", "095556.092500", "095558.092500", "095600.092500", "095602.092500", "095604.092500", "095606.092500", "095608.092500", "095610.092500", "095612.092500", "095614.092500", "095616.092500", "095618.092500", "095620.092500", "095622.092500", "095624.092500", "095626.092500", "095628.092500", "095630.092500", "095632.092500", "095634.092500", "095636.092500", "095638.092500", "095640.092500", "095642.092500", "095644.092500", "095646.092500", "095648.092500", "095650.092500", "095652.092500", "095654.092500", "095656.092500", "095658.092500", "095700.092500", "095702.092500", "095704.092500", "095706.092500", "095708.092500", "095710.092500", "095712.092500", "095714.092500", "095716.092500", "095718.092500", "095720.092500", "095722.092500", "095724.092500", "095726.092500", "095728.092500", "095730.092500"],
      "ContentTime": ["095144.908000", "095144.919000", "095144.931000", "095144.933000", "095144.936000", "095144.938000", "095144.940000", "095144.943000", "095144.945000", "095144.950000", "095144.953000", "095144.955000", "095144.958000", "095144.960000", "095144.962000", "095144.965000", "095144.967000", "095144.969000", "095144.971000", "095144.974000", "095144.976000", "095144.979000", "095144.981000", "095144.983000", "095144.986000", "095144.988000", "095144.990000", "095224.902000", "095224.905000", "095224.907000", "095224.909000", "095224.912000", "095224.914000", "095224.916000", "095224.919000", "095224.921000", "095224.923000", "095224.932000", "095224.935000", "095224.937000", "095224.939000", "095224.942000", "095224.944000", "095224.947000", "095224.949000", "095224.951000", "095224.953000", "095304.902000", "095304.905000", "095304.907000", "095304.910000", "095304.912000", "095304.914000", "095304.917000", "095304.919000", "095304.921000", "095304.924000", "095304.926000", "095304.929000", "095304.931000", "095304.933000", "095304.936000", "095304.942000", "095304.944000", "095304.946000", "095304.949000", "095304.951000", "095344.902000", "095344.905000", "095344.907000", "095344.910000", "095344.912000", "095344.914000", "095344.917000", "095344.919000", "095344.921000", "095344.924000", "095344.926000", "095344.928000", "095344.931000", "095344.933000", "095344.935000", "095344.938000", "095344.940000", "095344.942000", "095344.945000", "095344.947000", "095424.902000", "095424.905000", "095424.907000", "095424.909000", "095424.912000", "095424.914000", "095424.917000", "095424.919000", "095424.922000", "095424.924000", "095424.927000", "095424.929000", "095424.932000", "095424.934000", "095424.936000", "095424.939000", "095424.941000", "095424.943000", "095424.946000", "095424.948000", "095504.902000", "095504.905000", "095504.907000", "095504.909000", "095504.912000", "095504.914000", "095504.916000", "095504.919000", "095504.921000", "095504.923000", "095504.926000", "095504.928000", "095504.930000", "095504.933000", "095504.935000", "095504.937000", "095504.940000", "095504.942000", "095504.944000", "095504.946000", "095544.902000", "095544.905000", "095544.907000", "095544.910000", "095544.912000", "095544.915000", "095544.917000", "095544.919000", "095544.922000", "095544.924000", "095544.926000", "095544.929000", "095544.931000", "095544.933000", "095544.936000", "095544.938000", "095544.941000", "095544.943000", "095544.945000", "095544.948000", "095624.902000", "095624.905000", "095624.907000", "095624.909000", "095624.912000", "095624.914000", "095624.916000", "095624.919000", "095624.921000", "095624.924000", "095624.926000", "095624.928000", "095624.931000", "095624.933000", "095624.935000", "095624.938000", "095624.940000", "095624.942000", "095624.945000", "095624.947000", "095704.902000", "095704.905000", "095704.907000", "095704.910000", "095704.921000", "095704.923000", "095704.925000", "095704.928000", "095704.930000", "095704.932000", "095704.935000", "095704.937000", "095704.939000", "095704.942000", "095704.944000", "095704.946000", "095704.949000", "095704.951000", "095704.953000", "095704.956000", "095730.759000", "095730.762000", "095730.764000", "095730.767000", "095730.769000", "095730.771000", "095730.774000", "095730.776000", "095730.779000", "095730.781000", "095730.783000", "095730.786000", "095730.788000"],
      "InstanceCreationTime": ["095144.908000", "095144.919000", "095144.931000", "095144.933000", "095144.936000", "095144.938000", "095144.940000", "095144.943000", "095144.945000", "095144.950000", "095144.953000", "095144.955000", "095144.958000", "095144.960000", "095144.962000", "095144.965000", "095144.967000", "095144.969000", "095144.971000", "095144.974000", "095144.976000", "095144.979000", "095144.981000", "095144.983000", "095144.986000", "095144.988000", "095144.990000", "095224.902000", "095224.905000", "095224.907000", "095224.909000", "095224.912000", "095224.914000", "095224.916000", "095224.919000", "095224.921000", "095224.923000", "095224.932000", "095224.935000", "095224.937000", "095224.939000", "095224.942000", "095224.944000", "095224.947000", "095224.949000", "095224.951000", "095224.953000", "095304.902000", "095304.905000", "095304.907000", "095304.910000", "095304.912000", "095304.914000", "095304.917000", "095304.919000", "095304.921000", "095304.924000", "095304.926000", "095304.929000", "095304.931000", "095304.933000", "095304.936000", "095304.942000", "095304.944000", "095304.946000", "095304.949000", "095304.951000", "095344.902000", "095344.905000", "095344.907000", "095344.910000", "095344.912000", "095344.914000", "095344.917000", "095344.919000", "095344.921000", "095344.924000", "095344.926000", "095344.928000", "095344.931000", "095344.933000", "095344.935000", "095344.938000", "095344.940000", "095344.942000", "095344.945000", "095344.947000", "095424.902000", "095424.905000", "095424.907000", "095424.909000", "095424.912000", "095424.914000", "095424.917000", "095424.919000", "095424.922000", "095424.924000", "095424.927000", "095424.929000", "095424.932000", "095424.934000", "095424.936000", "095424.939000", "095424.941000", "095424.943000", "095424.946000", "095424.948000", "095504.902000", "095504.905000", "095504.907000", "095504.909000", "095504.912000", "095504.914000", "095504.916000", "095504.919000", "095504.921000", "095504.923000", "095504.926000", "095504.928000", "095504.930000", "095504.933000", "095504.935000", "095504.937000", "095504.940000", "095504.942000", "095504.944000", "095504.946000", "095544.902000", "095544.905000", "095544.907000", "095544.910000", "095544.912000", "095544.915000", "095544.917000", "095544.919000", "095544.922000", "095544.924000", "095544.926000", "095544.929000", "095544.931000", "095544.933000", "095544.936000", "095544.938000", "095544.941000", "095544.943000", "095544.945000", "095544.948000", "095624.902000", "095624.905000", "095624.907000", "095624.909000", "095624.912000", "095624.914000", "095624.916000", "095624.919000", "095624.921000", "095624.924000", "095624.926000", "095624.928000", "095624.931000", "095624.933000", "095624.935000", "095624.938000", "095624.940000", "095624.942000", "095624.945000", "095624.947000", "095704.902000", "095704.905000", "095704.907000", "095704.910000", "095704.921000", "095704.923000", "095704.925000", "095704.928000", "095704.930000", "095704.932000", "095704.935000", "095704.937000", "095704.939000", "095704.942000", "095704.944000", "095704.946000", "095704.949000", "095704.951000", "095704.953000", "095704.956000", "095730.759000", "095730.762000", "095730.764000", "095730.767000", "095730.769000", "095730.771000", "095730.774000", "095730.776000", "095730.779000", "095730.781000", "095730.783000", "095730.786000", "095730.788000"],
      "InstanceNumber": [1, 2, 3, 4, 5, 6, 7, 8, 9, 10, 11, 12, 13, 14, 15, 16, 17, 18, 19, 20, 21, 22, 23, 24, 25, 26, 27, 28, 29, 30, 31, 32, 33, 34, 35, 36, 37, 38, 39, 40, 41, 42, 43, 44, 45, 46, 47, 48, 49, 50, 51, 52, 53, 54, 55, 56, 57, 58, 59, 60, 61, 62, 63, 64, 65, 66, 67, 68, 69, 70, 71, 72, 73, 74, 75, 76, 77, 78, 79, 80, 81, 82, 83, 84, 85, 86, 87, 88, 89, 90, 91, 92, 93, 94, 95, 96, 97, 98, 99, 100, 101, 102, 103, 104, 105, 106, 107, 108, 109, 110, 111, 112, 113, 114, 115, 116, 117, 118, 119, 120, 121, 122, 123, 124, 125, 126, 127, 128, 129, 130, 131, 132, 133, 134, 135, 136, 137, 138, 139, 140, 141, 142, 143, 144, 145, 146, 147, 148, 149, 150, 151, 152, 153, 154, 155, 156, 157, 158, 159, 160, 161, 162, 163, 164, 165, 166, 167, 168, 169, 170, 171, 172, 173, 174, 175, 176, 177, 178, 179, 180, 181, 182, 183, 184, 185, 186, 187, 188, 189, 190, 191, 192, 193, 194, 195, 196, 197, 198, 199, 200],
      "LargestImagePixelValue": [2557, 2556, 2555, 2558, 2553, 2558, 2554, 2556, 2555, 2556, 2555, 2559, 2553, 2552, 2553, 2554, 2552, 2560, 2553, 2559, 2557, 2557, 2552, 2557, 2555, 2561, 2552, 2554, 2550, 2559, 2557, 2556, 2553, 2556, 2554, 2559, 2555, 2555, 2555, 2554, 2561, 2556, 2555, 2555, 2557, 2555, 2553, 2557, 2559, 2557, 2556, 2556, 2558, 2558, 2555, 2558, 2556, 2555, 2556, 2555, 2557, 2554, 2561, 2551, 2557, 2559, 2563, 2552, 2557, 2556, 2557, 2555, 2558, 2556, 2559, 2554, 2559, 2555, 2556, 2554, 2558, 2556, 2556, 2559, 2554, 2561, 2554, 2553, 2558, 2553, 2559, 2552, 2553, 2559, 2554, 2559, 2555, 2560, 2556, 2556, 2551, 2560, 2556, 2556, 2557, 2556, 2557, 2556, 2555, 2558, 2555, 2558, 2557, 2556, 2550, 2560, 2554, 2555, 2555, 2555, 2556, 2558, 2555, 2557, 2557, 2557, 2557, 2558, 2561, 2558, 2558, 2557, 2554, 2559, 2557, 2555, 2559, 2554, 2557, 2554, 2559, 2553, 2558, 2553, 2561, 2554, 2559, 2553, 2561, 2554, 2561, 2555, 2556, 2553, 2559, 2553, 2558, 2557, 2558, 2560, 2559, 2554, 2557, 2550, 2557, 2554, 2557, 2557, 2557, 2559, 2552, 2559, 2552, 2550, 2557, 2557, 2558, 2557, 2555, 2557, 2557, 2562, 2554, 2556, 2554, 2558, 2552, 2562, 2558, 2555, 2556, 2554, 2551, 2560, 2553, 2558, 2554, 2562, 2553, 2560],
      "WindowCenter": [989.0, 989.0, 988.0, 989.0, 989.0, 989.0, 988.0, 988.0, 988.0, 990.0, 988.0, 988.0, 988.0, 988.0, 990.0, 990.0, 988.0, 989.0, 988.0, 988.0, 989.0, 988.0, 989.0, 988.0, 988.0, 988.0, 988.0, 989.0, 989.0, 988.0, 988.0, 988.0, 988.0, 989.0, 988.0, 989.0, 988.0, 989.0, 988.0, 989.0, 988.0, 989.0, 988.0, 989.0, 989.0, 989.0, 989.0, 990.0, 989.0, 988.0, 987.0, 989.0, 988.0, 989.0, 989.0, 988.0, 989.0, 989.0, 989.0, 989.0, 989.0, 989.0, 989.0, 989.0, 989.0, 989.0, 988.0, 988.0, 989.0, 989.0, 989.0, 989.0, 990.0, 988.0, 989.0, 989.0, 989.0, 988.0, 989.0, 989.0, 988.0, 989.0, 988.0, 988.0, 988.0, 989.0, 989.0, 989.0, 988.0, 989.0, 989.0, 988.0, 989.0, 990.0, 989.0, 989.0, 989.0, 989.0, 988.0, 989.0, 989.0, 990.0, 989.0, 989.0, 989.0, 988.0, 990.0, 989.0, 988.0, 989.0, 990.0, 989.0, 989.0, 989.0, 989.0, 988.0, 989.0, 989.0, 988.0, 988.0, 989.0, 988.0, 988.0, 989.0, 988.0, 988.0, 989.0, 989.0, 989.0, 989.0, 988.0, 990.0, 990.0, 989.0, 989.0, 988.0, 989.0, 989.0, 989.0, 989.0, 990.0, 990.0, 990.0, 990.0, 989.0, 989.0, 988.0, 988.0, 989.0, 988.0, 989.0, 989.0, 988.0, 989.0, 989.0, 989.0, 990.0, 990.0, 988.0, 989.0, 988.0, 989.0, 989.0, 989.0, 989.0, 989.0, 988.0, 988.0, 989.0, 990.0, 988.0, 990.0, 989.0, 988.0, 988.0, 990.0, 989.0, 988.0, 990.0, 988.0, 989.0, 989.0, 988.0, 989.0, 988.0, 989.0, 990.0, 988.0, 989.0, 988.0, 989.0, 988.0, 988.0, 990.0, 989.0, 990.0, 988.0, 989.0, 989.0, 990.0],
      "WindowWidth": [2388.0, 2388.0, 2387.0, 2388.0, 2388.0, 2388.0, 2387.0, 2387.0, 2387.0, 2389.0, 2387.0, 2387.0, 2387.0, 2387.0, 2389.0, 2389.0, 2387.0, 2388.0, 2387.0, 2387.0, 2388.0, 2387.0, 2388.0, 2387.0, 2387.0, 2387.0, 2387.0, 2388.0, 2388.0, 2387.0, 2387.0, 2387.0, 2387.0, 2388.0, 2387.0, 2388.0, 2387.0, 2388.0, 2388.0, 2388.0, 2387.0, 2388.0, 2387.0, 2388.0, 2388.0, 2388.0, 2388.0, 2389.0, 2388.0, 2387.0, 2387.0, 2388.0, 2387.0, 2388.0, 2388.0, 2387.0, 2388.0, 2388.0, 2388.0, 2388.0, 2388.0, 2388.0, 2388.0, 2388.0, 2388.0, 2388.0, 2387.0, 2387.0, 2388.0, 2388.0, 2388.0, 2388.0, 2389.0, 2388.0, 2388.0, 2388.0, 2388.0, 2388.0, 2388.0, 2388.0, 2387.0, 2388.0, 2387.0, 2387.0, 2387.0, 2389.0, 2388.0, 2388.0, 2387.0, 2388.0, 2388.0, 2387.0, 2388.0, 2389.0, 2388.0, 2388.0, 2388.0, 2388.0, 2387.0, 2388.0, 2388.0, 2389.0, 2388.0, 2388.0, 2388.0, 2387.0, 2389.0, 2388.0, 2387.0, 2388.0, 2389.0, 2388.0, 2388.0, 2388.0, 2388.0, 2387.0, 2388.0, 2388.0, 2387.0, 2387.0, 2388.0, 2387.0, 2387.0, 2388.0, 2387.0, 2387.0, 2388.0, 2388.0, 2388.0, 2388.0, 2387.0, 2389.0, 2389.0, 2388.0, 2388.0, 2387.0, 2388.0, 2388.0, 2388.0, 2388.0, 2389.0, 2389.0, 2389.0, 2389.0, 2388.0, 2388.0, 2387.0, 2387.0, 2388.0, 2387.0, 2388.0, 2388.0, 2387.0, 2388.0, 2388.0, 2388.0, 2389.0, 2389.0, 2387.0, 2388.0, 2387.0, 2388.0, 2388.0, 2388.0, 2388.0, 2388.0, 2387.0, 2387.0, 2388.0, 2389.0, 2387.0, 2389.0, 2388.0, 2387.0, 2387.0, 2389.0, 2388.0, 2387.0, 2389.0, 2387.0, 2388.0, 2388.0, 2387.0, 2388.0, 2387.0, 2388.0, 2389.0, 2387.0, 2388.0, 2387.0, 2388.0, 2387.0, 2387.0, 2389.0, 2388.0, 2389.0, 2387.0, 2388.0, 2388.0, 2389.0]
    },
    "slices": {}
  }
}