{
  "AcquisitionMatrixPE": 122,
  "AcquisitionNumber": 1,
  "AcquisitionTime": "09:47:21.065000",
  "BandwidthPerPixelPhaseEncode": 28.76,
  "BaseResolution": 122,
  "BodyPartExamined": "BRAIN",
  "CoilCombinationMethod": "Adaptive Combine",
  "ConsistencyInfo": "N4_VE11C_LATEST_20160120",
  "ConversionSoftware": "dcm2niix",
  "ConversionSoftwareVersion": "v1.0.20220720",
  "DerivedVendorReportedEchoSpacing": 0.000570008,
  "DeviceSerialNumber": "66112",
  "DiffusionScheme": "Monopolar",
  "DwellTime": 2e-06,
  "EchoTime": 0.075,
  "EchoTrainLength": 61,
  "EffectiveEchoSpacing": 0.000285004,
  "FlipAngle": 90,
  "HeudiconvVersion": "0.13.1",
  "ImageOrientationPatientDICOM": [0.986055, 0.166158, 0.0092961, -0.160943, 0.937918, 0.307259],
  "ImageOrientationText": "Tra>Cor(17.7)>Sag(-2.4)",
  "ImageType": [
    "ORIGINAL",
    "PRIMARY",
    "DIFFUSION",
    "NONE",
    "ND",
    "NORM"
],
  "ImagingFrequency": 123.252,
  "InPlanePhaseEncodingDirectionDICOM": "COL",
  "InstitutionAddress": "Maynard 3,Hanover,NH,US,03755",
  "InstitutionName": "Dartmouth College - PBS",
  "InstitutionalDepartmentName": "Department",
  "MRAcquisitionType": "2D",
  "MagneticFieldStrength": 3,
  "Manufacturer": "Siemens",
  "ManufacturersModelName": "Prisma",
  "MatrixCoilMode": "GRAPPA",
  "Modality": "MR",
  "NonlinearGradientCorrection": false,
  "ParallelReductionFactorInPlane": 2,
  "PartialFourier": 1,
  "PatientPosition": "HFS",
  "PercentPhaseFOV": 100,
  "PercentSampling": 100,
  "PhaseEncodingDirection": "j-",
  "PhaseEncodingSteps": 122,
  "PhaseResolution": 1,
  "PixelBandwidth": 2050,
  "ProcedureStepDescription": "dbic^QA",
  "ProtocolName": "dwi_acq-DTI-30-p2",
  "PulseSequenceDetails": "%SiemensSeq%\\ep2d_diff",
  "ReceiveCoilActiveElements": "HEA;HEP",
  "ReceiveCoilName": "Head_32",
  "ReconMatrixPE": 122,
  "RefLinesPE": 38,
  "RepetitionTime": 7.7,
  "SAR": 0.101813,
  "ScanOptions": "FS",
  "ScanningSequence": "EP",
  "SequenceName": "*ep_b0",
  "SequenceVariant": "SK\\SP",
  "SeriesDescription": "dwi_acq-DTI-30-p2",
  "SeriesNumber": 8,
  "ShimSetting": [4144, -7692, -7504, 308, -45, -97, -73, 57],
  "SliceThickness": 2,
  "SliceTiming": [3.83594, 0, 3.94531, 0.10938, 4.05469, 0.21875, 4.17188, 0.32812, 4.28125, 0.4375, 4.39062, 0.54688, 4.5, 0.65625, 4.60938, 0.76562, 4.71875, 0.875, 4.82812, 0.98438, 4.9375, 1.09375, 5.04688, 1.20312, 5.15625, 1.3125, 5.26562, 1.42969, 5.375, 1.53906, 5.48438, 1.64844, 5.59375, 1.75781, 5.70312, 1.86719, 5.8125, 1.97656, 5.92188, 2.08594, 6.03125, 2.19531, 6.14062, 2.30469, 6.25, 2.41406, 6.36719, 2.52344, 6.47656, 2.63281, 6.58594, 2.74219, 6.6875, 2.85156, 6.80469, 2.96094, 6.91406, 3.07031, 7.02344, 3.17969, 7.13281, 3.28906, 7.24219, 3.39844, 7.35156, 3.50781, 7.46094, 3.61719, 7.57031, 3.73438],
  "SoftwareVersions": "syngo MR E11",
  "SpacingBetweenSlices": 2,
  "SpoilingState": true,
  "StationName": "AWP66112",
  "TotalReadoutTime": 0.0344855,
  "TxRefAmp": 229.376,
  "dcmmeta_affine": [
    [-1.9397811889648438, -0.3166085183620453, -0.08466875553131104, 141.97718811035156],
    [-0.3268672525882721, 1.8450840711593628, 0.6089401245117188, -102.96997833251953],
    [0.018287405371665955, -0.6044432520866394, 1.9031600952148438, -35.137752532958984],
    [0.0, 0.0, 0.0, 1.0]
],
  "dcmmeta_reorient_transform": [
    [0.0, -1.0, 0.0, 121.0],
    [1.0, 0.0, 0.0, 0.0],
    [0.0, 0.0, -1.0, 69.0],
    [0.0, 0.0, 0.0, 1.0]
],
  "dcmmeta_shape": [122, 122, 70, 31],
  "dcmmeta_slice_dim": 2,
  "dcmmeta_version": 0.6,
  "global": {
    "const": {
      "AccessionNumber": "qa",
      "AcquisitionMatrix": [122, 0, 0, 122],
      "AngioFlag": "N",
      "BitsAllocated": 16,
      "BitsStored": 12,
      "BodyPartExamined": "BRAIN",
      "Columns": 122,
      "EchoNumbers": 1,
      "EchoTime": 75.0,
      "EchoTrainLength": 61,
      "FlipAngle": 90.0,
      "HighBit": 11,
      "ImageOrientationPatient": [0.98605540445754, 0.16615752135616, 0.0092960979372, -0.1609426650939, 0.9379176885937, 0.30725863368754],
      "ImageType": [
        "ORIGINAL",
        "PRIMARY",
        "DIFFUSION",
        "NONE",
        "ND",
        "NORM"
],
      "ImagedNucleus": "1H",
      "ImagingFrequency": 123.252461,
      "InPlanePhaseEncodingDirection": "COL",
      "MRAcquisitionType": "2D",
      "MagneticFieldStrength": 3.0,
      "Manufacturer": "SIEMENS",
      "ManufacturerModelName": "Prisma",
      "Modality": "MR",
      "NumberOfAverages": 1.0,
      "NumberOfPhaseEncodingSteps": 122,
      "PercentPhaseFieldOfView": 100.0,
      "PercentSampling": 100.0,
      "PerformedProcedureStepStartTime": "093113.883000",
      "PhotometricInterpretation": "MONOCHROME2",
      "PixelBandwidth": 2050.0,
      "PixelRepresentation": 0,
      "PixelSpacing": [1.9672131538391, 1.9672131538391],
      "ProtocolName": "dwi_acq-DTI-30-p2",
      "RepetitionTime": 7700.0,
      "Rows": 122,
      "SAR": 0.10181318520536,
      "SamplesPerPixel": 1,
      "ScanOptions": "FS",
      "ScanningSequence": "EP",
      "SequenceVariant": [
        "SK",
        "SP"
],
      "SeriesDescription": "dwi_acq-DTI-30-p2",
      "SeriesNumber": 8,
      "SeriesTime": "094738.098000",
      "SliceThickness": 2.0,
      "SmallestImagePixelValue": 0,
      "SoftwareVersions": "syngo MR E11",
      "SpacingBetweenSlices": 2.0,
      "SpecificCharacterSet": "ISO_IR 100",
      "StudyID": "31",
      "StudyTime": "093113.769000",
      "TransmitCoilName": "Body",
      "VariableFlipAngleFlag": "N",
      "WindowCenterWidthExplanation": "Algo1",
      "dBdt": 0.0},
    "slices": {
      "AcquisitionTime": ["094721.065000", "094717.225000", "094721.175000", "094717.335000", "094721.285000", "094717.445000", "094721.395000", "094717.555000", "094721.505000", "094717.665000", "094721.615000", "094717.775000", "094721.725000", "094717.885000", "094721.835000", "094717.995000", "094721.942500", "094718.105000", "094722.052500", "094718.212500", "094722.162500", "094718.322500", "094722.272500", "094718.432500", "094722.382500", "094718.542500", "094722.492500", "094718.652500", "094722.602500", "094718.762500", "094722.712500", "094718.872500", "094722.822500", "094718.982500", "094722.930000", "094719.092500", "094723.040000", "094719.200000", "094723.150000", "094719.310000", "094723.260000", "094719.420000", "094723.370000", "094719.530000", "094723.480000", "094719.640000", "094723.590000", "094719.750000", "094723.700000", "094719.860000", "094723.810000", "094719.970000", "094723.917500", "094720.077500", "094724.027500", "094720.187500", "094724.137500", "094720.297500", "094724.247500", "094720.407500", "094724.357500", "094720.517500", "094724.467500", "094720.627500", "094724.577500", "094720.737500", "094724.687500", "094720.847500", "094724.795000", "094720.957500", "094728.765000", "094724.925000", "094728.875000", "094725.035000", "094728.985000", "094725.145000", "094729.095000", "094725.255000", "094729.205000", "094725.365000", "094729.315000", "094725.475000", "094729.425000", "094725.585000", "094729.535000", "094725.695000", "094729.642500", "094725.805000", "094729.752500", "094725.912500", "094729.862500", "094726.022500", "094729.972500", "094726.132500", "094730.082500", "094726.242500", "094730.192500", "094726.352500", "094730.302500", "094726.462500", "094730.412500", "094726.572500", "094730.522500", "094726.682500", "094730.630000", "094726.792500", "094730.740000", "094726.900000", "094730.850000", "094727.010000", "094730.960000", "094727.120000", "094731.070000", "094727.230000", "094731.180000", "094727.340000", "094731.290000", "094727.450000", "094731.400000", "094727.560000", "094731.510000", "094727.670000", "094731.617500", "094727.777500", "094731.727500", "094727.887500", "094731.837500", "094727.997500", "094731.947500", "094728.107500", "094732.057500", "094728.217500", "094732.167500", "094728.327500", "094732.277500", "094728.437500", "094732.387500", "094728.547500", "094732.495000", "094728.657500", "094736.465000", "094732.625000", "094736.575000", "094732.735000", "094736.685000", "094732.845000", "094736.795000", "094732.955000", "094736.905000", "094733.065000", "094737.015000", "094733.175000", "094737.125000", "094733.285000", "094737.235000", "094733.395000", "094737.342500", "094733.505000", "094737.452500", "094733.612500", "094737.562500", "094733.722500", "094737.672500", "094733.832500", "094737.782500", "094733.942500", "094737.892500", "094734.052500", "094738.002500", "094734.162500", "094738.112500", "094734.272500", "094738.222500", "094734.382500", "094738.330000", "094734.492500", "094738.440000", "094734.600000", "094738.550000", "094734.710000", "094738.660000", "094734.820000", "094738.770000", "094734.930000", "094738.880000", "094735.040000", "094738.990000", "094735.150000", "094739.100000", "094735.260000", "094739.210000", "094735.370000", "094739.317500", "094735.477500", "094739.427500", "094735.587500", "094739.537500", "094735.697500", "094739.647500", "094735.807500", "094739.757500", "094735.917500", "094739.867500", "094736.027500", "094739.977500", "094736.137500", "094740.087500", "094736.247500", "094740.195000", "094736.357500", "094744.165000", "094740.325000", "094744.275000", "094740.435000", "094744.385000", "094740.545000", "094744.495000", "094740.655000", "094744.605000", "094740.765000", "094744.715000", "094740.875000", "094744.825000", "094740.985000", "094744.935000", "094741.095000", "094745.042500", "094741.205000", "094745.152500", "094741.312500", "094745.262500", "094741.422500", "094745.372500", "094741.532500", "094745.482500", "094741.642500", "094745.592500", "094741.752500", "094745.702500", "094741.862500", "094745.812500", "094741.972500", "094745.922500", "094742.082500", "094746.030000", "094742.192500", "094746.140000", "094742.300000", "094746.250000", "094742.410000", "094746.360000", "094742.520000", "094746.470000", "094742.630000", "094746.580000", "094742.740000", "094746.690000", "094742.850000", "094746.800000", "094742.960000", "094746.910000", "094743.070000", "094747.017500", "094743.177500", "094747.127500", "094743.287500", "094747.237500", "094743.397500", "094747.347500", "094743.507500", "094747.457500", "094743.617500", "094747.567500", "094743.727500", "094747.677500", "094743.837500", "094747.787500", "094743.947500", "094747.895000", "094744.057500", "094751.865000", "094748.025000", "094751.975000", "094748.135000", "094752.085000", "094748.245000", "094752.195000", "094748.355000", "094752.305000", "094748.465000", "094752.415000", "094748.575000", "094752.525000", "094748.685000", "094752.635000", "094748.795000", "094752.742500", "094748.905000", "094752.852500", "094749.012500", "094752.962500", "094749.122500", "094753.072500", "094749.232500", "094753.182500", "094749.342500", "094753.292500", "094749.452500", "094753.402500", "094749.562500", "094753.512500", "094749.672500", "094753.622500", "094749.782500", "094753.730000", "094749.892500", "094753.840000", "094750.000000", "094753.950000", "094750.110000", "094754.060000", "094750.220000", "094754.170000", "094750.330000", "094754.280000", "094750.440000", "094754.390000", "094750.550000", "094754.500000", "094750.660000", "094754.610000", "094750.770000", "094754.717500", "094750.877500", "094754.827500", "094750.987500", "094754.937500", "094751.097500", "094755.047500", "094751.207500", "094755.157500", "094751.317500", "094755.267500", "094751.427500", "094755.377500", "094751.537500", "094755.487500", "094751.647500", "094755.595000", "094751.757500", "094759.565000", "094755.725000", "094759.675000", "094755.835000", "094759.785000", "094755.945000", "094759.895000", "094756.055000", "094800.005000", "094756.165000", "094800.115000", "094756.275000", "094800.225000", "094756.385000", "094800.335000", "094756.495000", "094800.442500", "094756.605000", "094800.552500", "094756.712500", "094800.662500", "094756.822500", "094800.772500", "094756.932500", "094800.882500", "094757.042500", "094800.992500", "094757.152500", "094801.102500", "094757.262500", "094801.212500", "094757.372500", "094801.322500", "094757.482500", "094801.430000", "094757.592500", "094801.540000", "094757.700000", "094801.650000", "094757.810000", "094801.760000", "094757.920000", "094801.870000", "094758.030000", "094801.980000", "094758.140000", "094802.090000", "094758.250000", "094802.200000", "094758.360000", "094802.310000", "094758.470000", "094802.417500", "094758.577500", "094802.527500", "094758.687500", "094802.637500", "094758.797500", "094802.747500", "094758.907500", "094802.857500", "094759.017500", "094802.967500", "094759.127500", "094803.077500", "094759.237500", "094803.187500", "094759.347500", "094803.295000", "094759.457500", "094807.265000", "094803.425000", "094807.375000", "094803.535000", "094807.485000", "094803.645000", "094807.595000", "094803.755000", "094807.705000", "094803.865000", "094807.815000", "094803.975000", "094807.925000", "094804.085000", "094808.035000", "094804.195000", "094808.142500", "094804.305000", "094808.252500", "094804.412500", "094808.362500", "094804.522500", "094808.472500", "094804.632500", "094808.582500", "094804.742500", "094808.692500", "094804.852500", "094808.802500", "094804.962500", "094808.912500", "094805.072500", "094809.022500", "094805.182500", "094809.130000", "094805.292500", "094809.240000", "094805.400000", "094809.350000", "094805.510000", "094809.460000", "094805.620000", "094809.570000", "094805.730000", "094809.680000", "094805.840000", "094809.790000", "094805.950000", "094809.900000", "094806.060000", "094810.010000", "094806.170000", "094810.117500", "094806.277500", "094810.227500", "094806.387500", "094810.337500", "094806.497500", "094810.447500", "094806.607500", "094810.557500", "094806.717500", "094810.667500", "094806.827500", "094810.777500", "094806.937500", "094810.887500", "094807.047500", "094810.995000", "094807.157500", "094814.965000", "094811.125000", "094815.075000", "094811.235000", "094815.185000", "094811.345000", "094815.295000", "094811.455000", "094815.405000", "094811.565000", "094815.515000", "094811.675000", "094815.625000", "094811.785000", "094815.735000", "094811.895000", "094815.842500", "094812.005000", "094815.952500", "094812.112500", "094816.062500", "094812.222500", "094816.172500", "094812.332500", "094816.282500", "094812.442500", "094816.392500", "094812.552500", "094816.502500", "094812.662500", "094816.612500", "094812.772500", "094816.722500", "094812.882500", "094816.830000", "094812.992500", "094816.940000", "094813.100000", "094817.050000", "094813.210000", "094817.160000", "094813.320000", "094817.270000", "094813.430000", "094817.380000", "094813.540000", "094817.490000", "094813.650000", "094817.600000", "094813.760000", "094817.710000", "094813.870000", "094817.817500", "094813.977500", "094817.927500", "094814.087500", "094818.037500", "094814.197500", "094818.147500", "094814.307500", "094818.257500", "094814.417500", "094818.367500", "094814.527500", "094818.477500", "094814.637500", "094818.587500", "094814.747500", "094818.695000", "094814.857500", "094822.665000", "094818.825000", "094822.775000", "094818.935000", "094822.885000", "094819.045000", "094822.995000", "094819.155000", "094823.105000", "094819.265000", "094823.215000", "094819.375000", "094823.325000", "094819.485000", "094823.435000", "094819.595000", "094823.542500", "094819.705000", "094823.652500", "094819.812500", "094823.762500", "094819.922500", "094823.872500", "094820.032500", "094823.982500", "094820.142500", "094824.092500", "094820.252500", "094824.202500", "094820.362500", "094824.312500", "094820.472500", "094824.422500", "094820.582500", "094824.530000", "094820.692500", "094824.640000", "094820.800000", "094824.750000", "094820.910000", "094824.860000", "094821.020000", "094824.970000", "094821.130000", "094825.080000", "094821.240000", "094825.190000", "094821.350000", "094825.300000", "094821.460000", "094825.410000", "094821.570000", "094825.517500", "094821.677500", "094825.627500", "094821.787500", "094825.737500", "094821.897500", "094825.847500", "094822.007500", "094825.957500", "094822.117500", "094826.067500", "094822.227500", "094826.177500", "094822.337500", "094826.287500", "094822.447500", "094826.395000", "094822.557500", "094830.365000", "094826.525000", "094830.475000", "094826.635000", "094830.585000", "094826.745000", "094830.695000", "094826.855000", "094830.805000", "094826.965000", "094830.915000", "094827.075000", "094831.025000", "094827.185000", "094831.135000", "094827.295000", "094831.242500", "094827.405000", "094831.352500", "094827.512500", "094831.462500", "094827.622500", "094831.572500", "094827.732500", "094831.682500", "094827.842500", "094831.792500", "094827.952500", "094831.902500", "094828.062500", "094832.012500", "094828.172500", "094832.122500", "094828.282500", "094832.230000", "094828.392500", "094832.340000", "094828.500000", "094832.450000", "094828.610000", "094832.560000", "094828.720000", "094832.670000", "094828.830000", "094832.780000", "094828.940000", "094832.890000", "094829.050000", "094833.000000", "094829.160000", "094833.110000", "094829.270000", "094833.217500", "094829.377500", "094833.327500", "094829.487500", "094833.437500", "094829.597500", "094833.547500", "094829.707500", "094833.657500", "094829.817500", "094833.767500", "094829.927500", "094833.877500", "094830.037500", "094833.987500", "094830.147500", "094834.095000", "094830.257500", "094838.065000", "094834.225000", "094838.175000", "094834.335000", "094838.285000", "094834.445000", "094838.395000", "094834.555000", "094838.505000", "094834.665000", "094838.615000", "094834.775000", "094838.725000", "094834.885000", "094838.835000", "094834.995000", "094838.942500", "094835.105000", "094839.052500", "094835.212500", "094839.162500", "094835.322500", "094839.272500", "094835.432500", "094839.382500", "094835.542500", "094839.492500", "094835.652500", "094839.602500", "094835.762500", "094839.712500", "094835.872500", "094839.822500", "094835.982500", "094839.930000", "094836.092500", "094840.040000", "094836.200000", "094840.150000", "094836.310000", "094840.260000", "094836.420000", "094840.370000", "094836.530000", "094840.480000", "094836.640000", "094840.590000", "094836.750000", "094840.700000", "094836.860000", "094840.810000", "094836.970000", "094840.917500", "094837.077500", "094841.027500", "094837.187500", "094841.137500", "094837.297500", "094841.247500", "094837.407500", "094841.357500", "094837.517500", "094841.467500", "094837.627500", "094841.577500", "094837.737500", "094841.687500", "094837.847500", "094841.795000", "094837.957500", "094845.765000", "094841.925000", "094845.875000", "094842.035000", "094845.985000", "094842.145000", "094846.095000", "094842.255000", "094846.205000", "094842.365000", "094846.315000", "094842.475000", "094846.425000", "094842.585000", "094846.535000", "094842.695000", "094846.642500", "094842.805000", "094846.752500", "094842.912500", "094846.862500", "094843.022500", "094846.972500", "094843.132500", "094847.082500", "094843.242500", "094847.192500", "094843.352500", "094847.302500", "094843.462500", "094847.412500", "094843.572500", "094847.522500", "094843.682500", "094847.630000", "094843.792500", "094847.740000", "094843.900000", "094847.850000", "094844.010000", "094847.960000", "094844.120000", "094848.070000", "094844.230000", "094848.180000", "094844.340000", "094848.290000", "094844.450000", "094848.400000", "094844.560000", "094848.510000", "094844.670000", "094848.617500", "094844.777500", "094848.727500", "094844.887500", "094848.837500", "094844.997500", "094848.947500", "094845.107500", "094849.057500", "094845.217500", "094849.167500", "094845.327500", "094849.277500", "094845.437500", "094849.387500", "094845.547500", "094849.495000", "094845.657500", "094853.465000", "094849.625000", "094853.575000", "094849.735000", "094853.685000", "094849.845000", "094853.795000", "094849.955000", "094853.905000", "094850.065000", "094854.015000", "094850.175000", "094854.125000", "094850.285000", "094854.235000", "094850.395000", "094854.342500", "094850.505000", "094854.452500", "094850.612500", "094854.562500", "094850.722500", "094854.672500", "094850.832500", "094854.782500", "094850.942500", "094854.892500", "094851.052500", "094855.002500", "094851.162500", "094855.112500", "094851.272500", "094855.222500", "094851.382500", "094855.330000", "094851.492500", "094855.440000", "094851.600000", "094855.550000", "094851.710000", "094855.660000", "094851.820000", "094855.770000", "094851.930000", "094855.880000", "094852.040000", "094855.990000", "094852.150000", "094856.100000", "094852.260000", "094856.210000", "094852.370000", "094856.317500", "094852.477500", "094856.427500", "094852.587500", "094856.537500", "094852.697500", "094856.647500", "094852.807500", "094856.757500", "094852.917500", "094856.867500", "094853.027500", "094856.977500", "094853.137500", "094857.087500", "094853.247500", "094857.195000", "094853.357500", "094901.165000", "094857.325000", "094901.275000", "094857.435000", "094901.385000", "094857.545000", "094901.495000", "094857.655000", "094901.605000", "094857.765000", "094901.715000", "094857.875000", "094901.825000", "094857.985000", "094901.935000", "094858.095000", "094902.042500", "094858.205000", "094902.152500", "094858.312500", "094902.262500", "094858.422500", "094902.372500", "094858.532500", "094902.482500", "094858.642500", "094902.592500", "094858.752500", "094902.702500", "094858.862500", "094902.812500", "094858.972500", "094902.922500", "094859.082500", "094903.030000", "094859.192500", "094903.140000", "094859.300000", "094903.250000", "094859.410000", "094903.360000", "094859.520000", "094903.470000", "094859.630000", "094903.580000", "094859.740000", "094903.690000", "094859.850000", "094903.800000", "094859.960000", "094903.910000", "094900.070000", "094904.017500", "094900.177500", "094904.127500", "094900.287500", "094904.237500", "094900.397500", "094904.347500", "094900.507500", "094904.457500", "094900.617500", "094904.567500", "094900.727500", "094904.677500", "094900.837500", "094904.787500", "094900.947500", "094904.895000", "094901.057500", "094908.865000", "094905.025000", "094908.975000", "094905.135000", "094909.085000", "094905.245000", "094909.195000", "094905.355000", "094909.305000", "094905.465000", "094909.415000", "094905.575000", "094909.525000", "094905.685000", "094909.635000", "094905.795000", "094909.742500", "094905.905000", "094909.852500", "094906.012500", "094909.962500", "094906.122500", "094910.072500", "094906.232500", "094910.182500", "094906.342500", "094910.292500", "094906.452500", "094910.402500", "094906.562500", "094910.512500", "094906.672500", "094910.622500", "094906.782500", "094910.730000", "094906.892500", "094910.840000", "094907.000000", "094910.950000", "094907.110000", "094911.060000", "094907.220000", "094911.170000", "094907.330000", "094911.280000", "094907.440000", "094911.390000", "094907.550000", "094911.500000", "094907.660000", "094911.610000", "094907.770000", "094911.717500", "094907.877500", "094911.827500", "094907.987500", "094911.937500", "094908.097500", "094912.047500", "094908.207500", "094912.157500", "094908.317500", "094912.267500", "094908.427500", "094912.377500", "094908.537500", "094912.487500", "094908.647500", "094912.595000", "094908.757500", "094916.565000", "094912.725000", "094916.675000", "094912.835000", "094916.785000", "094912.945000", "094916.895000", "094913.055000", "094917.005000", "094913.165000", "094917.115000", "094913.275000", "094917.225000", "094913.385000", "094917.335000", "094913.495000", "094917.442500", "094913.605000", "094917.552500", "094913.712500", "094917.662500", "094913.822500", "094917.772500", "094913.932500", "094917.882500", "094914.042500", "094917.992500", "094914.152500", "094918.102500", "094914.262500", "094918.212500", "094914.372500", "094918.322500", "094914.482500", "094918.430000", "094914.592500", "094918.540000", "094914.700000", "094918.650000", "094914.810000", "094918.760000", "094914.920000", "094918.870000", "094915.030000", "094918.980000", "094915.140000", "094919.090000", "094915.250000", "094919.200000", "094915.360000", "094919.310000", "094915.470000", "094919.417500", "094915.577500", "094919.527500", "094915.687500", "094919.637500", "094915.797500", "094919.747500", "094915.907500", "094919.857500", "094916.017500", "094919.967500", "094916.127500", "094920.077500", "094916.237500", "094920.187500", "094916.347500", "094920.295000", "094916.457500", "094924.265000", "094920.425000", "094924.375000", "094920.535000", "094924.485000", "094920.645000", "094924.595000", "094920.755000", "094924.705000", "094920.865000", "094924.815000", "094920.975000", "094924.925000", "094921.085000", "094925.035000", "094921.195000", "094925.142500", "094921.305000", "094925.252500", "094921.412500", "094925.362500", "094921.522500", "094925.472500", "094921.632500", "094925.582500", "094921.742500", "094925.692500", "094921.852500", "094925.802500", "094921.962500", "094925.912500", "094922.072500", "094926.022500", "094922.182500", "094926.130000", "094922.292500", "094926.240000", "094922.400000", "094926.350000", "094922.510000", "094926.460000", "094922.620000", "094926.570000", "094922.730000", "094926.680000", "094922.840000", "094926.790000", "094922.950000", "094926.900000", "094923.060000", "094927.010000", "094923.170000", "094927.117500", "094923.277500", "094927.227500", "094923.387500", "094927.337500", "094923.497500", "094927.447500", "094923.607500", "094927.557500", "094923.717500", "094927.667500", "094923.827500", "094927.777500", "094923.937500", "094927.887500", "094924.047500", "094927.995000", "094924.157500", "094931.965000", "094928.125000", "094932.075000", "094928.235000", "094932.185000", "094928.345000", "094932.295000", "094928.455000", "094932.405000", "094928.565000", "094932.515000", "094928.675000", "094932.625000", "094928.785000", "094932.735000", "094928.895000", "094932.842500", "094929.005000", "094932.952500", "094929.112500", "094933.062500", "094929.222500", "094933.172500", "094929.332500", "094933.282500", "094929.442500", "094933.392500", "094929.552500", "094933.502500", "094929.662500", "094933.612500", "094929.772500", "094933.722500", "094929.882500", "094933.830000", "094929.992500", "094933.940000", "094930.100000", "094934.050000", "094930.210000", "094934.160000", "094930.320000", "094934.270000", "094930.430000", "094934.380000", "094930.540000", "094934.490000", "094930.650000", "094934.600000", "094930.760000", "094934.710000", "094930.870000", "094934.817500", "094930.977500", "094934.927500", "094931.087500", "094935.037500", "094931.197500", "094935.147500", "094931.307500", "094935.257500", "094931.417500", "094935.367500", "094931.527500", "094935.477500", "094931.637500", "094935.587500", "094931.747500", "094935.695000", "094931.857500", "094939.665000", "094935.825000", "094939.775000", "094935.935000", "094939.885000", "094936.045000", "094939.995000", "094936.155000", "094940.105000", "094936.265000", "094940.215000", "094936.375000", "094940.325000", "094936.485000", "094940.435000", "094936.595000", "094940.542500", "094936.705000", "094940.652500", "094936.812500", "094940.762500", "094936.922500", "094940.872500", "094937.032500", "094940.982500", "094937.142500", "094941.092500", "094937.252500", "094941.202500", "094937.362500", "094941.312500", "094937.472500", "094941.422500", "094937.582500", "094941.530000", "094937.692500", "094941.640000", "094937.800000", "094941.750000", "094937.910000", "094941.860000", "094938.020000", "094941.970000", "094938.130000", "094942.080000", "094938.240000", "094942.190000", "094938.350000", "094942.300000", "094938.460000", "094942.410000", "094938.570000", "094942.517500", "094938.677500", "094942.627500", "094938.787500", "094942.737500", "094938.897500", "094942.847500", "094939.007500", "094942.957500", "094939.117500", "094943.067500", "094939.227500", "094943.177500", "094939.337500", "094943.287500", "094939.447500", "094943.395000", "094939.557500", "094947.365000", "094943.525000", "094947.475000", "094943.635000", "094947.585000", "094943.745000", "094947.695000", "094943.855000", "094947.805000", "094943.965000", "094947.915000", "094944.075000", "094948.025000", "094944.185000", "094948.135000", "094944.295000", "094948.242500", "094944.405000", "094948.352500", "094944.512500", "094948.462500", "094944.622500", "094948.572500", "094944.732500", "094948.682500", "094944.842500", "094948.792500", "094944.952500", "094948.902500", "094945.062500", "094949.012500", "094945.172500", "094949.122500", "094945.282500", "094949.230000", "094945.392500", "094949.340000", "094945.500000", "094949.450000", "094945.610000", "094949.560000", "094945.720000", "094949.670000", "094945.830000", "094949.780000", "094945.940000", "094949.890000", "094946.050000", "094950.000000", "094946.160000", "094950.110000", "094946.270000", "094950.217500", "094946.377500", "094950.327500", "094946.487500", "094950.437500", "094946.597500", "094950.547500", "094946.707500", "094950.657500", "094946.817500", "094950.767500", "094946.927500", "094950.877500", "094947.037500", "094950.987500", "094947.147500", "094951.095000", "094947.257500", "094955.065000", "094951.225000", "094955.175000", "094951.335000", "094955.285000", "094951.445000", "094955.395000", "094951.555000", "094955.505000", "094951.665000", "094955.615000", "094951.775000", "094955.725000", "094951.885000", "094955.835000", "094951.995000", "094955.942500", "094952.105000", "094956.052500", "094952.212500", "094956.162500", "094952.322500", "094956.272500", "094952.432500", "094956.382500", "094952.542500", "094956.492500", "094952.652500", "094956.602500", "094952.762500", "094956.712500", "094952.872500", "094956.822500", "094952.982500", "094956.930000", 