{
  "AccelFactPE": 2,
  "AcquisitionNumber": 1,
  "AcquisitionTime": "10:31:52.875000",
  "BandwidthPerPixelPhaseEncode": 48.077,
  "BodyPartExamined": "BRAIN",
  "ConversionSoftware": "dcm2niix",
  "ConversionSoftwareVersion": "v1.0.20170624 GCC6.3.0",
  "DeviceSerialNumber": "66112",
  "EchoTime": 0.035,
  "EchoTrainLength": 39,
  "EffectiveEchoSpacing": 0.00026,
  "FlipAngle": 90,
  "ImageType": [
    "ORIGINAL",
    "PRIMARY",
    "M",
    "ND",
    "NORM",
    "MOSAIC"
],
  "InstitutionAddress": "Maynard_3_Hanover_NH_US_03755",
  "InstitutionName": "Dartmouth_College_-_PBS",
  "MagneticFieldStrength": 3,
  "Manufacturer": "Siemens",
  "ManufacturersModelName": "Prisma",
  "PhaseEncodingDirection": "j-",
  "PhaseEncodingLines": 80,
  "ProcedureStepDescription": "dbic_QA",
  "ProtocolName": "func-bold_task-rest_acq-p2",
  "RepetitionTime": 2,
  "ScanningSequence": "EP",
  "SequenceName": "_epfid2d1_80",
  "SequenceVariant": "SK",
  "SeriesDescription": "func-bold_task-rest_acq-p2",
  "SliceTiming": [0.99, 0, 1.055, 0.065, 1.12, 0.13, 1.1875, 0.1975, 1.2525, 0.2625, 1.32, 0.33, 1.385, 0.395, 1.45, 0.46, 1.5175, 0.5275, 1.5825, 0.5925, 1.65, 0.66, 1.715, 0.725, 1.78, 0.79, 1.8475, 0.8575, 1.9125, 0.9225],
  "SoftwareVersions": "syngo_MR_E11",
  "TaskName": "rest",
  "TotalReadoutTime": 0.02002,
  "TrueEchoSpacing": 0.000519999,
  "dcmmeta_affine": [
    [-2.9467639923095703, 0.534455418586731, 0.23394255340099335, 91.66889190673828],
    [0.5626152157783508, 2.810213565826416, 1.1792564392089844, -142.7574005126953],
    [0.006809139158576727, -0.9039123058319092, 3.8045663833618164, -17.327539443969727],
    [0.0, 0.0, 0.0, 1.0]
],
  "dcmmeta_reorient_transform": [
    [0.0, -1.0, 0.0, 79.0],
    [1.0, 0.0, 0.0, 0.0],
    [0.0, 0.0, 1.0, 0.0],
    [0.0, 0.0, 0.0, 1.0]
],
  "dcmmeta_shape": [80, 80, 30, 200],
  "dcmmeta_slice_dim": 2,
  "dcmmeta_version": 0.6,
  "global": {
    "const": {
      "AccessionNumber": "qa",
      "AcquisitionMatrix": [80, 0, 0, 80],
      "AngioFlag": "N",
      "BitsAllocated": 16,
      "BitsStored": 12,
      "BodyPartExamined": "BRAIN",
      "Columns": 480,
      "EchoNumbers": 1,
      "EchoTime": 35.0,
      "EchoTrainLength": 39,
      "FlipAngle": 90.0,
      "HighBit": 11,
      "ImageOrientationPatient": [0.98225464863652, -0.1875384057588, 0.00226971306405, 0.17815181254888, 0.93673783345536, 0.30130410395298],
      "ImagePositionPatient": [-830.13474618877, -528.76912035883, -270.88090276887],
      "ImageType": [
        "ORIGINAL",
        "PRIMARY",
        "M",
        "ND",
        "NORM",
        "MOSAIC"
],
      "ImagedNucleus": "1H",
      "ImagingFrequency": 123.252586,
      "InPlanePhaseEncodingDirection": "COL",
      "MRAcquisitionType": "2D",
      "MagneticFieldStrength": 3.0,
      "Manufacturer": "SIEMENS",
      "ManufacturerModelName": "Prisma",
      "Modality": "MR",
      "NumberOfAverages": 1.0,
      "NumberOfPhaseEncodingSteps": 79,
      "PercentPhaseFieldOfView": 100.0,
      "PercentSampling": 100.0,
      "PerformedProcedureStepStartTime": "102551.598000",
      "PhotometricInterpretation": "MONOCHROME2",
      "PixelBandwidth": 2315.0,
      "PixelRepresentation": 0,
      "PixelSpacing": [3.0, 3.0],
      "PositionReferenceIndicator": "",
      "ProtocolName": "func-bold_task-rest_acq-p2",
      "RepetitionTime": 2000.0,
      "Rows": 480,
      "SAR": 0.05541064321087,
      "SamplesPerPixel": 1,
      "ScanOptions": "FS",
      "ScanningSequence": "EP",
      "SequenceName": "*epfid2d1_80",
      "SequenceVariant": "SK",
      "SeriesDescription": "func-bold_task-rest_acq-p2",
      "SeriesNumber": 5,
      "SeriesTime": "103232.549000",
      "SliceLocation": -53.33987825721,
      "SliceThickness": 3.5,
      "SmallestImagePixelValue": 0,
      "SoftwareVersions": "syngo MR E11",
      "SpacingBetweenSlices": 3.9900000056767,
      "SpecificCharacterSet": "ISO_IR 100",
      "StudyID": "84",
      "StudyTime": "102551.522000",
      "TransmitCoilName": "Body",
      "VariableFlipAngleFlag": "N",
      "WindowCenterWidthExplanation": "Algo1",
      "dBdt": 0.0},
    "slices": {}
  },
  "time": {
    "samples": {
      "AcquisitionNumber": [1, 2, 3, 4, 5, 6, 7, 8, 9, 10, 11, 12, 13, 14, 15, 16, 17, 18, 19, 20, 21, 22, 23, 24, 25, 26, 27, 28, 29, 30, 31, 32, 33, 34, 35, 36, 37, 38, 39, 40, 41, 42, 43, 44, 45, 46, 47, 48, 49, 50, 51, 52, 53, 54, 55, 56, 57, 58, 59, 60, 61, 62, 63, 64, 65, 66, 67, 68, 69, 70, 71, 72, 73, 74, 75, 76, 77, 78, 79, 80, 81, 82, 83, 84, 85, 86, 87, 88, 89, 90, 91, 92, 93, 94, 95, 96, 97, 98, 99, 100, 101, 102, 103, 104, 105, 106, 107, 108, 109, 110, 111, 112, 113, 114, 115, 116, 117, 118, 119, 120, 121, 122, 123, 124, 125, 126, 127, 128, 129, 130, 131, 132, 133, 134, 135, 136, 137, 138, 139, 140, 141, 142, 143, 144, 145, 146, 147, 148, 149, 150, 151, 152, 153, 154, 155, 156, 157, 158, 159, 160, 161, 162, 163, 164, 165, 166, 167, 168, 169, 170, 171, 172, 173, 174, 175, 176, 177, 178, 179, 180, 181, 182, 183, 184, 185, 186, 187, 188, 189, 190, 191, 192, 193, 194, 195, 196, 197, 198, 199, 200],
      "AcquisitionTime": ["103152.875000", "103154.875000", "103156.875000", "103158.875000", "103200.875000", "103202.875000", "103204.875000", "103206.875000", "103208.875000", "103210.875000", "103212.875000", "103214.875000", "103216.875000", "103218.875000", "103220.875000", "103222.875000", "103224.875000", "103226.875000", "103228.875000", "103230.875000", "103232.875000", "103234.875000", "103236.875000", "103238.875000", "103240.875000", "103242.875000", "103244.875000", "103246.875000", "103248.875000", "103250.875000", "103252.875000", "103254.875000", "103256.875000", "103258.875000", "103300.875000", "103302.875000", "103304.875000", "103306.875000", "103308.875000", "103310.875000", "103312.875000", "103314.875000", "103316.875000", "103318.875000", "103320.875000", "103322.875000", "103324.875000", "103326.875000", "103328.875000", "103330.875000", "103332.875000", "103334.875000", "103336.875000", "103338.875000", "103340.875000", "103342.875000", "103344.875000", "103346.875000", "103348.875000", "103350.875000", "103352.875000", "103354.875000", "103356.875000", "103358.875000", "103400.875000", "103402.875000", "103404.875000", "103406.875000", "103408.875000", "103410.875000", "103412.875000", "103414.875000", "103416.875000", "103418.875000", "103420.875000", "103422.875000", "103424.875000", "103426.875000", "103428.875000", "103430.875000", "103432.875000", "103434.875000", "103436.875000", "103438.875000", "103440.875000", "103442.875000", "103444.875000", "103446.875000", "103448.875000", "103450.875000", "103452.875000", "103454.875000", "103456.875000", "103458.875000", "103500.875000", "103502.875000", "103504.875000", "103506.875000", "103508.875000", "103510.875000", "103512.875000", "103514.875000", "103516.875000", "103518.875000", "103520.875000", "103522.875000", "103524.875000", "103526.875000", "103528.875000", "103530.875000", "103532.875000", "103534.875000", "103536.875000", "103538.875000", "103540.875000", "103542.875000", "103544.875000", "103546.875000", "103548.875000", "103550.875000", "103552.875000", "103554.875000", "103556.875000", "103558.875000", "103600.875000", "103602.875000", "103604.875000", "103606.875000", "103608.875000", "103610.875000", "103612.875000", "103614.875000", "103616.875000", "103618.875000", "103620.875000", "103622.875000", "103624.875000", "103626.875000", "103628.875000", "103630.875000", "103632.875000", "103634.875000", "103636.875000", "103638.875000", "103640.875000", "103642.875000", "103644.875000", "103646.875000", "103648.875000", "103650.875000", "103652.875000", "103654.875000", "103656.875000", "103658.875000", "103700.875000", "103702.875000", "103704.875000", "103706.875000", "103708.875000", "103710.875000", "103712.875000", "103714.875000", "103716.875000", "103718.875000", "103720.875000", "103722.875000", "103724.875000", "103726.875000", "103728.875000", "103730.875000", "103732.875000", "103734.875000", "103736.875000", "103738.875000", "103740.875000", "103742.875000", "103744.875000", "103746.875000", "103748.875000", "103750.875000", "103752.875000", "103754.875000", "103756.875000", "103758.875000", "103800.875000", "103802.875000", "103804.875000", "103806.875000", "103808.875000", "103810.875000", "103812.875000", "103814.875000", "103816.875000", "103818.875000", "103820.875000", "103822.875000", "103824.875000", "103826.875000", "103828.875000", "103830.875000"],
      "ContentTime": ["103232.552000", "103232.556000", "103232.565000", "103232.568000", "103232.570000", "103232.573000", "103232.575000", "103232.578000", "103232.580000", "103232.583000", "103232.586000", "103232.588000", "103232.591000", "103232.593000", "103232.596000", "103232.602000", "103232.605000", "103232.607000", "103232.610000", "103232.613000", "103312.547000", "103312.550000", "103312.553000", "103312.556000", "103312.563000", "103312.566000", "103312.568000", "103312.571000", "103312.573000", "103312.576000", "103312.578000", "103312.581000", "103312.583000", "103312.586000", "103312.589000", "103312.591000", "103312.594000", "103312.596000", "103312.599000", "103312.601000", "103352.548000", "103352.551000", "103352.554000", "103352.556000", "103352.559000", "103352.562000", "103352.564000", "103352.567000", "103352.569000", "103352.572000", "103352.574000", "103352.577000", "103352.580000", "103352.582000", "103352.585000", "103352.588000", "103352.590000", "103352.593000", "103352.595000", "103352.598000", "103432.547000", "103432.550000", "103432.553000", "103432.555000", "103432.558000", "103432.561000", "103432.563000", "103432.566000", "103432.568000", "103432.571000", "103432.574000", "103432.576000", "103432.579000", "103432.581000", "103432.584000", "103432.587000", "103432.589000", "103432.592000", "103432.594000", "103432.597000", "103512.547000", "103512.550000", "103512.553000", "103512.555000", "103512.558000", "103512.560000", "103512.563000", "103512.565000", "103512.568000", "103512.571000", "103512.573000", "103512.576000", "103512.578000", "103512.581000", "103512.584000", "103512.586000", "103512.589000", "103512.591000", "103512.594000", "103512.596000", "103552.548000", "103552.550000", "103552.553000", "103552.556000", "103552.558000", "103552.561000", "103552.563000", "103552.566000", "103552.568000", "103552.571000", "103552.573000", "103552.576000", "103552.579000", "103552.581000", "103552.584000", "103552.587000", "103552.589000", "103552.592000", "103552.594000", "103552.597000", "103612.548000", "103612.551000", "103612.553000", "103612.556000", "103612.558000", "103612.561000", "103612.563000", "103612.566000", "103612.568000", "103612.571000", "103652.547000", "103652.550000", "103652.553000", "103652.555000", "103652.558000", "103652.561000", "103652.563000", "103652.566000", "103652.568000", "103652.571000", "103652.573000", "103652.576000", "103652.579000", "103652.581000", "103652.584000", "103652.586000", "103652.600000", "103652.602000", "103652.605000", "103652.607000", "103732.547000", "103732.550000", "103732.560000", "103732.563000", "103732.565000", "103732.568000", "103732.570000", "103732.573000", "103732.575000", "103732.578000", "103732.581000", "103732.583000", "103732.586000", "103732.588000", "103732.591000", "103732.593000", "103732.596000", "103732.599000", "103732.601000", "103732.604000", "103812.547000", "103812.550000", "103812.553000", "103812.556000", "103812.558000", "103812.561000", "103812.563000", "103812.566000", "103812.568000", "103812.571000", "103812.574000", "103812.576000", "103812.579000", "103812.581000", "103812.584000", "103812.587000", "103812.589000", "103812.592000", "103812.594000", "103812.597000", "103832.174000", "103832.177000", "103832.180000", "103832.182000", "103832.185000", "103832.188000", "103832.191000", "103832.193000", "103832.196000", "103832.198000"],
      "InstanceCreationTime": ["103232.552000", "103232.556000", "103232.565000", "103232.568000", "103232.570000", "103232.573000", "103232.575000", "103232.578000", "103232.580000", "103232.583000", "103232.586000", "103232.588000", "103232.591000", "103232.593000", "103232.596000", "103232.602000", "103232.605000", "103232.607000", "103232.610000", "103232.613000", "103312.547000", "103312.550000", "103312.553000", "103312.556000", "103312.563000", "103312.566000", "103312.568000", "103312.571000", "103312.573000", "103312.576000", "103312.578000", "103312.581000", "103312.583000", "103312.586000", "103312.589000", "103312.591000", "103312.594000", "103312.596000", "103312.599000", "103312.601000", "103352.548000", "103352.551000", "103352.554000", "103352.556000", "103352.559000", "103352.562000", "103352.564000", "103352.567000", "103352.569000", "103352.572000", "103352.574000", "103352.577000", "103352.580000", "103352.582000", "103352.585000", "103352.588000", "103352.590000", "103352.593000", "103352.595000", "103352.598000", "103432.547000", "103432.550000", "103432.553000", "103432.555000", "103432.558000", "103432.561000", "103432.563000", "103432.566000", "103432.568000", "103432.571000", "103432.574000", "103432.576000", "103432.579000", "103432.581000", "103432.584000", "103432.587000", "103432.589000", "103432.592000", "103432.594000", "103432.597000", "103512.547000", "103512.550000", "103512.553000", "103512.555000", "103512.558000", "103512.560000", "103512.563000", "103512.565000", "103512.568000", "103512.571000", "103512.573000", "103512.576000", "103512.578000", "103512.581000", "103512.584000", "103512.586000", "103512.589000", "103512.591000", "103512.594000", "103512.596000", "103552.548000", "103552.550000", "103552.553000", "103552.556000", "103552.558000", "103552.561000", "103552.563000", "103552.566000", "103552.568000", "103552.571000", "103552.573000", "103552.576000", "103552.579000", "103552.581000", "103552.584000", "103552.587000", "103552.589000", "103552.592000", "103552.594000", "103552.597000", "103612.548000", "103612.551000", "103612.553000", "103612.556000", "103612.558000", "103612.561000", "103612.563000", "103612.566000", "103612.568000", "103612.571000", "103652.547000", "103652.550000", "103652.553000", "103652.555000", "103652.558000", "103652.561000", "103652.563000", "103652.566000", "103652.568000", "103652.571000", "103652.573000", "103652.576000", "103652.579000", "103652.581000", "103652.584000", "103652.586000", "103652.600000", "103652.602000", "103652.605000", "103652.607000", "103732.547000", "103732.550000", "103732.560000", "103732.563000", "103732.565000", "103732.568000", "103732.570000", "103732.573000", "103732.575000", "103732.578000", "103732.581000", "103732.583000", "103732.586000", "103732.588000", "103732.591000", "103732.593000", "103732.596000", "103732.599000", "103732.601000", "103732.604000", "103812.547000", "103812.550000", "103812.553000", "103812.556000", "103812.558000", "103812.561000", "103812.563000", "103812.566000", "103812.568000", "103812.571000", "103812.574000", "103812.576000", "103812.579000", "103812.581000", "103812.584000", "103812.587000", "103812.589000", "103812.592000", "103812.594000", "103812.597000", "103832.174000", "103832.177000", "103832.180000", "103832.182000", "103832.185000", "103832.188000", "103832.191000", "103832.193000", "103832.196000", "103832.198000"],
      "InstanceNumber": [1, 2, 3, 4, 5, 6, 7, 8, 9, 10, 11, 12, 13, 14, 15, 16, 17, 18, 19, 20, 21, 22, 23, 24, 25, 26, 27, 28, 29, 30, 31, 32, 33, 34, 35, 36, 37, 38, 39, 40, 41, 42, 43, 44, 45, 46, 47, 48, 49, 50, 51, 52, 53, 54, 55, 56, 57, 58, 59, 60, 61, 62, 63, 64, 65, 66, 67, 68, 69, 70, 71, 72, 73, 74, 75, 76, 77, 78, 79, 80, 81, 82, 83, 84, 85, 86, 87, 88, 89, 90, 91, 92, 93, 94, 95, 96, 97, 98, 99, 100, 101, 102, 103, 104, 105, 106, 107, 108, 109, 110, 111, 112, 113, 114, 115, 116, 117, 118, 119, 120, 121, 122, 123, 124, 125, 126, 127, 128, 129, 130, 131, 132, 133, 134, 135, 136, 137, 138, 139, 140, 141, 142, 143, 144, 145, 146, 147, 148, 149, 150, 151, 152, 153, 154, 155, 156, 157, 158, 159, 160, 161, 162, 163, 164, 165, 166, 167, 168, 169, 170, 171, 172, 173, 174, 175, 176, 177, 178, 179, 180, 181, 182, 183, 184, 185, 186, 187, 188, 189, 190, 191, 192, 193, 194, 195, 196, 197, 198, 199, 200],
      "LargestImagePixelValue": [2178, 2182, 2173, 2187, 2179, 2185, 2183, 2189, 2184, 2187, 2187, 2179, 2184, 2176, 2185, 2179, 2186, 2181, 2185, 2182, 2180, 2179, 2181, 2185, 2186, 2182, 2175, 2184, 2186, 2188, 2190, 2189, 2183, 2184, 2180, 2187, 2179, 2180, 2184, 2182, 2189, 2181, 2180, 2187, 2189, 2176, 2183, 2183, 2185, 2180, 2179, 2178, 2184, 2186, 2183, 2188, 2184, 2183, 2177, 2184, 2190, 2185, 2179, 2183, 2180, 2188, 2186, 2183, 2187, 2179, 2184, 2193, 2181, 2187, 2183, 2181, 2182, 2182, 2189, 2178, 2187, 2181, 2181, 2179, 2183, 2181, 2184, 2181, 2187, 2181, 2183, 2182, 2189, 2197, 2188, 2181, 2184, 2186, 2182, 2181, 2191, 2180, 2182, 2186, 2176, 2181, 2182, 2188, 2184, 2182, 2179, 2177, 2184, 2182, 2185, 2181, 2183, 2189, 2181, 2186, 2188, 2187, 2190, 2185, 2179, 2189, 2175, 2188, 2182, 2181, 2180, 2184, 2183, 2185, 2182, 2188, 2177, 2176, 2184, 2186, 2186, 2191, 2188, 2186, 2182, 2189, 2184, 2188, 2180, 2183, 2177, 2185, 2188, 2184, 2189, 2189, 2183, 2183, 2183, 2187, 2182, 2177, 2182, 2177, 2180, 2186, 2178, 2182, 2183, 2182, 2183, 2181, 2182, 2189, 2186, 2182, 2187, 2185, 2186, 2182, 2184, 2178, 2180, 2172, 2183, 2184, 2187, 2176, 2189, 2182, 2183, 2181, 2183, 2188, 2190, 2182, 2188, 2188, 2181, 2191],
      "WindowCenter": [993.0, 992.0, 992.0, 992.0, 992.0, 992.0, 992.0, 992.0, 992.0, 992.0, 992.0, 993.0, 992.0, 992.0, 992.0, 992.0, 992.0, 992.0, 992.0, 992.0, 992.0, 992.0, 992.0, 993.0, 993.0, 993.0, 992.0, 992.0, 992.0, 992.0, 993.0, 992.0, 992.0, 992.0, 992.0, 992.0, 992.0, 992.0, 992.0, 992.0, 992.0, 992.0, 992.0, 992.0, 992.0, 992.0, 992.0, 992.0, 992.0, 992.0, 992.0, 992.0, 992.0, 992.0, 992.0, 992.0, 992.0, 992.0, 992.0, 992.0, 992.0, 992.0, 992.0, 993.0, 992.0, 992.0, 992.0, 992.0, 992.0, 992.0, 992.0, 992.0, 992.0, 992.0, 992.0, 992.0, 992.0, 992.0, 992.0, 992.0, 992.0, 992.0, 992.0, 992.0, 992.0, 992.0, 992.0, 992.0, 992.0, 992.0, 992.0, 992.0, 992.0, 992.0, 992.0, 993.0, 992.0, 992.0, 992.0, 992.0, 992.0, 992.0, 992.0, 992.0, 992.0, 992.0, 992.0, 992.0, 992.0, 992.0, 992.0, 992.0, 992.0, 992.0, 992.0, 992.0, 992.0, 992.0, 992.0, 992.0, 992.0, 992.0, 992.0, 992.0, 992.0, 992.0, 992.0, 992.0, 992.0, 992.0, 992.0, 992.0, 992.0, 992.0, 992.0, 992.0, 992.0, 992.0, 992.0, 992.0, 993.0, 992.0, 992.0, 992.0, 992.0, 992.0, 992.0, 992.0, 992.0, 992.0, 992.0, 992.0, 992.0, 992.0, 992.0, 992.0, 992.0, 992.0, 992.0, 992.0, 992.0, 992.0, 992.0, 992.0, 992.0, 992.0, 993.0, 992.0, 992.0, 992.0, 992.0, 992.0, 992.0, 992.0, 992.0, 992.0, 992.0, 992.0, 992.0, 992.0, 992.0, 992.0, 993.0, 992.0, 992.0, 992.0, 992.0, 993.0, 992.0, 992.0, 992.0, 992.0, 992.0, 992.0, 992.0, 992.0, 992.0, 992.0, 992.0, 993.0],
      "WindowWidth": [2178.0, 2178.0, 2178.0, 2178.0, 2178.0, 2178.0, 2178.0, 2178.0, 2178.0, 2178.0, 2178.0, 2179.0, 2178.0, 2178.0, 2178.0, 2178.0, 2178.0, 2178.0, 2178.0, 2178.0, 2178.0, 2178.0, 2178.0, 2179.0, 2179.0, 2179.0, 2178.0, 2178.0, 2178.0, 2178.0, 2179.0, 2178.0, 2178.0, 2178.0, 2178.0, 2178.0, 2178.0, 2178.0, 2178.0, 2178.0, 2178.0, 2178.0, 2178.0, 2178.0, 2178.0, 2178.0, 2178.0, 2178.0, 2178.0, 2178.0, 2178.0, 2178.0, 2178.0, 2178.0, 2178.0, 2178.0, 2178.0, 2178.0, 2178.0, 2178.0, 2178.0, 2178.0, 2178.0, 2179.0, 2178.0, 2178.0, 2178.0, 2178.0, 2178.0, 2178.0, 2178.0, 2178.0, 2178.0, 2178.0, 2178.0, 2178.0, 2178.0, 2178.0, 2178.0, 2178.0, 2178.0, 2178.0, 2178.0, 2178.0, 2178.0, 2178.0, 2178.0, 2178.0, 2178.0, 2178.0, 2178.0, 2178.0, 2178.0, 2178.0, 2178.0, 2178.0, 2178.0, 2178.0, 2178.0, 2178.0, 2178.0, 2178.0, 2178.0, 2178.0, 2178.0, 2178.0, 2178.0, 2178.0, 2178.0, 2178.0, 2178.0, 2178.0, 2178.0, 2178.0, 2178.0, 2178.0, 2178.0, 2178.0, 2178.0, 2178.0, 2178.0, 2178.0, 2178.0, 2178.0, 2178.0, 2178.0, 2178.0, 2178.0, 2178.0, 2178.0, 2178.0, 2178.0, 2178.0, 2178.0, 2178.0, 2178.0, 2178.0, 2178.0, 2178.0, 2178.0, 2178.0, 2178.0, 2178.0, 2178.0, 2178.0, 2178.0, 2178.0, 2178.0, 2178.0, 2178.0, 2178.0, 2178.0, 2178.0, 2178.0, 2178.0, 2178.0, 2178.0, 2178.0, 2177.0, 2178.0, 2178.0, 2178.0, 2178.0, 2178.0, 2178.0, 2178.0, 2178.0, 2178.0, 2178.0, 2178.0, 2178.0, 2178.0, 2177.0, 2178.0, 2177.0, 2177.0, 2177.0, 2177.0, 2177.0, 2177.0, 2177.0, 2178.0, 2178.0, 2177.0, 2177.0, 2177.0, 2178.0, 2178.0, 2177.0, 2178.0, 2178.0, 2177.0, 2177.0, 2178.0, 2177.0, 2177.0, 2177.0, 2177.0, 2177.0, 2178.0]
    },
    "slices": {}
  }
}