{
  "AcquisitionMatrixPE": 80,
  "AcquisitionNumber": 1,
  "AcquisitionTime": "10:38:47.127500",
  "BandwidthPerPixelPhaseEncode": 44.643,
  "BaseResolution": 80,
  "BodyPartExamined": "BRAIN",
  "CoilCombinationMethod": "Sum of Squares",
  "ConsistencyInfo": "N4_VE11C_LATEST_20160120",
  "ConversionSoftware": "dcm2niix",
  "ConversionSoftwareVersion": "v1.0.20220720",
  "DerivedVendorReportedEchoSpacing": 0.000559998,
  "DeviceSerialNumber": "66112",
  "DwellTime": 2.7e-06,
  "EchoTime": 0.035,
  "EchoTrainLength": 39,
  "EffectiveEchoSpacing": 0.000279999,
  "FlipAngle": 90,
  "HeudiconvVersion": "0.13.1",
  "ImageOrientationPatientDICOM": [0.982255, -0.187538, 0.00226971, 0.178152, 0.936738, 0.301304],
  "ImageOrientationText": "Tra>Cor(17.2)>Sag(3.4)",
  "ImageType": [
    "ORIGINAL",
    "PRIMARY",
    "M",
    "ND",
    "NORM",
    "MOSAIC"
],
  "ImagingFrequency": 123.253,
  "InPlanePhaseEncodingDirectionDICOM": "COL",
  "InstitutionAddress": "Maynard 3,Hanover,NH,US,03755",
  "InstitutionName": "Dartmouth College - PBS",
  "InstitutionalDepartmentName": "Department",
  "MRAcquisitionType": "2D",
  "MagneticFieldStrength": 3,
  "Manufacturer": "Siemens",
  "ManufacturersModelName": "Prisma",
  "Modality": "MR",
  "MultibandAccelerationFactor": 4,
  "NonlinearGradientCorrection": false,
  "ParallelReductionFactorInPlane": 2,
  "PartialFourier": 1,
  "PatientPosition": "HFS",
  "PercentPhaseFOV": 100,
  "PercentSampling": 100,
  "PhaseEncodingDirection": "j-",
  "PhaseEncodingSteps": 79,
  "PhaseResolution": 1,
  "PixelBandwidth": 2315,
  "ProcedureStepDescription": "dbic^QA",
  "ProtocolName": "func-bold_task-rest_acq-p2-s4-3.5mm",
  "PulseSequenceDetails": "%SiemensSeq%\\ep2d_bold",
  "ReceiveCoilActiveElements": "HEA;HEP",
  "ReceiveCoilName": "Head_32",
  "ReconMatrixPE": 80,
  "RefLinesPE": 24,
  "RepetitionTime": 2,
  "SAR": 0.020836,
  "ScanOptions": "FS",
  "ScanningSequence": "EP",
  "SequenceName": "*epfid2d1_80",
  "SequenceVariant": "SK",
  "SeriesDescription": "func-bold_task-rest_acq-p2-s4-3.5mm",
  "SeriesNumber": 7,
  "ShimSetting": [4144, -7683, -7523, 224, -92, -92, -43, 94],
  "SliceThickness": 3.5,
  "SliceTiming": [1.485, 0, 0.99, 0.2475, 1.2375, 0.7425, 1.7325, 0.495, 1.485, 0, 0.99, 0.2475, 1.2375, 0.7425, 1.7325, 0.495, 1.485, 0, 0.99, 0.2475, 1.2375, 0.7425, 1.7325, 0.495, 1.485, 0, 0.99, 0.2475, 1.2375, 0.7425, 1.7325, 0.495],
  "SoftwareVersions": "syngo MR E11",
  "SpacingBetweenSlices": 3.99,
  "StationName": "AWP66112",
  "TaskName": "rest",
  "TotalReadoutTime": 0.0221199,
  "TxRefAmp": 229.293,
  "dcmmeta_affine": [
    [-2.9467639923095703, 0.534455418586731, 0.23394255340099335, 91.43494415283203],
    [0.5626152157783508, 2.810213565826416, 1.179256558418274, -143.93666076660156],
    [0.006809139158576727, -0.9039123058319092, 3.8045663833618164, -21.132108688354492],
    [0.0, 0.0, 0.0, 1.0]
],
  "dcmmeta_reorient_transform": [
    [0.0, -1.0, 0.0, 79.0],
    [1.0, 0.0, 0.0, 0.0],
    [0.0, 0.0, 1.0, 0.0],
    [0.0, 0.0, 0.0, 1.0]
],
  "dcmmeta_shape": [80, 80, 32, 200],
  "dcmmeta_slice_dim": 2,
  "dcmmeta_version": 0.6,
  "global": {
    "const": {
      "AccessionNumber": "qa",
      "AcquisitionMatrix": [80, 0, 0, 80],
      "AngioFlag": "N",
      "BitsAllocated": 16,
      "BitsStored": 12,
      "BodyPartExamined": "BRAIN",
      "Columns": 480,
      "EchoNumbers": 1,
      "EchoTime": 35.0,
      "EchoTrainLength": 39,
      "FlipAngle": 90.0,
      "HighBit": 11,
      "ImageOrientationPatient": [0.98225464863652, -0.1875384057588, 0.00226971306405, 0.17815181254888, 0.93673783345536, 0.30130410395298],
      "ImagePositionPatient": [-829.90080368007, -527.58986391962, -274.68547201325],
      "ImageType": [
        "ORIGINAL",
        "PRIMARY",
        "M",
        "ND",
        "NORM",
        "MOSAIC"
],
      "ImagedNucleus": "1H",
      "ImagingFrequency": 123.252587,
      "InPlanePhaseEncodingDirection": "COL",
      "MRAcquisitionType": "2D",
      "MagneticFieldStrength": 3.0,
      "Manufacturer": "SIEMENS",
      "ManufacturerModelName": "Prisma",
      "Modality": "MR",
      "NumberOfAverages": 1.0,
      "NumberOfPhaseEncodingSteps": 79,
      "PercentPhaseFieldOfView": 100.0,
      "PercentSampling": 100.0,
      "PerformedProcedureStepStartTime": "102551.598000",
      "PhotometricInterpretation": "MONOCHROME2",
      "PixelBandwidth": 2315.0,
      "PixelRepresentation": 0,
      "PixelSpacing": [3.0, 3.0],
      "ProtocolName": "func-bold_task-rest_acq-p2-s4-3.5mm",
      "RepetitionTime": 2000.0,
      "Rows": 480,
      "SAR": 0.02083601725472,
      "SamplesPerPixel": 1,
      "ScanOptions": "FS",
      "ScanningSequence": "EP",
      "SequenceName": "*epfid2d1_80",
      "SequenceVariant": "SK",
      "SeriesDescription": "func-bold_task-rest_acq-p2-s4-3.5mm",
      "SeriesNumber": 7,
      "SeriesTime": "103932.410000",
      "SliceLocation": -57.32988101186,
      "SliceThickness": 3.5,
      "SmallestImagePixelValue": 0,
      "SoftwareVersions": "syngo MR E11",
      "SpacingBetweenSlices": 3.9900000656939,
      "SpecificCharacterSet": "ISO_IR 100",
      "StudyID": "84",
      "StudyTime": "102551.522000",
      "TransmitCoilName": "Body",
      "VariableFlipAngleFlag": "N",
      "WindowCenter": 924.0,
      "WindowCenterWidthExplanation": "Algo1",
      "dBdt": 0.0},
    "slices": {}
  },
  "time": {
    "samples": {
      "AcquisitionNumber": [1, 2, 3, 4, 5, 6, 7, 8, 9, 10, 11, 12, 13, 14, 15, 16, 17, 18, 19, 20, 21, 22, 23, 24, 25, 26, 27, 28, 29, 30, 31, 32, 33, 34, 35, 36, 37, 38, 39, 40, 41, 42, 43, 44, 45, 46, 47, 48, 49, 50, 51, 52, 53, 54, 55, 56, 57, 58, 59, 60, 61, 62, 63, 64, 65, 66, 67, 68, 69, 70, 71, 72, 73, 74, 75, 76, 77, 78, 79, 80, 81, 82, 83, 84, 85, 86, 87, 88, 89, 90, 91, 92, 93, 94, 95, 96, 97, 98, 99, 100, 101, 102, 103, 104, 105, 106, 107, 108, 109, 110, 111, 112, 113, 114, 115, 116, 117, 118, 119, 120, 121, 122, 123, 124, 125, 126, 127, 128, 129, 130, 131, 132, 133, 134, 135, 136, 137, 138, 139, 140, 141, 142, 143, 144, 145, 146, 147, 148, 149, 150, 151, 152, 153, 154, 155, 156, 157, 158, 159, 160, 161, 162, 163, 164, 165, 166, 167, 168, 169, 170, 171, 172, 173, 174, 175, 176, 177, 178, 179, 180, 181, 182, 183, 184, 185, 186, 187, 188, 189, 190, 191, 192, 193, 194, 195, 196, 197, 198, 199, 200],
      "AcquisitionTime": ["103847.127500", "103849.127500", "103851.127500", "103853.127500", "103855.127500", "103857.127500", "103859.127500", "103901.127500", "103903.127500", "103905.127500", "103907.127500", "103909.127500", "103911.127500", "103913.127500", "103915.127500", "103917.127500", "103919.127500", "103921.127500", "103923.127500", "103925.127500", "103927.127500", "103929.127500", "103931.127500", "103933.127500", "103935.127500", "103937.127500", "103939.127500", "103941.127500", "103943.127500", "103945.127500", "103947.127500", "103949.127500", "103951.127500", "103953.127500", "103955.127500", "103957.127500", "103959.127500", "104001.127500", "104003.127500", "104005.127500", "104007.127500", "104009.127500", "104011.127500", "104013.127500", "104015.127500", "104017.127500", "104019.127500", "104021.127500", "104023.127500", "104025.127500", "104027.127500", "104029.127500", "104031.127500", "104033.127500", "104035.127500", "104037.127500", "104039.127500", "104041.127500", "104043.127500", "104045.127500", "104047.127500", "104049.127500", "104051.127500", "104053.127500", "104055.127500", "104057.127500", "104059.127500", "104101.127500", "104103.127500", "104105.127500", "104107.127500", "104109.127500", "104111.127500", "104113.127500", "104115.127500", "104117.127500", "104119.127500", "104121.127500", "104123.127500", "104125.127500", "104127.127500", "104129.127500", "104131.127500", "104133.127500", "104135.127500", "104137.127500", "104139.127500", "104141.127500", "104143.127500", "104145.127500", "104147.127500", "104149.127500", "104151.127500", "104153.127500", "104155.127500", "104157.127500", "104159.127500", "104201.127500", "104203.127500", "104205.127500", "104207.127500", "104209.127500", "104211.127500", "104213.127500", "104215.127500", "104217.127500", "104219.127500", "104221.127500", "104223.127500", "104225.127500", "104227.127500", "104229.127500", "104231.127500", "104233.127500", "104235.127500", "104237.127500", "104239.127500", "104241.127500", "104243.127500", "104245.127500", "104247.127500", "104249.127500", "104251.127500", "104253.127500", "104255.127500", "104257.127500", "104259.127500", "104301.127500", "104303.127500", "104305.127500", "104307.127500", "104309.127500", "104311.127500", "104313.127500", "104315.127500", "104317.127500", "104319.127500", "104321.127500", "104323.127500", "104325.127500", "104327.127500", "104329.127500", "104331.127500", "104333.127500", "104335.127500", "104337.127500", "104339.127500", "104341.127500", "104343.127500", "104345.127500", "104347.127500", "104349.127500", "104351.127500", "104353.127500", "104355.127500", "104357.127500", "104359.127500", "104401.127500", "104403.127500", "104405.127500", "104407.127500", "104409.127500", "104411.127500", "104413.127500", "104415.127500", "104417.127500", "104419.127500", "104421.127500", "104423.127500", "104425.127500", "104427.127500", "104429.127500", "104431.127500", "104433.127500", "104435.127500", "104437.127500", "104439.127500", "104441.127500", "104443.127500", "104445.127500", "104447.127500", "104449.127500", "104451.127500", "104453.127500", "104455.127500", "104457.127500", "104459.127500", "104501.127500", "104503.127500", "104505.127500", "104507.127500", "104509.127500", "104511.127500", "104513.127500", "104515.127500", "104517.127500", "104519.127500", "104521.127500", "104523.127500", "104525.127500"],
      "ContentTime": ["103932.413000", "103932.417000", "103932.419000", "103932.422000", "103932.424000", "103932.427000", "103932.430000", "103932.441000", "103932.444000", "103932.446000", "103932.449000", "103932.451000", "103932.454000", "103932.456000", "103932.459000", "103932.462000", "103932.464000", "103932.473000", "103932.476000", "103932.479000", "103932.481000", "103932.484000", "103932.486000", "104012.409000", "104012.412000", "104012.414000", "104012.417000", "104012.419000", "104012.422000", "104012.424000", "104012.427000", "104012.430000", "104012.432000", "104012.435000", "104012.438000", "104012.440000", "104012.443000", "104012.445000", "104012.448000", "104012.450000", "104012.453000", "104012.456000", "104012.458000", "104052.409000", "104052.411000", "104052.414000", "104052.417000", "104052.419000", "104052.422000", "104052.424000", "104052.427000", "104052.430000", "104052.432000", "104052.435000", "104052.437000", "104052.440000", "104052.442000", "104052.445000", "104052.448000", "104052.450000", "104052.453000", "104052.455000", "104052.458000", "104132.409000", "104132.411000", "104132.414000", "104132.417000", "104132.419000", "104132.422000", "104132.424000", "104132.427000", "104132.430000", "104132.432000", "104132.435000", "104132.438000", "104132.440000", "104132.443000", "104132.445000", "104132.448000", "104132.450000", "104132.453000", "104132.456000", "104132.458000", "104212.420000", "104212.423000", "104212.425000", "104212.428000", "104212.430000", "104212.433000", "104212.436000", "104212.438000", "104212.441000", "104212.443000", "104212.446000", "104212.448000", "104212.451000", "104212.454000", "104212.456000", "104212.459000", "104212.461000", "104212.464000", "104212.467000", "104212.469000", "104252.409000", "104252.412000", "104252.414000", "104252.417000", "104252.419000", "104252.422000", "104252.425000", "104252.427000", "104252.430000", "104252.432000", "104252.435000", "104252.437000", "104252.440000", "104252.443000", "104252.445000", "104252.448000", "104252.450000", "104252.453000", "104252.456000", "104252.458000", "104332.408000", "104332.411000", "104332.414000", "104332.417000", "104332.419000", "104332.422000", "104332.424000", "104332.427000", "104332.429000", "104332.432000", "104332.435000", "104332.437000", "104332.440000", "104332.442000", "104332.445000", "104332.447000", "104332.450000", "104332.453000", "104332.455000", "104332.458000", "104412.409000", "104412.411000", "104412.414000", "104412.417000", "104412.419000", "104412.422000", "104412.425000", "104412.427000", "104412.430000", "104412.432000", "104412.435000", "104412.438000", "104412.440000", "104412.443000", "104412.445000", "104412.448000", "104412.451000", "104412.453000", "104412.456000", "104412.458000", "104452.409000", "104452.411000", "104452.414000", "104452.417000", "104452.419000", "104452.422000", "104452.424000", "104452.427000", "104452.430000", "104452.432000", "104452.435000", "104452.442000", "104452.445000", "104452.448000", "104452.450000", "104452.453000", "104452.456000", "104452.458000", "104452.461000", "104452.463000", "104526.111000", "104526.114000", "104526.117000", "104526.120000", "104526.122000", "104526.125000", "104526.128000", "104526.130000", "104526.133000", "104526.136000", "104526.138000", "104526.144000", "104526.147000", "104526.150000", "104526.153000", "104526.157000", "104526.161000"],
      "InstanceCreationTime": ["103932.413000", "103932.417000", "103932.419000", "103932.422000", "103932.424000", "103932.427000", "103932.430000", "103932.441000", "103932.444000", "103932.446000", "103932.449000", "103932.451000", "103932.454000", "103932.456000", "103932.459000", "103932.462000", "103932.464000", "103932.473000", "103932.476000", "103932.479000", "103932.481000", "103932.484000", "103932.486000", "104012.409000", "104012.412000", "104012.414000", "104012.417000", "104012.419000", "104012.422000", "104012.424000", "104012.427000", "104012.430000", "104012.432000", "104012.435000", "104012.438000", "104012.440000", "104012.443000", "104012.445000", "104012.448000", "104012.450000", "104012.453000", "104012.456000", "104012.458000", "104052.409000", "104052.411000", "104052.414000", "104052.417000", "104052.419000", "104052.422000", "104052.424000", "104052.427000", "104052.430000", "104052.432000", "104052.435000", "104052.437000", "104052.440000", "104052.442000", "104052.445000", "104052.448000", "104052.450000", "104052.453000", "104052.455000", "104052.458000", "104132.409000", "104132.411000", "104132.414000", "104132.417000", "104132.419000", "104132.422000", "104132.424000", "104132.427000", "104132.430000", "104132.432000", "104132.435000", "104132.438000", "104132.440000", "104132.443000", "104132.445000", "104132.448000", "104132.450000", "104132.453000", "104132.456000", "104132.458000", "104212.420000", "104212.423000", "104212.425000", "104212.428000", "104212.430000", "104212.433000", "104212.436000", "104212.438000", "104212.441000", "104212.443000", "104212.446000", "104212.448000", "104212.451000", "104212.454000", "104212.456000", "104212.459000", "104212.461000", "104212.464000", "104212.467000", "104212.469000", "104252.409000", "104252.412000", "104252.414000", "104252.417000", "104252.419000", "104252.422000", "104252.425000", "104252.427000", "104252.430000", "104252.432000", "104252.435000", "104252.437000", "104252.440000", "104252.443000", "104252.445000", "104252.448000", "104252.450000", "104252.453000", "104252.456000", "104252.458000", "104332.408000", "104332.411000", "104332.414000", "104332.417000", "104332.419000", "104332.422000", "104332.424000", "104332.427000", "104332.429000", "104332.432000", "104332.435000", "104332.437000", "104332.440000", "104332.442000", "104332.445000", "104332.447000", "104332.450000", "104332.453000", "104332.455000", "104332.458000", "104412.409000", "104412.411000", "104412.414000", "104412.417000", "104412.419000", "104412.422000", "104412.425000", "104412.427000", "104412.430000", "104412.432000", "104412.435000", "104412.438000", "104412.440000", "104412.443000", "104412.445000", "104412.448000", "104412.451000", "104412.453000", "104412.456000", "104412.458000", "104452.409000", "104452.411000", "104452.414000", "104452.417000", "104452.419000", "104452.422000", "104452.424000", "104452.427000", "104452.430000", "104452.432000", "104452.435000", "104452.442000", "104452.445000", "104452.448000", "104452.450000", "104452.453000", "104452.456000", "104452.458000", "104452.461000", "104452.463000", "104526.111000", "104526.114000", "104526.117000", "104526.120000", "104526.122000", "104526.125000", "104526.128000", "104526.130000", "104526.133000", "104526.136000", "104526.138000", "104526.144000", "104526.147000", "104526.150000", "104526.153000", "104526.157000", "104526.161000"],
      "InstanceNumber": [1, 2, 3, 4, 5, 6, 7, 8, 9, 10, 11, 12, 13, 14, 15, 16, 17, 18, 19, 20, 21, 22, 23, 24, 25, 26, 27, 28, 29, 30, 31, 32, 33, 34, 35, 36, 37, 38, 39, 40, 41, 42, 43, 44, 45, 46, 47, 48, 49, 50, 51, 52, 53, 54, 55, 56, 57, 58, 59, 60, 61, 62, 63, 64, 65, 66, 67, 68, 69, 70, 71, 72, 73, 74, 75, 76, 77, 78, 79, 80, 81, 82, 83, 84, 85, 86, 87, 88, 89, 90, 91, 92, 93, 94, 95, 96, 97, 98, 99, 100, 101, 102, 103, 104, 105, 106, 107, 108, 109, 110, 111, 112, 113, 114, 115, 116, 117, 118, 119, 120, 121, 122, 123, 124, 125, 126, 127, 128, 129, 130, 131, 132, 133, 134, 135, 136, 137, 138, 139, 140, 141, 142, 143, 144, 145, 146, 147, 148, 149, 150, 151, 152, 153, 154, 155, 156, 157, 158, 159, 160, 161, 162, 163, 164, 165, 166, 167, 168, 169, 170, 171, 172, 173, 174, 175, 176, 177, 178, 179, 180, 181, 182, 183, 184, 185, 186, 187, 188, 189, 190, 191, 192, 193, 194, 195, 196, 197, 198, 199, 200],
      "LargestImagePixelValue": [2199, 2201, 2205, 2204, 2207, 2202, 2205, 2201, 2209, 2200, 2206, 2202, 2204, 2202, 2202, 2204, 2202, 2198, 2203, 2203, 2203, 2207, 2202, 2202, 2203, 2203, 2205, 2201, 2204, 2205, 2204, 2202, 2204, 2204, 2206, 2205, 2201, 2199, 2204, 2201, 2205, 2206, 2209, 2200, 2201, 2203, 2201, 2204, 2201, 2205, 2209, 2201, 2210, 2201, 2200, 2205, 2198, 2206, 2205, 2205, 2201, 2203, 2208, 2204, 2203, 2210, 2209, 2207, 2202, 2200, 2209, 2205, 2202, 2215, 2205, 2202, 2204, 2208, 2204, 2206, 2206, 2210, 2206, 2205, 2207, 2202, 2208, 2204, 2200, 2205, 2204, 2202, 2203, 2206, 2205, 2208, 2200, 2201, 2205, 2198, 2205, 2205, 2204, 2200, 2203, 2206, 2201, 2202, 2202, 2208, 2202, 2211, 2199, 2207, 2205, 2203, 2203, 2199, 2200, 2206, 2205, 2202, 2203, 2204, 2200, 2205, 2206, 2200, 2205, 2207, 2207, 2207, 2207, 2201, 2204, 2199, 2207, 2206, 2203, 2202, 2203, 2205, 2201, 2199, 2207, 2204, 2200, 2202, 2203, 2199, 2203, 2206, 2202, 2200, 2203, 2206, 2202, 2201, 2203, 2206, 2209, 2203, 2208, 2200, 2206, 2202, 2199, 2203, 2202, 2202, 2202, 2209, 2203, 2209, 2202, 2204, 2200, 2203, 2207, 2202, 2204, 2205, 2206, 2204, 2204, 2195, 2209, 2207, 2205, 2203, 2202, 2204, 2208, 2201, 2201, 2202, 2200, 2204, 2209, 2204],
      "WindowWidth": [2107.0, 2107.0, 2107.0, 2107.0, 2107.0, 2107.0, 2107.0, 2107.0, 2107.0, 2107.0, 2107.0, 2107.0, 2107.0, 2107.0, 2107.0, 2107.0, 2107.0, 2107.0, 2107.0, 2107.0, 2107.0, 2107.0, 2107.0, 2107.0, 2107.0, 2107.0, 2107.0, 2107.0, 2107.0, 2107.0, 2107.0, 2107.0, 2107.0, 2107.0, 2107.0, 2107.0, 2107.0, 2107.0, 2107.0, 2107.0, 2107.0, 2107.0, 2107.0, 2107.0, 2107.0, 2107.0, 2107.0, 2107.0, 2108.0, 2107.0, 2107.0, 2107.0, 2107.0, 2107.0, 2107.0, 2107.0, 2107.0, 2107.0, 2107.0, 2107.0, 2107.0, 2107.0, 2107.0, 2107.0, 2107.0, 2107.0, 2107.0, 2107.0, 2107.0, 2107.0, 2107.0, 2107.0, 2107.0, 2107.0, 2107.0, 2107.0, 2107.0, 2108.0, 2107.0, 2107.0, 2107.0, 2107.0, 2107.0, 2107.0, 2107.0, 2108.0, 2107.0, 2107.0, 2107.0, 2107.0, 2107.0, 2107.0, 2107.0, 2107.0, 2107.0, 2107.0, 2107.0, 2107.0, 2107.0, 2107.0, 2107.0, 2107.0, 2107.0, 2107.0, 2107.0, 2107.0, 2107.0, 2107.0, 2107.0, 2107.0, 2107.0, 2107.0, 2107.0, 2107.0, 2107.0, 2107.0, 2107.0, 2107.0, 2107.0, 2107.0, 2107.0, 2107.0, 2107.0, 2107.0, 2107.0, 2107.0, 2107.0, 2107.0, 2107.0, 2108.0, 2107.0, 2107.0, 2107.0, 2107.0, 2107.0, 2107.0, 2107.0, 2107.0, 2107.0, 2108.0, 2107.0, 2107.0, 2107.0, 2107.0, 2107.0, 2107.0, 2107.0, 2107.0, 2107.0, 2107.0, 2107.0, 2107.0, 2107.0, 2107.0, 2107.0, 2107.0, 2107.0, 2107.0, 2107.0, 2107.0, 2107.0, 2107.0, 2107.0, 2107.0, 2107.0, 2107.0, 2107.0, 2107.0, 2107.0, 2107.0, 2107.0, 2107.0, 2107.0, 2107.0, 2107.0, 2107.0, 2107.0, 2107.0, 2107.0, 2106.0, 2107.0, 2107.0, 2107.0, 2107.0, 2107.0, 2107.0, 2107.0, 2107.0, 2107.0, 2107.0, 2107.0, 2107.0, 2107.0, 2107.0, 2107.0, 2107.0, 2107.0, 2107.0, 2107.0, 2107.0]
    },
    "slices": {}
  }
}