{
  "AcquisitionMatrixPE": 122,
  "AcquisitionNumber": 1,
  "AcquisitionTime": "11:50:40.057500",
  "BandwidthPerPixelPhaseEncode": 28.76,
  "BaseResolution": 122,
  "BodyPartExamined": "BRAIN",
  "CoilCombinationMethod": "Adaptive Combine",
  "ConsistencyInfo": "N4_VE11C_LATEST_20160120",
  "ConversionSoftware": "dcm2niix",
  "ConversionSoftwareVersion": "v1.0.20220720",
  "DerivedVendorReportedEchoSpacing": 0.000570008,
  "DeviceSerialNumber": "66112",
  "DiffusionScheme": "Monopolar",
  "DwellTime": 2e-06,
  "EchoTime": 0.075,
  "EchoTrainLength": 61,
  "EffectiveEchoSpacing": 0.000285004,
  "FlipAngle": 90,
  "HeudiconvVersion": "0.13.1",
  "ImageOrientationPatientDICOM": [0.986409, 0.16418, 0.00642461, -0.157997, 0.937078, 0.311322],
  "ImageOrientationText": "Tra>Cor(18.0)>Sag(-2.6)",
  "ImageType": [
    "ORIGINAL",
    "PRIMARY",
    "DIFFUSION",
    "NONE",
    "ND",
    "NORM"
],
  "ImagingFrequency": 123.252,
  "InPlanePhaseEncodingDirectionDICOM": "COL",
  "InstitutionAddress": "Maynard 3,Hanover,NH,US,03755",
  "InstitutionName": "Dartmouth College - PBS",
  "InstitutionalDepartmentName": "Department",
  "MRAcquisitionType": "2D",
  "MagneticFieldStrength": 3,
  "Manufacturer": "Siemens",
  "ManufacturersModelName": "Prisma",
  "MatrixCoilMode": "GRAPPA",
  "Modality": "MR",
  "NonlinearGradientCorrection": false,
  "ParallelReductionFactorInPlane": 2,
  "PartialFourier": 1,
  "PatientPosition": "HFS",
  "PercentPhaseFOV": 100,
  "PercentSampling": 100,
  "PhaseEncodingDirection": "j-",
  "PhaseEncodingSteps": 122,
  "PhaseResolution": 1,
  "PixelBandwidth": 2050,
  "ProcedureStepDescription": "dbic^QA",
  "ProtocolName": "dwi_acq-DTI-30-p2",
  "PulseSequenceDetails": "%SiemensSeq%\\ep2d_diff",
  "ReceiveCoilActiveElements": "HEA;HEP",
  "ReceiveCoilName": "Head_32",
  "ReconMatrixPE": 122,
  "RefLinesPE": 38,
  "RepetitionTime": 7.7,
  "SAR": 0.0869996,
  "ScanOptions": "FS",
  "ScanningSequence": "EP",
  "SequenceName": "*ep_b0",
  "SequenceVariant": "SK\\SP",
  "SeriesDescription": "dwi_acq-DTI-30-p2",
  "SeriesNumber": 12,
  "ShimSetting": [4142, -7703, -7534, 239, -62, -69, -15, 51],
  "SliceThickness": 2,
  "SliceTiming": [3.83594, 0, 3.94531, 0.10938, 4.0625, 0.21875, 4.17188, 0.32812, 4.28125, 0.4375, 4.39062, 0.54688, 4.5, 0.65625, 4.60938, 0.76562, 4.71875, 0.875, 4.82812, 0.98438, 4.9375, 1.09375, 5.04688, 1.20312, 5.15625, 1.3125, 5.26562, 1.42969, 5.375, 1.53906, 5.48438, 1.64062, 5.59375, 1.75, 5.70312, 1.86719, 5.8125, 1.97656, 5.92188, 2.08594, 6.03125, 2.19531, 6.14062, 2.30469, 6.25, 2.41406, 6.36719, 2.52344, 6.46875, 2.63281, 6.57812, 2.74219, 6.6875, 2.85156, 6.80469, 2.96094, 6.91406, 3.07031, 7.02344, 3.17969, 7.13281, 3.28906, 7.24219, 3.39844, 7.35156, 3.50781, 7.46094, 3.61719, 7.57031, 3.72656],
  "SoftwareVersions": "syngo MR E11",
  "SpacingBetweenSlices": 2,
  "SpoilingState": true,
  "StationName": "AWP66112",
  "TotalReadoutTime": 0.0344855,
  "TxRefAmp": 218.131,
  "dcmmeta_affine": [
    [-1.9404776096343994, -0.3108142614364624, -0.09018504619598389, 142.13548278808594],
    [-0.32297781109809875, 1.8434325456619263, 0.6162109375, -111.14309692382812],
    [0.012638574466109276, -0.6124365329742432, 1.9005661010742188, -30.98586082458496],
    [0.0, 0.0, 0.0, 1.0]
],
  "dcmmeta_reorient_transform": [
    [0.0, -1.0, 0.0, 121.0],
    [1.0, 0.0, 0.0, 0.0],
    [0.0, 0.0, -1.0, 69.0],
    [0.0, 0.0, 0.0, 1.0]
],
  "dcmmeta_shape": [122, 122, 70, 31],
  "dcmmeta_slice_dim": 2,
  "dcmmeta_version": 0.6,
  "global": {
    "const": {
      "AccessionNumber": "qa",
      "AcquisitionMatrix": [122, 0, 0, 122],
      "AngioFlag": "N",
      "BitsAllocated": 16,
      "BitsStored": 12,
      "BodyPartExamined": "BRAIN",
      "Columns": 122,
      "EchoNumbers": 1,
      "EchoTime": 75.0,
      "EchoTrainLength": 61,
      "FlipAngle": 90.0,
      "HighBit": 11,
      "ImageOrientationPatient": [0.98640941138946, 0.16418038106687, 0.00642460855084, -0.1579972528491, 0.93707819988572, 0.31132188389363],
      "ImageType": [
        "ORIGINAL",
        "PRIMARY",
        "DIFFUSION",
        "NONE",
        "ND",
        "NORM"
],
      "ImagedNucleus": "1H",
      "ImagingFrequency": 123.252357,
      "InPlanePhaseEncodingDirection": "COL",
      "MRAcquisitionType": "2D",
      "MagneticFieldStrength": 3.0,
      "Manufacturer": "SIEMENS",
      "ManufacturerModelName": "Prisma",
      "Modality": "MR",
      "NumberOfAverages": 1.0,
      "NumberOfPhaseEncodingSteps": 122,
      "PercentPhaseFieldOfView": 100.0,
      "PercentSampling": 100.0,
      "PerformedProcedureStepStartTime": "111737.894000",
      "PhotometricInterpretation": "MONOCHROME2",
      "PixelBandwidth": 2050.0,
      "PixelRepresentation": 0,
      "PixelSpacing": [1.9672131538391, 1.9672131538391],
      "ProtocolName": "dwi_acq-DTI-30-p2",
      "RepetitionTime": 7700.0,
      "Rows": 122,
      "SAR": 0.086999562091,
      "SamplesPerPixel": 1,
      "ScanOptions": "FS",
      "ScanningSequence": "EP",
      "SequenceVariant": [
        "SK",
        "SP"
],
      "SeriesDescription": "dwi_acq-DTI-30-p2",
      "SeriesNumber": 12,
      "SeriesTime": "115047.273000",
      "SliceThickness": 2.0,
      "SmallestImagePixelValue": 0,
      "SoftwareVersions": "syngo MR E11",
      "SpacingBetweenSlices": 2.0,
      "SpecificCharacterSet": "ISO_IR 100",
      "StudyID": "42",
      "StudyTime": "111737.843000",
      "TransmitCoilName": "Body",
      "VariableFlipAngleFlag": "N",
      "WindowCenterWidthExplanation": "Algo1",
      "dBdt": 0.0},
    "slices": {
      "AcquisitionTime": ["115040.057500", "115036.217500", "115040.167500", "115036.327500", "115040.277500", "115036.437500", "115040.387500", "115036.547500", "115040.497500", "115036.657500", "115040.607500", "115036.767500", "115040.715000", "115036.877500", "115040.825000", "115036.985000", "115040.935000", "115037.095000", "115041.045000", "115037.205000", "115041.155000", "115037.315000", "115041.265000", "115037.425000", "115041.375000", "115037.535000", "115041.485000", "115037.645000", "115041.595000", "115037.755000", "115041.702500", "115037.862500", "115041.812500", "115037.972500", "115041.922500", "115038.082500", "115042.032500", "115038.192500", "115042.142500", "115038.302500", "115042.252500", "115038.412500", "115042.362500", "115038.522500", "115042.472500", "115038.632500", "115042.582500", "115038.742500", "115042.690000", "115038.850000", "115042.800000", "115038.960000", "115042.910000", "115039.070000", "115043.020000", "115039.180000", "115043.130000", "115039.290000", "115043.240000", "115039.400000", "115043.350000", "115039.510000", "115043.460000", "115039.620000", "115043.567500", "115039.730000", "115043.677500", "115039.837500", "115043.787500", "115039.947500", "115047.757500", "115043.917500", "115047.867500", "115044.027500", "115047.977500", "115044.137500", "115048.087500", "115044.247500", "115048.197500", "115044.357500", "115048.307500", "115044.467500", "115048.415000", "115044.577500", "115048.525000", "115044.685000", "115048.635000", "115044.795000", "115048.745000", "115044.905000", "115048.855000", "115045.015000", "115048.965000", "115045.125000", "115049.075000", "115045.235000", "115049.185000", "115045.345000", "115049.295000", "115045.455000", "115049.402500", "115045.562500", "115049.512500", "115045.672500", "115049.622500", "115045.782500", "115049.732500", "115045.892500", "115049.842500", "115046.002500", "115049.952500", "115046.112500", "115050.062500", "115046.222500", "115050.172500", "115046.332500", "115050.282500", "115046.442500", "115050.390000", "115046.550000", "115050.500000", "115046.660000", "115050.610000", "115046.770000", "115050.720000", "115046.880000", "115050.830000", "115046.990000", "115050.940000", "115047.100000", "115051.050000", "115047.210000", "115051.160000", "115047.320000", "115051.267500", "115047.430000", "115051.377500", "115047.537500", "115051.487500", "115047.647500", "115055.457500", "115051.617500", "115055.567500", "115051.727500", "115055.677500", "115051.837500", "115055.787500", "115051.947500", "115055.897500", "115052.057500", "115056.007500", "115052.167500", "115056.115000", "115052.277500", "115056.225000", "115052.385000", "115056.335000", "115052.495000", "115056.445000", "115052.605000", "115056.555000", "115052.715000", "115056.665000", "115052.825000", "115056.775000", "115052.935000", "115056.885000", "115053.045000", "115056.995000", "115053.155000", "115057.102500", "115053.262500", "115057.212500", "115053.372500", "115057.322500", "115053.482500", "115057.432500", "115053.592500", "115057.542500", "115053.702500", "115057.652500", "115053.812500", "115057.762500", "115053.922500", "115057.872500", "115054.032500", "115057.982500", "115054.142500", "115058.090000", "115054.250000", "115058.200000", "115054.360000", "115058.310000", "115054.470000", "115058.420000", "115054.580000", "115058.530000", "115054.690000", "115058.640000", "115054.800000", "115058.750000", "115054.910000", "115058.860000", "115055.020000", "115058.967500", "115055.130000", "115059.077500", "115055.237500", "115059.187500", "115055.347500", "115103.157500", "115059.317500", "115103.267500", "115059.427500", "115103.377500", "115059.537500", "115103.487500", "115059.647500", "115103.597500", "115059.757500", "115103.707500", "115059.867500", "115103.815000", "115059.977500", "115103.925000", "115100.085000", "115104.035000", "115100.195000", "115104.145000", "115100.305000", "115104.255000", "115100.415000", "115104.365000", "115100.525000", "115104.475000", "115100.635000", "115104.585000", "115100.745000", "115104.695000", "115100.855000", "115104.802500", "115100.962500", "115104.912500", "115101.072500", "115105.022500", "115101.182500", "115105.132500", "115101.292500", "115105.242500", "115101.402500", "115105.352500", "115101.512500", "115105.462500", "115101.622500", "115105.572500", "115101.732500", "115105.682500", "115101.842500", "115105.790000", "115101.950000", "115105.900000", "115102.060000", "115106.010000", "115102.170000", "115106.120000", "115102.280000", "115106.230000", "115102.390000", "115106.340000", "115102.500000", "115106.450000", "115102.610000", "115106.560000", "115102.720000", "115106.667500", "115102.830000", "115106.777500", "115102.937500", "115106.887500", "115103.047500", "115110.857500", "115107.017500", "115110.967500", "115107.127500", "115111.077500", "115107.237500", "115111.187500", "115107.347500", "115111.297500", "115107.457500", "115111.407500", "115107.567500", "115111.515000", "115107.677500", "115111.625000", "115107.785000", "115111.735000", "115107.895000", "115111.845000", "115108.005000", "115111.955000", "115108.115000", "115112.065000", "115108.225000", "115112.175000", "115108.335000", "115112.285000", "115108.445000", "115112.395000", "115108.555000", "115112.502500", "115108.662500", "115112.612500", "115108.772500", "115112.722500", "115108.882500", "115112.832500", "115108.992500", "115112.942500", "115109.102500", "115113.052500", "115109.212500", "115113.162500", "115109.322500", "115113.272500", "115109.432500", "115113.382500", "115109.542500", "115113.490000", "115109.650000", "115113.600000", "115109.760000", "115113.710000", "115109.870000", "115113.820000", "115109.980000", "115113.930000", "115110.090000", "115114.040000", "115110.200000", "115114.150000", "115110.310000", "115114.260000", "115110.420000", "115114.367500", "115110.530000", "115114.477500", "115110.637500", "115114.587500", "115110.747500", "115118.557500", "115114.717500", "115118.667500", "115114.827500", "115118.777500", "115114.937500", "115118.887500", "115115.047500", "115118.997500", "115115.157500", "115119.107500", "115115.267500", "115119.215000", "115115.377500", "115119.325000", "115115.485000", "115119.435000", "115115.595000", "115119.545000", "115115.705000", "115119.655000", "115115.815000", "115119.765000", "115115.925000", "115119.875000", "115116.035000", "115119.985000", "115116.145000", "115120.095000", "115116.255000", "115120.202500", "115116.362500", "115120.312500", "115116.472500", "115120.422500", "115116.582500", "115120.532500", "115116.692500", "115120.642500", "115116.802500", "115120.752500", "115116.912500", "115120.862500", "115117.022500", "115120.972500", "115117.132500", "115121.082500", "115117.242500", "115121.190000", "115117.350000", "115121.300000", "115117.460000", "115121.410000", "115117.570000", "115121.520000", "115117.680000", "115121.630000", "115117.790000", "115121.740000", "115117.900000", "115121.850000", "115118.010000", "115121.960000", "115118.120000", "115122.067500", "115118.230000", "115122.177500", "115118.337500", "115122.287500", "115118.447500", "115126.257500", "115122.417500", "115126.367500", "115122.527500", "115126.477500", "115122.637500", "115126.587500", "115122.747500", "115126.697500", "115122.857500", "115126.807500", "115122.967500", "115126.915000", "115123.077500", "115127.025000", "115123.185000", "115127.135000", "115123.295000", "115127.245000", "115123.405000", "115127.355000", "115123.515000", "115127.465000", "115123.625000", "115127.575000", "115123.735000", "115127.685000", "115123.845000", "115127.795000", "115123.955000", "115127.902500", "115124.062500", "115128.012500", "115124.172500", "115128.122500", "115124.282500", "115128.232500", "115124.392500", "115128.342500", "115124.502500", "115128.452500", "115124.612500", "115128.562500", "115124.722500", "115128.672500", "115124.832500", "115128.782500", "115124.942500", "115128.890000", "115125.050000", "115129.000000", "115125.160000", "115129.110000", "115125.270000", "115129.220000", "115125.380000", "115129.330000", "115125.490000", "115129.440000", "115125.600000", "115129.550000", "115125.710000", "115129.660000", "115125.820000", "115129.767500", "115125.930000", "115129.877500", "115126.037500", "115129.987500", "115126.147500", "115133.957500", "115130.117500", "115134.067500", "115130.227500", "115134.177500", "115130.337500", "115134.287500", "115130.447500", "115134.397500", "115130.557500", "115134.507500", "115130.667500", "115134.615000", "115130.777500", "115134.725000", "115130.885000", "115134.835000", "115130.995000", "115134.945000", "115131.105000", "115135.055000", "115131.215000", "115135.165000", "115131.325000", "115135.275000", "115131.435000", "115135.385000", "115131.545000", "115135.495000", "115131.655000", "115135.602500", "115131.762500", "115135.712500", "115131.872500", "115135.822500", "115131.982500", "115135.932500", "115132.092500", "115136.042500", "115132.202500", "115136.152500", "115132.312500", "115136.262500", "115132.422500", "115136.372500", "115132.532500", "115136.482500", "115132.642500", "115136.590000", "115132.750000", "115136.700000", "115132.860000", "115136.810000", "115132.970000", "115136.920000", "115133.080000", "115137.030000", "115133.190000", "115137.140000", "115133.300000", "115137.250000", "115133.410000", "115137.360000", "115133.520000", "115137.467500", "115133.630000", "115137.577500", "115133.737500", "115137.687500", "115133.847500", "115141.657500", "115137.817500", "115141.767500", "115137.927500", "115141.877500", "115138.037500", "115141.987500", "115138.147500", "115142.097500", "115138.257500", "115142.207500", "115138.367500", "115142.315000", "115138.477500", "115142.425000", "115138.585000", "115142.535000", "115138.695000", "115142.645000", "115138.805000", "115142.755000", "115138.915000", "115142.865000", "115139.025000", "115142.975000", "115139.135000", "115143.085000", "115139.245000", "115143.195000", "115139.355000", "115143.302500", "115139.462500", "115143.412500", "115139.572500", "115143.522500", "115139.682500", "115143.632500", "115139.792500", "115143.742500", "115139.902500", "115143.852500", "115140.012500", "115143.962500", "115140.122500", "115144.072500", "115140.232500", "115144.182500", "115140.342500", "115144.290000", "115140.450000", "115144.400000", "115140.560000", "115144.510000", "115140.670000", "115144.620000", "115140.780000", "115144.730000", "115140.890000", "115144.840000", "115141.000000", "115144.950000", "115141.110000", "115145.060000", "115141.220000", "115145.167500", "115141.330000", "115145.277500", "115141.437500", "115145.387500", "115141.547500", "115149.357500", "115145.517500", "115149.467500", "115145.627500", "115149.577500", "115145.737500", "115149.687500", "115145.847500", "115149.797500", "115145.957500", "115149.907500", "115146.067500", "115150.015000", "115146.177500", "115150.125000", "115146.285000", "115150.235000", "115146.395000", "115150.345000", "115146.505000", "115150.455000", "115146.615000", "115150.565000", "115146.725000", "115150.675000", "115146.835000", "115150.785000", "115146.945000", "115150.895000", "115147.055000", "115151.002500", "115147.162500", "115151.112500", "115147.272500", "115151.222500", "115147.382500", "115151.332500", "115147.492500", "115151.442500", "115147.602500", "115151.552500", "115147.712500", "115151.662500", "115147.822500", "115151.772500", "115147.932500", "115151.882500", "115148.042500", "115151.990000", "115148.150000", "115152.100000", "115148.260000", "115152.210000", "115148.370000", "115152.320000", "115148.480000", "115152.430000", "115148.590000", "115152.540000", "115148.700000", "115152.650000", "115148.810000", "115152.760000", "115148.920000", "115152.867500", "115149.030000", "115152.977500", "115149.137500", "115153.087500", "115149.247500", "115157.057500", "115153.217500", "115157.167500", "115153.327500", "115157.277500", "115153.437500", "115157.387500", "115153.547500", "115157.497500", "115153.657500", "115157.607500", "115153.767500", "115157.715000", "115153.877500", "115157.825000", "115153.985000", "115157.935000", "115154.095000", "115158.045000", "115154.205000", "115158.155000", "115154.315000", "115158.265000", "115154.425000", "115158.375000", "115154.535000", "115158.485000", "115154.645000", "115158.595000", "115154.755000", "115158.702500", "115154.862500", "115158.812500", "115154.972500", "115158.922500", "115155.082500", "115159.032500", "115155.192500", "115159.142500", "115155.302500", "115159.252500", "115155.412500", "115159.362500", "115155.522500", "115159.472500", "115155.632500", "115159.582500", "115155.742500", "115159.690000", "115155.850000", "115159.800000", "115155.960000", "115159.910000", "115156.070000", "115200.020000", "115156.180000", "115200.130000", "115156.290000", "115200.240000", "115156.400000", "115200.350000", "115156.510000", "115200.460000", "115156.620000", "115200.567500", "115156.730000", "115200.677500", "115156.837500", "115200.787500", "115156.947500", "115204.757500", "115200.917500", "115204.867500", "115201.027500", "115204.977500", "115201.137500", "115205.087500", "115201.247500", "115205.197500", "115201.357500", "115205.307500", "115201.467500", "115205.415000", "115201.577500", "115205.525000", "115201.685000", "115205.635000", "115201.795000", "115205.745000", "115201.905000", "115205.855000", "115202.015000", "115205.965000", "115202.125000", "115206.075000", "115202.235000", "115206.185000", "115202.345000", "115206.295000", "115202.455000", "115206.402500", "115202.562500", "115206.512500", "115202.672500", "115206.622500", "115202.782500", "115206.732500", "115202.892500", "115206.842500", "115203.002500", "115206.952500", "115203.112500", "115207.062500", "115203.222500", "115207.172500", "115203.332500", "115207.282500", "115203.442500", "115207.390000", "115203.550000", "115207.500000", "115203.660000", "115207.610000", "115203.770000", "115207.720000", "115203.880000", "115207.830000", "115203.990000", "115207.940000", "115204.100000", "115208.050000", "115204.210000", "115208.160000", "115204.320000", "115208.267500", "115204.430000", "115208.377500", "115204.537500", "115208.487500", "115204.647500", "115212.457500", "115208.617500", "115212.567500", "115208.727500", "115212.677500", "115208.837500", "115212.787500", "115208.947500", "115212.897500", "115209.057500", "115213.007500", "115209.167500", "115213.115000", "115209.277500", "115213.225000", "115209.385000", "115213.335000", "115209.495000", "115213.445000", "115209.605000", "115213.555000", "115209.715000", "115213.665000", "115209.825000", "115213.775000", "115209.935000", "115213.885000", "115210.045000", "115213.995000", "115210.155000", "115214.102500", "115210.262500", "115214.212500", "115210.372500", "115214.322500", "115210.482500", "115214.432500", "115210.592500", "115214.542500", "115210.702500", "115214.652500", "115210.812500", "115214.762500", "115210.922500", "115214.872500", "115211.032500", "115214.982500", "115211.142500", "115215.090000", "115211.250000", "115215.200000", "115211.360000", "115215.310000", "115211.470000", "115215.420000", "115211.580000", "115215.530000", "115211.690000", "115215.640000", "115211.800000", "115215.750000", "115211.910000", "115215.860000", "115212.020000", "115215.967500", "115212.130000", "115216.077500", "115212.237500", "115216.187500", "115212.347500", "115220.157500", "115216.317500", "115220.267500", "115216.427500", "115220.377500", "115216.537500", "115220.487500", "115216.647500", "115220.597500", "115216.757500", "115220.707500", "115216.867500", "115220.815000", "115216.977500", "115220.925000", "115217.085000", "115221.035000", "115217.195000", "115221.145000", "115217.305000", "115221.255000", "115217.415000", "115221.365000", "115217.525000", "115221.475000", "115217.635000", "115221.585000", "115217.745000", "115221.695000", "115217.855000", "115221.802500", "115217.962500", "115221.912500", "115218.072500", "115222.022500", "115218.182500", "115222.132500", "115218.292500", "115222.242500", "115218.402500", "115222.352500", "115218.512500", "115222.462500", "115218.622500", "115222.572500", "115218.732500", "115222.682500", "115218.842500", "115222.790000", "115218.950000", "115222.900000", "115219.060000", "115223.010000", "115219.170000", "115223.120000", "115219.280000", "115223.230000", "115219.390000", "115223.340000", "115219.500000", "115223.450000", "115219.610000", "115223.560000", "115219.720000", "115223.667500", "115219.830000", "115223.777500", "115219.937500", "115223.887500", "115220.047500", "115227.857500", "115224.017500", "115227.967500", "115224.127500", "115228.077500", "115224.237500", "115228.187500", "115224.347500", "115228.297500", "115224.457500", "115228.407500", "115224.567500", "115228.515000", "115224.677500", "115228.625000", "115224.785000", "115228.735000", "115224.895000", "115228.845000", "115225.005000", "115228.955000", "115225.115000", "115229.065000", "115225.225000", "115229.175000", "115225.335000", "115229.285000", "115225.445000", "115229.395000", "115225.555000", "115229.502500", "115225.662500", "115229.612500", "115225.772500", "115229.722500", "115225.882500", "115229.832500", "115225.992500", "115229.942500", "115226.102500", "115230.052500", "115226.212500", "115230.162500", "115226.322500", "115230.272500", "115226.432500", "115230.382500", "115226.542500", "115230.490000", "115226.650000", "115230.600000", "115226.760000", "115230.710000", "115226.870000", "115230.820000", "115226.980000", "115230.930000", "115227.090000", "115231.040000", "115227.200000", "115231.150000", "115227.310000", "115231.260000", "115227.420000", "115231.367500", "115227.530000", "115231.477500", "115227.637500", "115231.587500", "115227.747500", "115235.557500", "115231.717500", "115235.667500", "115231.827500", "115235.777500", "115231.937500", "115235.887500", "115232.047500", "115235.997500", "115232.157500", "115236.107500", "115232.267500", "115236.215000", "115232.377500", "115236.325000", "115232.485000", "115236.435000", "115232.595000", "115236.545000", "115232.705000", "115236.655000", "115232.815000", "115236.765000", "115232.925000", "115236.875000", "115233.035000", "115236.985000", "115233.145000", "115237.095000", "115233.255000", "115237.202500", "115233.362500", "115237.312500", "115233.472500", "115237.422500", "115233.582500", "115237.532500", "115233.692500", "115237.642500", "115233.802500", "115237.752500", "115233.912500", "115237.862500", "115234.022500", "115237.972500", "115234.132500", "115238.082500", "115234.242500", "115238.190000", "115234.350000", "115238.300000", "115234.460000", "115238.410000", "115234.570000", "115238.520000", "115234.680000", "115238.630000", "115234.790000", "115238.740000", "115234.900000", "115238.850000", "115235.010000", "115238.960000", "115235.120000", "115239.067500", "115235.230000", "115239.177500", "115235.337500", "115239.287500", "115235.447500", "115243.257500", "115239.417500", "115243.367500", "115239.527500", "115243.477500", "115239.637500", "115243.587500", "115239.747500", "115243.697500", "115239.857500", "115243.807500", "115239.967500", "115243.915000", "115240.077500", "115244.025000", "115240.185000", "115244.135000", "115240.295000", "115244.245000", "115240.405000", "115244.355000", "115240.515000", "115244.465000", "115240.625000", "115244.575000", "115240.735000", "115244.685000", "115240.845000", "115244.795000", "115240.955000", "115244.902500", "115241.062500", "115245.012500", "115241.172500", "115245.122500", "115241.282500", "115245.232500", "115241.392500", "115245.342500", "115241.502500", "115245.452500", "115241.612500", "115245.562500", "115241.722500", "115245.672500", "115241.832500", "115245.782500", "115241.942500", "115245.890000", "115242.050000", "115246.000000", "115242.160000", "115246.110000", "115242.270000", "115246.220000", "115242.380000", "115246.330000", "115242.490000", "115246.440000", "115242.600000", "115246.550000", "115242.710000", "115246.660000", "115242.820000", "115246.767500", "115242.930000", "115246.877500", "115243.037500", "115246.987500", "115243.147500", "115250.957500", "115247.117500", "115251.067500", "115247.227500", "115251.177500", "115247.337500", "115251.287500", "115247.447500", "115251.397500", "115247.557500", "115251.507500", "115247.667500", "115251.615000", "115247.777500", "115251.725000", "115247.885000", "115251.835000", "115247.995000", "115251.945000", "115248.105000", "115252.055000", "115248.215000", "115252.165000", "115248.325000", "115252.275000", "115248.435000", "115252.385000", "115248.545000", "115252.495000", "115248.655000", "115252.602500", "115248.762500", "115252.712500", "115248.872500", "115252.822500", "115248.982500", "115252.932500", "115249.092500", "115253.042500", "115249.202500", "115253.152500", "115249.312500", "115253.262500", "115249.422500", "115253.372500", "115249.532500", "115253.482500", "115249.642500", "115253.590000", "115249.750000", "115253.700000", "115249.860000", "115253.810000", "115249.970000", "115253.920000", "115250.080000", "115254.030000", "115250.190000", "115254.140000", "115250.300000", "115254.250000", "115250.410000", "115254.360000", "115250.520000", "115254.467500", "115250.630000", "115254.577500", "115250.737500", "115254.687500", "115250.847500", "115258.657500", "115254.817500", "115258.767500", "115254.927500", "115258.877500", "115255.037500", "115258.987500", "115255.147500", "115259.097500", "115255.257500", "115259.207500", "115255.367500", "115259.315000", "115255.477500", "115259.425000", "115255.585000", "115259.535000", "115255.695000", "115259.645000", "115255.805000", "115259.755000", "115255.915000", "115259.865000", "115256.025000", "115259.975000", "115256.135000", "115300.085000", "115256.245000", "115300.195000", "115256.355000", "115300.302500", "115256.462500", "115300.412500", "115256.572500", "115300.522500", "115256.682500", "115300.632500", "115256.792500", "115300.742500", "115256.902500", "115300.852500", "115257.012500", "115300.962500", "115257.122500", "115301.072500", "115257.232500", "115301.182500", "115257.342500", "115301.290000", "115257.450000", "115301.400000", "115257.560000", "115301.510000", "115257.670000", "115301.620000", "115257.780000", "115301.730000", "115257.890000", "115301.840000", "115258.000000", "115301.950000", "115258.110000", "115302.060000", "115258.220000", "115302.167500", "115258.330000", "115302.277500", "115258.437500", "115302.387500", "115258.547500", "115306.357500", "115302.517500", "115306.467500", "115302.627500", "115306.577500", "115302.737500", "115306.687500", "115302.847500", "115306.797500", "115302.957500", "115306.907500", "115303.067500", "115307.015000", "115303.177500", "115307.125000", "115303.285000", "115307.235000", "115303.395000", "115307.345000", "115303.505000", "115307.455000", "115303.615000", "115307.565000", "115303.725000", "115307.675000", "115303.835000", "115307.785000", "115303.945000", "115307.895000", "115304.055000", "115308.002500", "115304.162500", "115308.112500", "115304.272500", "115308.222500", "115304.382500", "115308.332500", "115304.492500", "115308.442500", "115304.602500", "115308.552500", "115304.712500", "115308.662500", "115304.822500", "115308.772500", "115304.932500", "115308.882500", "115305.042500", "115308.990000", "115305.150000", "115309.100000", "115305.260000", "115309.210000", "115305.370000", "115309.320000", "115305.480000", "115309.430000", "115305.590000", "115309.540000", "115305.700000", "115309.650000", "115305.810000", "115309.760000", "115305.920000", "115309.867500", "115306.030000", "115309.977500", "115306.137500", "115310.087500", "115306.247500", "115314.057500", "115310.217500", "115314.167500", "115310.327500", "115314.277500", "115310.437500", "115314.387500", "115310.547500", "115314.497500", "115310.657500", "115314.607500", "115310.767500", "115314.715000", "115310.877500", "115314.825000", "115310.985000", "115314.935000", "115311.095000", "115315.045000", "115311.205000", "115315.155000", "115311.315000", "115315.265000", "115311.425000", "115315.375000", "115311.535000", "115315.485000", "115311.645000", "115315.595000", "115311.755000", "115315.702500", "115311.862500", "115315.812500", "115311.972500", "115315.922500", "115312