{
  "AcquisitionMatrixPE": 80,
  "AcquisitionNumber": 1,
  "AcquisitionTime": "09:54:38.497500",
  "BandwidthPerPixelPhaseEncode": 25,
  "BaseResolution": 80,
  "BodyPartExamined": "BRAIN",
  "CoilCombinationMethod": "Sum of Squares",
  "ConsistencyInfo": "N4_VE11C_LATEST_20160120",
  "ConversionSoftware": "dcm2niix",
  "ConversionSoftwareVersion": "v1.0.20220720",
  "DerivedVendorReportedEchoSpacing": 0.0005,
  "DeviceSerialNumber": "66112",
  "DwellTime": 2.7e-06,
  "EchoTime": 0.03,
  "EchoTrainLength": 80,
  "EffectiveEchoSpacing": 0.0005,
  "FlipAngle": 77,
  "HeudiconvVersion": "0.13.1",
  "ImageOrientationPatientDICOM": [0.98794, -0.154779, 0.00416217, 0.146591, 0.943653, 0.296697],
  "ImageOrientationText": "Tra>Cor(17.0)>Sag(2.9)",
  "ImageType": [
    "ORIGINAL",
    "PRIMARY",
    "M",
    "ND",
    "NORM",
    "MOSAIC"
],
  "ImagingFrequency": 123.252,
  "InPlanePhaseEncodingDirectionDICOM": "COL",
  "InstitutionAddress": "Maynard 3,Hanover,NH,US,03755",
  "InstitutionName": "Dartmouth College - PBS",
  "InstitutionalDepartmentName": "Department",
  "MRAcquisitionType": "2D",
  "MagneticFieldStrength": 3,
  "Manufacturer": "Siemens",
  "ManufacturersModelName": "Prisma",
  "MatrixCoilMode": "SENSE",
  "Modality": "MR",
  "NonlinearGradientCorrection": false,
  "PartialFourier": 1,
  "PatientPosition": "HFS",
  "PercentPhaseFOV": 100,
  "PercentSampling": 100,
  "PhaseEncodingDirection": "j-",
  "PhaseEncodingSteps": 80,
  "PhaseResolution": 1,
  "PixelBandwidth": 2315,
  "ProcedureStepDescription": "dbic^QA",
  "ProtocolName": "func-bold_fa-77",
  "PulseSequenceDetails": "%SiemensSeq%\\ep2d_bold",
  "ReceiveCoilActiveElements": "HEA;HEP",
  "ReceiveCoilName": "Head_32",
  "ReconMatrixPE": 80,
  "RepetitionTime": 2,
  "SAR": 0.0435324,
  "ScanOptions": "FS",
  "ScanningSequence": "EP",
  "SequenceName": "*epfid2d1_80",
  "SequenceVariant": "SK",
  "SeriesDescription": "func-bold_fa-77",
  "SeriesNumber": 8,
  "ShimSetting": [4148, -7708, -7531, 238, -91, -105, 15, 43],
  "SliceThickness": 3.5,
  "SliceTiming": [0.99, 0, 1.055, 0.065, 1.1225, 0.1325, 1.1875, 0.1975, 1.2525, 0.2625, 1.32, 0.33, 1.385, 0.395, 1.45, 0.4625, 1.5175, 0.5275, 1.5825, 0.5925, 1.65, 0.66, 1.715, 0.725, 1.78, 0.7925, 1.8475, 0.8575, 1.9125, 0.9225],
  "SoftwareVersions": "syngo MR E11",
  "SpacingBetweenSlices": 3.99,
  "StationName": "AWP66112",
  "TotalReadoutTime": 0.0395,
  "TxRefAmp": 219.216,
  "dcmmeta_affine": [
    [-2.9638209342956543, 0.4397733807563782, 0.19890277087688446, 99.1872329711914],
    [0.4643384516239166, 2.8309600353240967, 1.1671116352081299, -149.34466552734375],
    [0.012486514635384083, -0.8900921940803528, 3.810300350189209, -15.6195707321167],
    [0.0, 0.0, 0.0, 1.0]
],
  "dcmmeta_reorient_transform": [
    [0.0, -1.0, 0.0, 79.0],
    [1.0, 0.0, 0.0, 0.0],
    [0.0, 0.0, 1.0, 0.0],
    [0.0, 0.0, 0.0, 1.0]
],
  "dcmmeta_shape": [80, 80, 30, 200],
  "dcmmeta_slice_dim": 2,
  "dcmmeta_version": 0.6,
  "global": {
    "const": {
      "AccessionNumber": "qa",
      "AcquisitionMatrix": [80, 0, 0, 80],
      "AngioFlag": "N",
      "BitsAllocated": 16,
      "BitsStored": 12,
      "BodyPartExamined": "BRAIN",
      "Columns": 480,
      "EchoNumbers": 1,
      "EchoTime": 30.0,
      "EchoTrainLength": 80,
      "FlipAngle": 77.0,
      "HighBit": 11,
      "ImageOrientationPatient": [0.98794027598268, -0.1547794799679, 0.00416217156563, 0.14659112216529, 0.9436533782329, 0.29669739576201],
      "ImagePositionPatient": [-814.64817013547, -547.62552305025, -266.452594378],
      "ImageType": [
        "ORIGINAL",
        "PRIMARY",
        "M",
        "ND",
        "NORM",
        "MOSAIC"
],
      "ImagedNucleus": "1H",
      "ImagingFrequency": 123.252341,
      "InPlanePhaseEncodingDirection": "COL",
      "MRAcquisitionType": "2D",
      "MagneticFieldStrength": 3.0,
      "Manufacturer": "SIEMENS",
      "ManufacturerModelName": "Prisma",
      "Modality": "MR",
      "NumberOfAverages": 1.0,
      "NumberOfPhaseEncodingSteps": 80,
      "PercentPhaseFieldOfView": 100.0,
      "PercentSampling": 100.0,
      "PerformedProcedureStepStartTime": "093453.226000",
      "PhotometricInterpretation": "MONOCHROME2",
      "PixelBandwidth": 2315.0,
      "PixelRepresentation": 0,
      "PixelSpacing": [3.0, 3.0],
      "ProtocolName": "func-bold_fa-77",
      "RepetitionTime": 2000.0,
      "Rows": 480,
      "SAR": 0.04353238552666,
      "SamplesPerPixel": 1,
      "ScanOptions": "FS",
      "ScanningSequence": "EP",
      "SequenceName": "*epfid2d1_80",
      "SequenceVariant": "SK",
      "SeriesDescription": "func-bold_fa-77",
      "SeriesNumber": 8,
      "SeriesTime": "095530.250000",
      "SliceLocation": -53.656273776314,
      "SliceThickness": 3.5,
      "SmallestImagePixelValue": 0,
      "SoftwareVersions": "syngo MR E11",
      "SpacingBetweenSlices": 3.9900000859474,
      "SpecificCharacterSet": "ISO_IR 100",
      "StudyID": "48",
      "StudyTime": "093453.177000",
      "TransmitCoilName": "Body",
      "VariableFlipAngleFlag": "N",
      "WindowCenterWidthExplanation": "Algo1",
      "dBdt": 0.0},
    "slices": {}
  },
  "time": {
    "samples": {
      "AcquisitionNumber": [1, 2, 3, 4, 5, 6, 7, 8, 9, 10, 11, 12, 13, 14, 15, 16, 17, 18, 19, 20, 21, 22, 23, 24, 25, 26, 27, 28, 29, 30, 31, 32, 33, 34, 35, 36, 37, 38, 39, 40, 41, 42, 43, 44, 45, 46, 47, 48, 49, 50, 51, 52, 53, 54, 55, 56, 57, 58, 59, 60, 61, 62, 63, 64, 65, 66, 67, 68, 69, 70, 71, 72, 73, 74, 75, 76, 77, 78, 79, 80, 81, 82, 83, 84, 85, 86, 87, 88, 89, 90, 91, 92, 93, 94, 95, 96, 97, 98, 99, 100, 101, 102, 103, 104, 105, 106, 107, 108, 109, 110, 111, 112, 113, 114, 115, 116, 117, 118, 119, 120, 121, 122, 123, 124, 125, 126, 127, 128, 129, 130, 131, 132, 133, 134, 135, 136, 137, 138, 139, 140, 141, 142, 143, 144, 145, 146, 147, 148, 149, 150, 151, 152, 153, 154, 155, 156, 157, 158, 159, 160, 161, 162, 163, 164, 165, 166, 167, 168, 169, 170, 171, 172, 173, 174, 175, 176, 177, 178, 179, 180, 181, 182, 183, 184, 185, 186, 187, 188, 189, 190, 191, 192, 193, 194, 195, 196, 197, 198, 199, 200],
      "AcquisitionTime": ["095438.497500", "095440.497500", "095442.497500", "095444.497500", "095446.497500", "095448.497500", "095450.497500", "095452.497500", "095454.497500", "095456.497500", "095458.497500", "095500.497500", "095502.497500", "095504.497500", "095506.497500", "095508.497500", "095510.497500", "095512.497500", "095514.497500", "095516.497500", "095518.497500", "095520.497500", "095522.497500", "095524.497500", "095526.497500", "095528.497500", "095530.497500", "095532.497500", "095534.497500", "095536.497500", "095538.497500", "095540.497500", "095542.497500", "095544.497500", "095546.497500", "095548.497500", "095550.497500", "095552.497500", "095554.497500", "095556.497500", "095558.497500", "095600.497500", "095602.497500", "095604.497500", "095606.497500", "095608.497500", "095610.497500", "095612.497500", "095614.497500", "095616.497500", "095618.497500", "095620.497500", "095622.497500", "095624.497500", "095626.497500", "095628.497500", "095630.497500", "095632.497500", "095634.497500", "095636.497500", "095638.497500", "095640.497500", "095642.497500", "095644.497500", "095646.497500", "095648.497500", "095650.497500", "095652.497500", "095654.497500", "095656.497500", "095658.497500", "095700.497500", "095702.497500", "095704.497500", "095706.497500", "095708.497500", "095710.497500", "095712.497500", "095714.497500", "095716.497500", "095718.497500", "095720.497500", "095722.497500", "095724.497500", "095726.497500", "095728.497500", "095730.497500", "095732.497500", "095734.497500", "095736.497500", "095738.497500", "095740.497500", "095742.497500", "095744.497500", "095746.497500", "095748.497500", "095750.497500", "095752.497500", "095754.497500", "095756.497500", "095758.497500", "095800.497500", "095802.497500", "095804.497500", "095806.497500", "095808.497500", "095810.497500", "095812.497500", "095814.497500", "095816.497500", "095818.497500", "095820.497500", "095822.497500", "095824.497500", "095826.497500", "095828.497500", "095830.497500", "095832.497500", "095834.497500", "095836.497500", "095838.497500", "095840.497500", "095842.497500", "095844.497500", "095846.497500", "095848.497500", "095850.497500", "095852.497500", "095854.497500", "095856.497500", "095858.497500", "095900.497500", "095902.497500", "095904.497500", "095906.497500", "095908.497500", "095910.497500", "095912.497500", "095914.497500", "095916.497500", "095918.497500", "095920.497500", "095922.497500", "095924.497500", "095926.497500", "095928.497500", "095930.497500", "095932.497500", "095934.497500", "095936.497500", "095938.497500", "095940.497500", "095942.497500", "095944.497500", "095946.497500", "095948.497500", "095950.497500", "095952.497500", "095954.497500", "095956.497500", "095958.497500", "100000.497500", "100002.497500", "100004.497500", "100006.497500", "100008.497500", "100010.497500", "100012.497500", "100014.497500", "100016.497500", "100018.497500", "100020.497500", "100022.497500", "100024.497500", "100026.497500", "100028.497500", "100030.497500", "100032.497500", "100034.497500", "100036.497500", "100038.497500", "100040.497500", "100042.497500", "100044.497500", "100046.497500", "100048.497500", "100050.497500", "100052.497500", "100054.497500", "100056.497500", "100058.497500", "100100.497500", "100102.497500", "100104.497500", "100106.497500", "100108.497500", "100110.497500", "100112.497500", "100114.497500", "100116.497500"],
      "ContentTime": ["095530.253000", "095530.257000", "095530.264000", "095530.267000", "095530.269000", "095530.272000", "095530.274000", "095530.277000", "095530.279000", "095530.282000", "095530.284000", "095530.287000", "095530.289000", "095530.292000", "095530.294000", "095530.297000", "095530.299000", "095530.302000", "095530.304000", "095530.307000", "095530.309000", "095530.312000", "095530.314000", "095530.317000", "095530.320000", "095530.322000", "095610.248000", "095610.251000", "095610.254000", "095610.256000", "095610.259000", "095610.261000", "095610.264000", "095610.266000", "095610.269000", "095610.271000", "095610.274000", "095610.277000", "095610.279000", "095610.282000", "095610.284000", "095610.287000", "095610.289000", "095610.292000", "095610.294000", "095610.297000", "095630.249000", "095630.251000", "095630.254000", "095630.256000", "095630.259000", "095630.261000", "095630.264000", "095630.266000", "095630.269000", "095630.272000", "095710.249000", "095710.251000", "095710.254000", "095710.257000", "095710.259000", "095710.262000", "095710.264000", "095710.267000", "095710.269000", "095710.272000", "095710.274000", "095710.277000", "095710.279000", "095710.282000", "095710.284000", "095710.287000", "095710.290000", "095710.292000", "095710.295000", "095710.297000", "095750.248000", "095750.251000", "095750.254000", "095750.256000", "095750.259000", "095750.262000", "095750.264000", "095750.272000", "095750.275000", "095750.277000", "095750.280000", "095750.282000", "095750.285000", "095750.287000", "095750.290000", "095750.293000", "095750.295000", "095750.298000", "095750.301000", "095750.303000", "095830.249000", "095830.251000", "095830.254000", "095830.256000", "095830.259000", "095830.261000", "095830.264000", "095830.267000", "095830.269000", "095830.272000", "095830.274000", "095830.277000", "095830.279000", "095830.282000", "095830.284000", "095830.287000", "095830.289000", "095830.292000", "095830.295000", "095830.297000", "095910.249000", "095910.252000", "095910.255000", "095910.257000", "095910.260000", "095910.263000", "095910.265000", "095910.268000", "095910.270000", "095910.273000", "095910.275000", "095910.278000", "095910.280000", "095910.283000", "095910.285000", "095910.288000", "095910.290000", "095910.293000", "095910.296000", "095910.298000", "095950.249000", "095950.252000", "095950.257000", "095950.260000", "095950.262000", "095950.265000", "095950.268000", "095950.270000", "095950.273000", "095950.275000", "095950.278000", "095950.280000", "095950.283000", "095950.285000", "095950.288000", "095950.291000", "095950.293000", "095950.296000", "095950.299000", "095950.301000", "100030.248000", "100030.251000", "100030.254000", "100030.263000", "100030.266000", "100030.269000", "100030.271000", "100030.274000", "100030.276000", "100030.279000", "100030.281000", "100030.284000", "100030.286000", "100030.289000", "100030.292000", "100030.294000", "100030.297000", "100030.299000", "100030.302000", "100030.304000", "100110.249000", "100110.251000", "100110.254000", "100110.257000", "100110.259000", "100110.262000", "100110.264000", "100110.267000", "100110.269000", "100110.272000", "100110.275000", "100110.277000", "100110.280000", "100110.282000", "100110.285000", "100110.287000", "100110.290000", "100110.292000", "100110.295000", "100110.297000", "100118.077000", "100118.080000", "100118.082000", "100118.085000"],
      "InstanceCreationTime": ["095530.253000", "095530.257000", "095530.264000", "095530.267000", "095530.269000", "095530.272000", "095530.274000", "095530.277000", "095530.279000", "095530.282000", "095530.284000", "095530.287000", "095530.289000", "095530.292000", "095530.294000", "095530.297000", "095530.299000", "095530.302000", "095530.304000", "095530.307000", "095530.309000", "095530.312000", "095530.314000", "095530.317000", "095530.320000", "095530.322000", "095610.248000", "095610.251000", "095610.254000", "095610.256000", "095610.259000", "095610.261000", "095610.264000", "095610.266000", "095610.269000", "095610.271000", "095610.274000", "095610.277000", "095610.279000", "095610.282000", "095610.284000", "095610.287000", "095610.289000", "095610.292000", "095610.294000", "095610.297000", "095630.249000", "095630.251000", "095630.254000", "095630.256000", "095630.259000", "095630.261000", "095630.264000", "095630.266000", "095630.269000", "095630.272000", "095710.249000", "095710.251000", "095710.254000", "095710.257000", "095710.259000", "095710.262000", "095710.264000", "095710.267000", "095710.269000", "095710.272000", "095710.274000", "095710.277000", "095710.279000", "095710.282000", "095710.284000", "095710.287000", "095710.290000", "095710.292000", "095710.295000", "095710.297000", "095750.248000", "095750.251000", "095750.254000", "095750.256000", "095750.259000", "095750.262000", "095750.264000", "095750.272000", "095750.275000", "095750.277000", "095750.280000", "095750.282000", "095750.285000", "095750.287000", "095750.290000", "095750.293000", "095750.295000", "095750.298000", "095750.301000", "095750.303000", "095830.249000", "095830.251000", "095830.254000", "095830.256000", "095830.259000", "095830.261000", "095830.264000", "095830.267000", "095830.269000", "095830.272000", "095830.274000", "095830.277000", "095830.279000", "095830.282000", "095830.284000", "095830.287000", "095830.289000", "095830.292000", "095830.295000", "095830.297000", "095910.249000", "095910.252000", "095910.255000", "095910.257000", "095910.260000", "095910.263000", "095910.265000", "095910.268000", "095910.270000", "095910.273000", "095910.275000", "095910.278000", "095910.280000", "095910.283000", "095910.285000", "095910.288000", "095910.290000", "095910.293000", "095910.296000", "095910.298000", "095950.249000", "095950.252000", "095950.257000", "095950.260000", "095950.262000", "095950.265000", "095950.268000", "095950.270000", "095950.273000", "095950.275000", "095950.278000", "095950.280000", "095950.283000", "095950.285000", "095950.288000", "095950.291000", "095950.293000", "095950.296000", "095950.299000", "095950.301000", "100030.248000", "100030.251000", "100030.254000", "100030.263000", "100030.266000", "100030.269000", "100030.271000", "100030.274000", "100030.276000", "100030.279000", "100030.281000", "100030.284000", "100030.286000", "100030.289000", "100030.292000", "100030.294000", "100030.297000", "100030.299000", "100030.302000", "100030.304000", "100110.249000", "100110.251000", "100110.254000", "100110.257000", "100110.259000", "100110.262000", "100110.264000", "100110.267000", "100110.269000", "100110.272000", "100110.275000", "100110.277000", "100110.280000", "100110.282000", "100110.285000", "100110.287000", "100110.290000", "100110.292000", "100110.295000", "100110.297000", "100118.077000", "100118.080000", "100118.082000", "100118.085000"],
      "InstanceNumber": [1, 2, 3, 4, 5, 6, 7, 8, 9, 10, 11, 12, 13, 14, 15, 16, 17, 18, 19, 20, 21, 22, 23, 24, 25, 26, 27, 28, 29, 30, 31, 32, 33, 34, 35, 36, 37, 38, 39, 40, 41, 42, 43, 44, 45, 46, 47, 48, 49, 50, 51, 52, 53, 54, 55, 56, 57, 58, 59, 60, 61, 62, 63, 64, 65, 66, 67, 68, 69, 70, 71, 72, 73, 74, 75, 76, 77, 78, 79, 80, 81, 82, 83, 84, 85, 86, 87, 88, 89, 90, 91, 92, 93, 94, 95, 96, 97, 98, 99, 100, 101, 102, 103, 104, 105, 106, 107, 108, 109, 110, 111, 112, 113, 114, 115, 116, 117, 118, 119, 120, 121, 122, 123, 124, 125, 126, 127, 128, 129, 130, 131, 132, 133, 134, 135, 136, 137, 138, 139, 140, 141, 142, 143, 144, 145, 146, 147, 148, 149, 150, 151, 152, 153, 154, 155, 156, 157, 158, 159, 160, 161, 162, 163, 164, 165, 166, 167, 168, 169, 170, 171, 172, 173, 174, 175, 176, 177, 178, 179, 180, 181, 182, 183, 184, 185, 186, 187, 188, 189, 190, 191, 192, 193, 194, 195, 196, 197, 198, 199, 200],
      "LargestImagePixelValue": [2493, 2494, 2492, 2494, 2493, 2493, 2494, 2493, 2492, 2493, 2494, 2494, 2491, 2493, 2490, 2493, 2491, 2493, 2494, 2492, 2493, 2491, 2492, 2493, 2491, 2490, 2492, 2489, 2493, 2491, 2491, 2490, 2491, 2492, 2490, 2491, 2490, 2489, 2491, 2490, 2489, 2491, 2490, 2494, 2490, 2492, 2488, 2490, 2490, 2491, 2490, 2491, 2490, 2489, 2491, 2489, 2489, 2489, 2489, 2490, 2488, 2490, 2490, 2488, 2488, 2490, 2489, 2490, 2491, 2488, 2490, 2488, 2490, 2488, 2490, 2489, 2487, 2490, 2489, 2488, 2488, 2487, 2488, 2488, 2487, 2487, 2487, 2488, 2488, 2489, 2485, 2487, 2487, 2490, 2487, 2486, 2486, 2488, 2486, 2488, 2484, 2489, 2486, 2486, 2485, 2487, 2486, 2488, 2486, 2486, 2488, 2485, 2485, 2482, 2486, 2486, 2483, 2484, 2485, 2481, 2483, 2483, 2481, 2482, 2484, 2483, 2483, 2485, 2484, 2482, 2485, 2485, 2485, 2486, 2485, 2487, 2485, 2485, 2485, 2487, 2485, 2484, 2482, 2486, 2485, 2484, 2485, 2480, 2485, 2483, 2483, 2486, 2484, 2484, 2483, 2483, 2484, 2483, 2483, 2485, 2482, 2484, 2482, 2485, 2485, 2482, 2484, 2485, 2485, 2483, 2483, 2480, 2485, 2484, 2482, 2485, 2484, 2483, 2482, 2483, 2482, 2484, 2482, 2482, 2482, 2484, 2484, 2482, 2484, 2482, 2482, 2482, 2483, 2483, 2485, 2484, 2485, 2482, 2482, 2485],
      "WindowCenter": [1051.0, 1051.0, 1051.0, 1053.0, 1051.0, 1051.0, 1051.0, 1052.0, 1051.0, 1051.0, 1051.0, 1051.0, 1051.0, 1052.0, 1051.0, 1051.0, 1051.0, 1052.0, 1051.0, 1052.0, 1051.0, 1051.0, 1051.0, 1051.0, 1051.0, 1051.0, 1052.0, 1051.0, 1051.0, 1051.0, 1051.0, 1051.0, 1052.0, 1052.0, 1052.0, 1051.0, 1052.0, 1051.0, 1051.0, 1051.0, 1051.0, 1051.0, 1052.0, 1051.0, 1051.0, 1052.0, 1051.0, 1051.0, 1051.0, 1051.0, 1051.0, 1051.0, 1051.0, 1052.0, 1051.0, 1052.0, 1052.0, 1051.0, 1051.0, 1051.0, 1051.0, 1051.0, 1052.0, 1051.0, 1051.0, 1052.0, 1052.0, 1051.0, 1051.0, 1051.0, 1051.0, 1051.0, 1051.0, 1051.0, 1051.0, 1052.0, 1052.0, 1051.0, 1051.0, 1051.0, 1051.0, 1051.0, 1052.0, 1051.0, 1050.0, 1051.0, 1050.0, 1050.0, 1050.0, 1052.0, 1051.0, 1050.0, 1051.0, 1050.0, 1050.0, 1050.0, 1050.0, 1050.0, 1050.0, 1050.0, 1050.0, 1050.0, 1050.0, 1051.0, 1050.0, 1050.0, 1050.0, 1050.0, 1050.0, 1050.0, 1050.0, 1051.0, 1050.0, 1050.0, 1050.0, 1050.0, 1051.0, 1050.0, 1050.0, 1050.0, 1050.0, 1050.0, 1050.0, 1050.0, 1050.0, 1050.0, 1051.0, 1050.0, 1050.0, 1051.0, 1050.0, 1050.0, 1050.0, 1050.0, 1051.0, 1050.0, 1050.0, 1050.0, 1051.0, 1051.0, 1051.0, 1050.0, 1050.0, 1050.0, 1050.0, 1050.0, 1050.0, 1050.0, 1050.0, 1050.0, 1050.0, 1050.0, 1050.0, 1050.0, 1050.0, 1050.0, 1050.0, 1051.0, 1050.0, 1051.0, 1050.0, 1050.0, 1050.0, 1050.0, 1051.0, 1050.0, 1050.0, 1051.0, 1050.0, 1050.0, 1050.0, 1050.0, 1050.0, 1050.0, 1050.0, 1050.0, 1050.0, 1050.0, 1050.0, 1050.0, 1050.0, 1050.0, 1050.0, 1049.0, 1051.0, 1050.0, 1050.0, 1050.0, 1050.0, 1051.0, 1050.0, 1050.0, 1050.0, 1050.0, 1051.0, 1050.0, 1050.0, 1050.0, 1050.0, 1050.0],
      "WindowWidth": [2389.0, 2389.0, 2389.0, 2390.0, 2389.0, 2389.0, 2389.0, 2390.0, 2389.0, 2389.0, 2389.0, 2389.0, 2389.0, 2390.0, 2389.0, 2389.0, 2389.0, 2390.0, 2389.0, 2390.0, 2388.0, 2388.0, 2389.0, 2389.0, 2389.0, 2389.0, 2390.0, 2389.0, 2389.0, 2389.0, 2389.0, 2389.0, 2390.0, 2390.0, 2389.0, 2388.0, 2390.0, 2388.0, 2388.0, 2388.0, 2388.0, 2388.0, 2390.0, 2389.0, 2389.0, 2390.0, 2389.0, 2389.0, 2388.0, 2388.0, 2389.0, 2388.0, 2389.0, 2389.0, 2388.0, 2389.0, 2389.0, 2388.0, 2388.0, 2388.0, 2388.0, 2388.0, 2389.0, 2388.0, 2388.0, 2389.0, 2389.0, 2388.0, 2388.0, 2388.0, 2388.0, 2388.0, 2388.0, 2388.0, 2388.0, 2389.0, 2389.0, 2388.0, 2388.0, 2388.0, 2388.0, 2388.0, 2389.0, 2388.0, 2388.0, 2388.0, 2388.0, 2388.0, 2388.0, 2389.0, 2388.0, 2387.0, 2389.0, 2388.0, 2388.0, 2386.0, 2387.0, 2387.0, 2387.0, 2387.0, 2387.0, 2387.0, 2387.0, 2388.0, 2387.0, 2387.0, 2387.0, 2387.0, 2387.0, 2387.0, 2387.0, 2388.0, 2387.0, 2387.0, 2387.0, 2387.0, 2387.0, 2387.0, 2386.0, 2386.0, 2386.0, 2386.0, 2386.0, 2387.0, 2387.0, 2387.0, 2388.0, 2387.0, 2387.0, 2388.0, 2387.0, 2387.0, 2387.0, 2387.0, 2388.0, 2387.0, 2387.0, 2387.0, 2387.0, 2388.0, 2387.0, 2387.0, 2387.0, 2387.0, 2387.0, 2387.0, 2387.0, 2387.0, 2387.0, 2387.0, 2387.0, 2387.0, 2387.0, 2387.0, 2387.0, 2387.0, 2386.0, 2387.0, 2387.0, 2387.0, 2386.0, 2386.0, 2386.0, 2386.0, 2387.0, 2386.0, 2386.0, 2387.0, 2386.0, 2386.0, 2386.0, 2386.0, 2386.0, 2386.0, 2386.0, 2386.0, 2386.0, 2386.0, 2386.0, 2386.0, 2386.0, 2386.0, 2386.0, 2386.0, 2387.0, 2386.0, 2386.0, 2386.0, 2386.0, 2386.0, 2386.0, 2386.0, 2386.0, 2386.0, 2386.0, 2386.0, 2386.0, 2386.0, 2386.0, 2386.0]
    },
    "slices": {}
  }
}