{
  "AcquisitionMatrixPE": 80,
  "AcquisitionNumber": 1,
  "AcquisitionTime": "09:40:53.800000",
  "BandwidthPerPixelPhaseEncode": 48.077,
  "BaseResolution": 80,
  "BodyPartExamined": "BRAIN",
  "CoilCombinationMethod": "Sum of Squares",
  "ConsistencyInfo": "N4_VE11C_LATEST_20160120",
  "ConversionSoftware": "dcm2niix",
  "ConversionSoftwareVersion": "v1.0.20220720",
  "DerivedVendorReportedEchoSpacing": 0.000519999,
  "DeviceSerialNumber": "66112",
  "DwellTime": 2.7e-06,
  "EchoTime": 0.035,
  "EchoTrainLength": 39,
  "EffectiveEchoSpacing": 0.00026,
  "FlipAngle": 90,
  "HeudiconvVersion": "0.13.1",
  "ImageOrientationPatientDICOM": [0.98794, -0.154779, 0.00416217, 0.146591, 0.943653, 0.296697],
  "ImageOrientationText": "Tra>Cor(17.0)>Sag(2.9)",
  "ImageType": [
    "ORIGINAL",
    "PRIMARY",
    "M",
    "ND",
    "NORM",
    "MOSAIC"
],
  "ImagingFrequency": 123.252,
  "InPlanePhaseEncodingDirectionDICOM": "COL",
  "InstitutionAddress": "Maynard 3,Hanover,NH,US,03755",
  "InstitutionName": "Dartmouth College - PBS",
  "InstitutionalDepartmentName": "Department",
  "MRAcquisitionType": "2D",
  "MagneticFieldStrength": 3,
  "Manufacturer": "Siemens",
  "ManufacturersModelName": "Prisma",
  "MatrixCoilMode": "GRAPPA",
  "Modality": "MR",
  "NonlinearGradientCorrection": false,
  "ParallelReductionFactorInPlane": 2,
  "PartialFourier": 1,
  "PatientPosition": "HFS",
  "PercentPhaseFOV": 100,
  "PercentSampling": 100,
  "PhaseEncodingDirection": "j-",
  "PhaseEncodingSteps": 79,
  "PhaseResolution": 1,
  "PixelBandwidth": 2315,
  "ProcedureStepDescription": "dbic^QA",
  "ProtocolName": "func-bold_task-rest_acq-p2",
  "PulseSequenceDetails": "%SiemensSeq%\\ep2d_bold",
  "ReceiveCoilActiveElements": "HEA;HEP",
  "ReceiveCoilName": "Head_32",
  "ReconMatrixPE": 80,
  "RefLinesPE": 24,
  "RepetitionTime": 2,
  "SAR": 0.0553953,
  "ScanOptions": "FS",
  "ScanningSequence": "EP",
  "SequenceName": "*epfid2d1_80",
  "SequenceVariant": "SK",
  "SeriesDescription": "func-bold_task-rest_acq-p2",
  "SeriesNumber": 5,
  "ShimSetting": [4148, -7709, -7531, 244, -93, -109, 13, 43],
  "SliceThickness": 3.5,
  "SliceTiming": [0.99, 0, 1.055, 0.065, 1.1225, 0.1325, 1.1875, 0.1975, 1.255, 0.265, 1.32, 0.33, 1.385, 0.395, 1.4525, 0.4625, 1.5175, 0.5275, 1.585, 0.595, 1.65, 0.66, 1.715, 0.725, 1.7825, 0.7925, 1.8475, 0.8575, 1.9125, 0.925],
  "SoftwareVersions": "syngo MR E11",
  "SpacingBetweenSlices": 3.99,
  "StationName": "AWP66112",
  "TaskName": "rest",
  "TotalReadoutTime": 0.02054,
  "TxRefAmp": 219.216,
  "dcmmeta_affine": [
    [-2.9638209342956543, 0.4397733807563782, 0.19890277087688446, 98.87213897705078],
    [0.4643384516239166, 2.8309600353240967, 1.1671116352081299, -151.30064392089844],
    [0.012486514635384083, -0.8900921940803528, 3.810300350189209, -17.690711975097656],
    [0.0, 0.0, 0.0, 1.0]
],
  "dcmmeta_reorient_transform": [
    [0.0, -1.0, 0.0, 79.0],
    [1.0, 0.0, 0.0, 0.0],
    [0.0, 0.0, 1.0, 0.0],
    [0.0, 0.0, 0.0, 1.0]
],
  "dcmmeta_shape": [80, 80, 30, 200],
  "dcmmeta_slice_dim": 2,
  "dcmmeta_version": 0.6,
  "global": {
    "const": {
      "AccessionNumber": "qa",
      "AcquisitionMatrix": [80, 0, 0, 80],
      "AngioFlag": "N",
      "BitsAllocated": 16,
      "BitsStored": 12,
      "BodyPartExamined": "BRAIN",
      "Columns": 480,
      "EchoNumbers": 1,
      "EchoTime": 35.0,
      "EchoTrainLength": 39,
      "FlipAngle": 90.0,
      "HighBit": 11,
      "ImageOrientationPatient": [0.98794027598268, -0.1547794799679, 0.00416217156563, 0.14659112216529, 0.9436533782329, 0.29669739576201],
      "ImagePositionPatient": [-814.33307328031, -545.66953893465, -268.52373466731],
      "ImageType": [
        "ORIGINAL",
        "PRIMARY",
        "M",
        "ND",
        "NORM",
        "MOSAIC"
],
      "ImagedNucleus": "1H",
      "ImagingFrequency": 123.252341,
      "InPlanePhaseEncodingDirection": "COL",
      "MRAcquisitionType": "2D",
      "MagneticFieldStrength": 3.0,
      "Manufacturer": "SIEMENS",
      "ManufacturerModelName": "Prisma",
      "Modality": "MR",
      "NumberOfAverages": 1.0,
      "NumberOfPhaseEncodingSteps": 79,
      "PercentPhaseFieldOfView": 100.0,
      "PercentSampling": 100.0,
      "PerformedProcedureStepStartTime": "093453.226000",
      "PhotometricInterpretation": "MONOCHROME2",
      "PixelBandwidth": 2315.0,
      "PixelRepresentation": 0,
      "PixelSpacing": [3.0, 3.0],
      "ProtocolName": "func-bold_task-rest_acq-p2",
      "RepetitionTime": 2000.0,
      "Rows": 480,
      "SAR": 0.05539529460082,
      "SamplesPerPixel": 1,
      "ScanOptions": "FS",
      "ScanningSequence": "EP",
      "SequenceName": "*epfid2d1_80",
      "SequenceVariant": "SK",
      "SeriesDescription": "func-bold_task-rest_acq-p2",
      "SeriesNumber": 5,
      "SeriesTime": "094150.109000",
      "SliceLocation": -56.221986003605,
      "SliceThickness": 3.5,
      "SmallestImagePixelValue": 0,
      "SoftwareVersions": "syngo MR E11",
      "SpacingBetweenSlices": 3.9900000759183,
      "SpecificCharacterSet": "ISO_IR 100",
      "StudyID": "48",
      "StudyTime": "093453.177000",
      "TransmitCoilName": "Body",
      "VariableFlipAngleFlag": "N",
      "WindowCenterWidthExplanation": "Algo1",
      "dBdt": 0.0},
    "slices": {}
  },
  "time": {
    "samples": {
      "AcquisitionNumber": [1, 2, 3, 4, 5, 6, 7, 8, 9, 10, 11, 12, 13, 14, 15, 16, 17, 18, 19, 20, 21, 22, 23, 24, 25, 26, 27, 28, 29, 30, 31, 32, 33, 34, 35, 36, 37, 38, 39, 40, 41, 42, 43, 44, 45, 46, 47, 48, 49, 50, 51, 52, 53, 54, 55, 56, 57, 58, 59, 60, 61, 62, 63, 64, 65, 66, 67, 68, 69, 70, 71, 72, 73, 74, 75, 76, 77, 78, 79, 80, 81, 82, 83, 84, 85, 86, 87, 88, 89, 90, 91, 92, 93, 94, 95, 96, 97, 98, 99, 100, 101, 102, 103, 104, 105, 106, 107, 108, 109, 110, 111, 112, 113, 114, 115, 116, 117, 118, 119, 120, 121, 122, 123, 124, 125, 126, 127, 128, 129, 130, 131, 132, 133, 134, 135, 136, 137, 138, 139, 140, 141, 142, 143, 144, 145, 146, 147, 148, 149, 150, 151, 152, 153, 154, 155, 156, 157, 158, 159, 160, 161, 162, 163, 164, 165, 166, 167, 168, 169, 170, 171, 172, 173, 174, 175, 176, 177, 178, 179, 180, 181, 182, 183, 184, 185, 186, 187, 188, 189, 190, 191, 192, 193, 194, 195, 196, 197, 198, 199, 200],
      "AcquisitionTime": ["094053.800000", "094055.800000", "094057.800000", "094059.800000", "094101.800000", "094103.800000", "094105.800000", "094107.800000", "094109.800000", "094111.800000", "094113.800000", "094115.800000", "094117.800000", "094119.800000", "094121.800000", "094123.800000", "094125.800000", "094127.800000", "094129.800000", "094131.800000", "094133.800000", "094135.800000", "094137.800000", "094139.800000", "094141.800000", "094143.800000", "094145.800000", "094147.800000", "094149.800000", "094151.800000", "094153.800000", "094155.800000", "094157.800000", "094159.800000", "094201.800000", "094203.800000", "094205.800000", "094207.800000", "094209.800000", "094211.800000", "094213.800000", "094215.800000", "094217.800000", "094219.800000", "094221.800000", "094223.800000", "094225.800000", "094227.800000", "094229.800000", "094231.800000", "094233.800000", "094235.800000", "094237.800000", "094239.800000", "094241.800000", "094243.800000", "094245.800000", "094247.800000", "094249.800000", "094251.800000", "094253.800000", "094255.800000", "094257.800000", "094259.800000", "094301.800000", "094303.800000", "094305.800000", "094307.800000", "094309.800000", "094311.800000", "094313.800000", "094315.800000", "094317.800000", "094319.800000", "094321.800000", "094323.800000", "094325.800000", "094327.800000", "094329.800000", "094331.800000", "094333.800000", "094335.800000", "094337.800000", "094339.800000", "094341.800000", "094343.800000", "094345.800000", "094347.800000", "094349.800000", "094351.800000", "094353.800000", "094355.800000", "094357.800000", "094359.800000", "094401.800000", "094403.800000", "094405.800000", "094407.800000", "094409.800000", "094411.800000", "094413.800000", "094415.800000", "094417.800000", "094419.800000", "094421.800000", "094423.800000", "094425.800000", "094427.800000", "094429.800000", "094431.800000", "094433.800000", "094435.800000", "094437.800000", "094439.800000", "094441.800000", "094443.800000", "094445.800000", "094447.800000", "094449.800000", "094451.800000", "094453.800000", "094455.800000", "094457.800000", "094459.800000", "094501.800000", "094503.800000", "094505.800000", "094507.800000", "094509.800000", "094511.800000", "094513.800000", "094515.800000", "094517.800000", "094519.800000", "094521.800000", "094523.800000", "094525.800000", "094527.800000", "094529.800000", "094531.800000", "094533.800000", "094535.800000", "094537.800000", "094539.800000", "094541.800000", "094543.800000", "094545.800000", "094547.800000", "094549.800000", "094551.800000", "094553.800000", "094555.800000", "094557.800000", "094559.800000", "094601.800000", "094603.800000", "094605.800000", "094607.800000", "094609.800000", "094611.800000", "094613.800000", "094615.800000", "094617.800000", "094619.800000", "094621.800000", "094623.800000", "094625.800000", "094627.800000", "094629.800000", "094631.800000", "094633.800000", "094635.800000", "094637.800000", "094639.800000", "094641.800000", "094643.800000", "094645.800000", "094647.800000", "094649.800000", "094651.800000", "094653.800000", "094655.800000", "094657.800000", "094659.800000", "094701.800000", "094703.800000", "094705.800000", "094707.800000", "094709.800000", "094711.800000", "094713.800000", "094715.800000", "094717.800000", "094719.800000", "094721.800000", "094723.800000", "094725.800000", "094727.800000", "094729.800000", "094731.800000"],
      "ContentTime": ["094150.112000", "094150.116000", "094150.118000", "094150.121000", "094150.124000", "094150.126000", "094150.136000", "094150.139000", "094150.141000", "094150.144000", "094150.146000", "094150.149000", "094150.152000", "094150.154000", "094150.157000", "094150.159000", "094150.162000", "094150.164000", "094150.167000", "094150.169000", "094150.172000", "094150.175000", "094150.177000", "094150.180000", "094150.182000", "094150.185000", "094150.188000", "094150.190000", "094230.107000", "094230.110000", "094230.113000", "094230.115000", "094230.118000", "094230.120000", "094230.123000", "094230.126000", "094230.128000", "094230.131000", "094230.133000", "094230.144000", "094230.146000", "094230.149000", "094230.151000", "094230.154000", "094230.156000", "094230.159000", "094230.161000", "094230.164000", "094310.107000", "094310.110000", "094310.113000", "094310.116000", "094310.118000", "094310.121000", "094310.123000", "094310.126000", "094310.128000", "094310.131000", "094310.134000", "094310.136000", "094310.139000", "094310.141000", "094310.144000", "094310.146000", "094310.149000", "094310.152000", "094310.154000", "094310.157000", "094350.107000", "094350.110000", "094350.113000", "094350.115000", "094350.118000", "094350.121000", "094350.123000", "094350.126000", "094350.128000", "094350.131000", "094350.133000", "094350.136000", "094350.139000", "094350.141000", "094350.144000", "094350.146000", "094350.149000", "094350.152000", "094350.162000", "094350.164000", "094430.107000", "094430.110000", "094430.113000", "094430.115000", "094430.118000", "094430.121000", "094430.123000", "094430.126000", "094430.128000", "094430.131000", "094430.133000", "094430.136000", "094430.139000", "094430.141000", "094430.144000", "094430.146000", "094430.149000", "094430.151000", "094430.154000", "094430.157000", "094510.108000", "094510.111000", "094510.114000", "094510.117000", "094510.119000", "094510.122000", "094510.124000", "094510.127000", "094510.130000", "094510.132000", "094510.135000", "094510.137000", "094510.140000", "094510.142000", "094510.145000", "094510.147000", "094510.150000", "094510.153000", "094510.155000", "094510.158000", "094550.107000", "094550.110000", "094550.113000", "094550.116000", "094550.118000", "094550.121000", "094550.123000", "094550.126000", "094550.128000", "094550.131000", "094550.134000", "094550.136000", "094550.139000", "094550.141000", "094550.144000", "094550.146000", "094550.149000", "094550.151000", "094550.154000", "094550.156000", "094630.108000", "094630.110000", "094630.113000", "094630.116000", "094630.118000", "094630.121000", "094630.123000", "094630.126000", "094630.129000", "094630.131000", "094630.134000", "094630.136000", "094630.139000", "094630.141000", "094630.144000", "094630.147000", "094630.149000", "094630.152000", "094630.154000", "094630.157000", "094650.107000", "094650.110000", "094650.120000", "094650.123000", "094650.125000", "094650.128000", "094650.130000", "094650.133000", "094650.136000", "094650.138000", "094730.109000", "094730.111000", "094730.114000", "094730.117000", "094730.119000", "094730.122000", "094730.124000", "094730.127000", "094730.130000", "094730.132000", "094730.135000", "094730.137000", "094730.140000", "094730.142000", "094730.145000", "094730.148000", "094730.150000", "094730.153000", "094730.155000", "094730.158000", "094733.708000", "094733.711000"],
      "InstanceCreationTime": ["094150.112000", "094150.116000", "094150.118000", "094150.121000", "094150.124000", "094150.126000", "094150.136000", "094150.139000", "094150.141000", "094150.144000", "094150.146000", "094150.149000", "094150.152000", "094150.154000", "094150.157000", "094150.159000", "094150.162000", "094150.164000", "094150.167000", "094150.169000", "094150.172000", "094150.175000", "094150.177000", "094150.180000", "094150.182000", "094150.185000", "094150.188000", "094150.190000", "094230.107000", "094230.110000", "094230.113000", "094230.115000", "094230.118000", "094230.120000", "094230.123000", "094230.126000", "094230.128000", "094230.131000", "094230.133000", "094230.144000", "094230.146000", "094230.149000", "094230.151000", "094230.154000", "094230.156000", "094230.159000", "094230.161000", "094230.164000", "094310.107000", "094310.110000", "094310.113000", "094310.116000", "094310.118000", "094310.121000", "094310.123000", "094310.126000", "094310.128000", "094310.131000", "094310.134000", "094310.136000", "094310.139000", "094310.141000", "094310.144000", "094310.146000", "094310.149000", "094310.152000", "094310.154000", "094310.157000", "094350.107000", "094350.110000", "094350.113000", "094350.115000", "094350.118000", "094350.121000", "094350.123000", "094350.126000", "094350.128000", "094350.131000", "094350.133000", "094350.136000", "094350.139000", "094350.141000", "094350.144000", "094350.146000", "094350.149000", "094350.152000", "094350.162000", "094350.164000", "094430.107000", "094430.110000", "094430.113000", "094430.115000", "094430.118000", "094430.121000", "094430.123000", "094430.126000", "094430.128000", "094430.131000", "094430.133000", "094430.136000", "094430.139000", "094430.141000", "094430.144000", "094430.146000", "094430.149000", "094430.151000", "094430.154000", "094430.157000", "094510.108000", "094510.111000", "094510.114000", "094510.117000", "094510.119000", "094510.122000", "094510.124000", "094510.127000", "094510.130000", "094510.132000", "094510.135000", "094510.137000", "094510.140000", "094510.142000", "094510.145000", "094510.147000", "094510.150000", "094510.153000", "094510.155000", "094510.158000", "094550.107000", "094550.110000", "094550.113000", "094550.116000", "094550.118000", "094550.121000", "094550.123000", "094550.126000", "094550.128000", "094550.131000", "094550.134000", "094550.136000", "094550.139000", "094550.141000", "094550.144000", "094550.146000", "094550.149000", "094550.151000", "094550.154000", "094550.156000", "094630.108000", "094630.110000", "094630.113000", "094630.116000", "094630.118000", "094630.121000", "094630.123000", "094630.126000", "094630.129000", "094630.131000", "094630.134000", "094630.136000", "094630.139000", "094630.141000", "094630.144000", "094630.147000", "094630.149000", "094630.152000", "094630.154000", "094630.157000", "094650.107000", "094650.110000", "094650.120000", "094650.123000", "094650.125000", "094650.128000", "094650.130000", "094650.133000", "094650.136000", "094650.138000", "094730.109000", "094730.111000", "094730.114000", "094730.117000", "094730.119000", "094730.122000", "094730.124000", "094730.127000", "094730.130000", "094730.132000", "094730.135000", "094730.137000", "094730.140000", "094730.142000", "094730.145000", "094730.148000", "094730.150000", "094730.153000", "094730.155000", "094730.158000", "094733.708000", "094733.711000"],
      "InstanceNumber": [1, 2, 3, 4, 5, 6, 7, 8, 9, 10, 11, 12, 13, 14, 15, 16, 17, 18, 19, 20, 21, 22, 23, 24, 25, 26, 27, 28, 29, 30, 31, 32, 33, 34, 35, 36, 37, 38, 39, 40, 41, 42, 43, 44, 45, 46, 47, 48, 49, 50, 51, 52, 53, 54, 55, 56, 57, 58, 59, 60, 61, 62, 63, 64, 65, 66, 67, 68, 69, 70, 71, 72, 73, 74, 75, 76, 77, 78, 79, 80, 81, 82, 83, 84, 85, 86, 87, 88, 89, 90, 91, 92, 93, 94, 95, 96, 97, 98, 99, 100, 101, 102, 103, 104, 105, 106, 107, 108, 109, 110, 111, 112, 113, 114, 115, 116, 117, 118, 119, 120, 121, 122, 123, 124, 125, 126, 127, 128, 129, 130, 131, 132, 133, 134, 135, 136, 137, 138, 139, 140, 141, 142, 143, 144, 145, 146, 147, 148, 149, 150, 151, 152, 153, 154, 155, 156, 157, 158, 159, 160, 161, 162, 163, 164, 165, 166, 167, 168, 169, 170, 171, 172, 173, 174, 175, 176, 177, 178, 179, 180, 181, 182, 183, 184, 185, 186, 187, 188, 189, 190, 191, 192, 193, 194, 195, 196, 197, 198, 199, 200],
      "LargestImagePixelValue": [2427, 2429, 2432, 2427, 2432, 2428, 2431, 2429, 2433, 2429, 2433, 2433, 2431, 2430, 2428, 2432, 2429, 2434, 2433, 2428, 2432, 2430, 2428, 2427, 2430, 2431, 2427, 2429, 2428, 2429, 2430, 2430, 2430, 2428, 2429, 2428, 2430, 2434, 2428, 2434, 2430, 2436, 2433, 2432, 2428, 2431, 2425, 2430, 2428, 2432, 2429, 2428, 2429, 2427, 2427, 2427, 2431, 2431, 2430, 2433, 2429, 2428, 2425, 2427, 2425, 2427, 2428, 2428, 2428, 2430, 2427, 2425, 2426, 2430, 2431, 2427, 2428, 2431, 2429, 2430, 2428, 2428, 2429, 2427, 2430, 2431, 2433, 2428, 2429, 2429, 2425, 2431, 2431, 2427, 2431, 2426, 2427, 2429, 2428, 2428, 2429, 2432, 2428, 2426, 2429, 2425, 2430, 2429, 2426, 2429, 2425, 2428, 2424, 2427, 2428, 2428, 2424, 2428, 2429, 2428, 2428, 2428, 2424, 2428, 2426, 2430, 2426, 2426, 2430, 2427, 2430, 2431, 2430, 2429, 2428, 2426, 2427, 2428, 2431, 2428, 2432, 2429, 2426, 2428, 2434, 2425, 2429, 2429, 2432, 2427, 2428, 2429, 2430, 2430, 2426, 2429, 2426, 2429, 2428, 2428, 2429, 2426, 2426, 2425, 2423, 2425, 2430, 2428, 2429, 2429, 2428, 2430, 2430, 2428, 2428, 2426, 2429, 2427, 2427, 2428, 2428, 2429, 2430, 2423, 2424, 2428, 2428, 2431, 2428, 2430, 2429, 2428, 2429, 2426, 2432, 2429, 2427, 2426, 2425, 2428],
      "WindowCenter": [1069.0, 1068.0, 1068.0, 1068.0, 1068.0, 1068.0, 1068.0, 1068.0, 1068.0, 1068.0, 1068.0, 1068.0, 1068.0, 1068.0, 1068.0, 1068.0, 1068.0, 1068.0, 1068.0, 1068.0, 1068.0, 1068.0, 1068.0, 1068.0, 1068.0, 1068.0, 1068.0, 1068.0, 1068.0, 1068.0, 1068.0, 1068.0, 1068.0, 1068.0, 1068.0, 1068.0, 1068.0, 1068.0, 1068.0, 1068.0, 1068.0, 1068.0, 1068.0, 1068.0, 1068.0, 1068.0, 1068.0, 1068.0, 1068.0, 1068.0, 1068.0, 1068.0, 1068.0, 1068.0, 1068.0, 1068.0, 1068.0, 1068.0, 1068.0, 1068.0, 1068.0, 1068.0, 1068.0, 1068.0, 1068.0, 1068.0, 1068.0, 1068.0, 1068.0, 1068.0, 1068.0, 1068.0, 1068.0, 1068.0, 1068.0, 1068.0, 1068.0, 1068.0, 1068.0, 1068.0, 1068.0, 1068.0, 1068.0, 1068.0, 1068.0, 1068.0, 1068.0, 1068.0, 1068.0, 1068.0, 1068.0, 1068.0, 1068.0, 1068.0, 1068.0, 1068.0, 1068.0, 1068.0, 1068.0, 1068.0, 1068.0, 1068.0, 1068.0, 1068.0, 1068.0, 1068.0, 1068.0, 1068.0, 1068.0, 1068.0, 1068.0, 1068.0, 1068.0, 1068.0, 1068.0, 1068.0, 1068.0, 1068.0, 1068.0, 1068.0, 1068.0, 1068.0, 1068.0, 1068.0, 1068.0, 1068.0, 1068.0, 1068.0, 1068.0, 1068.0, 1068.0, 1068.0, 1068.0, 1068.0, 1068.0, 1068.0, 1068.0, 1068.0, 1068.0, 1068.0, 1068.0, 1068.0, 1068.0, 1068.0, 1068.0, 1068.0, 1068.0, 1068.0, 1068.0, 1068.0, 1068.0, 1068.0, 1068.0, 1068.0, 1068.0, 1068.0, 1068.0, 1068.0, 1068.0, 1068.0, 1068.0, 1068.0, 1068.0, 1068.0, 1068.0, 1068.0, 1068.0, 1068.0, 1068.0, 1068.0, 1068.0, 1068.0, 1068.0, 1067.0, 1068.0, 1068.0, 1068.0, 1068.0, 1068.0, 1068.0, 1068.0, 1068.0, 1068.0, 1068.0, 1068.0, 1068.0, 1068.0, 1068.0, 1068.0, 1068.0, 1068.0, 1067.0, 1067.0, 1067.0, 1068.0, 1067.0, 1067.0, 1068.0, 1067.0, 1067.0],
      "WindowWidth": [2414.0, 2413.0, 2413.0, 2413.0, 2413.0, 2413.0, 2413.0, 2413.0, 2413.0, 2413.0, 2413.0, 2413.0, 2413.0, 2413.0, 2413.0, 2413.0, 2413.0, 2413.0, 2413.0, 2413.0, 2413.0, 2413.0, 2413.0, 2413.0, 2413.0, 2413.0, 2413.0, 2413.0, 2413.0, 2413.0, 2413.0, 2413.0, 2413.0, 2413.0, 2413.0, 2413.0, 2413.0, 2413.0, 2413.0, 2413.0, 2413.0, 2413.0, 2413.0, 2413.0, 2413.0, 2413.0, 2413.0, 2413.0, 2413.0, 2413.0, 2413.0, 2413.0, 2413.0, 2413.0, 2413.0, 2413.0, 2413.0, 2413.0, 2413.0, 2413.0, 2413.0, 2413.0, 2413.0, 2413.0, 2413.0, 2413.0, 2413.0, 2413.0, 2413.0, 2413.0, 2413.0, 2413.0, 2413.0, 2413.0, 2413.0, 2413.0, 2413.0, 2413.0, 2413.0, 2413.0, 2413.0, 2413.0, 2413.0, 2413.0, 2413.0, 2413.0, 2413.0, 2413.0, 2413.0, 2413.0, 2413.0, 2413.0, 2413.0, 2413.0, 2413.0, 2413.0, 2413.0, 2413.0, 2413.0, 2413.0, 2413.0, 2413.0, 2413.0, 2413.0, 2413.0, 2413.0, 2413.0, 2412.0, 2413.0, 2413.0, 2413.0, 2413.0, 2413.0, 2413.0, 2413.0, 2413.0, 2413.0, 2413.0, 2413.0, 2413.0, 2413.0, 2413.0, 2413.0, 2413.0, 2413.0, 2413.0, 2413.0, 2413.0, 2413.0, 2413.0, 2413.0, 2413.0, 2413.0, 2413.0, 2413.0, 2413.0, 2413.0, 2413.0, 2413.0, 2413.0, 2413.0, 2413.0, 2413.0, 2413.0, 2413.0, 2413.0, 2413.0, 2413.0, 2413.0, 2413.0, 2413.0, 2413.0, 2413.0, 2413.0, 2413.0, 2413.0, 2413.0, 2413.0, 2413.0, 2413.0, 2413.0, 2413.0, 2413.0, 2413.0, 2413.0, 2413.0, 2413.0, 2413.0, 2413.0, 2413.0, 2413.0, 2413.0, 2413.0, 2413.0, 2413.0, 2413.0, 2413.0, 2413.0, 2413.0, 2413.0, 2413.0, 2413.0, 2413.0, 2413.0, 2413.0, 2413.0, 2413.0, 2413.0, 2413.0, 2413.0, 2413.0, 2413.0, 2413.0, 2412.0, 2412.0, 2413.0, 2413.0, 2413.0, 2413.0, 2413.0]
    },
    "slices": {}
  }
}