{
  "AcquisitionMatrixPE": 122,
  "AcquisitionNumber": 1,
  "AcquisitionTime": "10:43:53.052500",
  "BandwidthPerPixelPhaseEncode": 28.76,
  "BaseResolution": 122,
  "BodyPartExamined": "BRAIN",
  "CoilCombinationMethod": "Adaptive Combine",
  "ConsistencyInfo": "N4_VE11C_LATEST_20160120",
  "ConversionSoftware": "dcm2niix",
  "ConversionSoftwareVersion": "v1.0.20220720",
  "DerivedVendorReportedEchoSpacing": 0.000570008,
  "DeviceSerialNumber": "66112",
  "DiffusionScheme": "Monopolar",
  "DwellTime": 2e-06,
  "EchoTime": 0.075,
  "EchoTrainLength": 61,
  "EffectiveEchoSpacing": 0.000285004,
  "FlipAngle": 90,
  "HeudiconvVersion": "0.13.1",
  "ImageOrientationPatientDICOM": [0.972065, 0.234111, 0.0167897, -0.227996, 0.924837, 0.304458],
  "ImageOrientationText": "Tra>Cor(17.5)>Sag(-3.2)",
  "ImageType": [
    "ORIGINAL",
    "PRIMARY",
    "DIFFUSION",
    "NONE",
    "ND",
    "NORM"
],
  "ImagingFrequency": 123.252,
  "InPlanePhaseEncodingDirectionDICOM": "COL",
  "InstitutionAddress": "Maynard 3,Hanover,NH,US,03755",
  "InstitutionName": "Dartmouth College - PBS",
  "InstitutionalDepartmentName": "Department",
  "MRAcquisitionType": "2D",
  "MagneticFieldStrength": 3,
  "Manufacturer": "Siemens",
  "ManufacturersModelName": "Prisma",
  "MatrixCoilMode": "GRAPPA",
  "Modality": "MR",
  "NonlinearGradientCorrection": false,
  "ParallelReductionFactorInPlane": 2,
  "PartialFourier": 1,
  "PatientPosition": "HFS",
  "PercentPhaseFOV": 100,
  "PercentSampling": 100,
  "PhaseEncodingDirection": "j-",
  "PhaseEncodingSteps": 122,
  "PhaseResolution": 1,
  "PixelBandwidth": 2050,
  "ProcedureStepDescription": "dbic^QA",
  "ProtocolName": "dwi_acq-DTI-30-p2",
  "PulseSequenceDetails": "%SiemensSeq%\\ep2d_diff",
  "ReceiveCoilActiveElements": "HEA;HEP",
  "ReceiveCoilName": "Head_32",
  "ReconMatrixPE": 122,
  "RefLinesPE": 38,
  "RepetitionTime": 7.7,
  "SAR": 0.101948,
  "ScanOptions": "FS",
  "ScanningSequence": "EP",
  "SequenceName": "*ep_b0",
  "SequenceVariant": "SK\\SP",
  "SeriesDescription": "dwi_acq-DTI-30-p2",
  "SeriesNumber": 8,
  "ShimSetting": [4147, -7688, -7504, 282, -39, -140, -33, 41],
  "SliceThickness": 2,
  "SliceTiming": [3.84375, 0, 3.95312, 0.10938, 4.0625, 0.21875, 4.17188, 0.32812, 4.28125, 0.4375, 4.39062, 0.54688, 4.5, 0.65625, 4.60938, 0.76562, 4.71875, 0.88281, 4.82812, 0.99219, 4.9375, 1.10156, 5.04688, 1.20312, 5.15625, 1.32031, 5.26562, 1.42969, 5.375, 1.53906, 5.48438, 1.64844, 5.59375, 1.75781, 5.70312, 1.86719, 5.82031, 1.97656, 5.92188, 2.08594, 6.03125, 2.19531, 6.14062, 2.30469, 6.25781, 2.41406, 6.36719, 2.52344, 6.47656, 2.63281, 6.58594, 2.74219, 6.69531, 2.85156, 6.80469, 2.96094, 6.91406, 3.07031, 7.02344, 3.17969, 7.13281, 3.28906, 7.24219, 3.39844, 7.35156, 3.50781, 7.46094, 3.625, 7.57031, 3.73438],
  "SoftwareVersions": "syngo MR E11",
  "SpacingBetweenSlices": 2,
  "SpoilingState": true,
  "StationName": "AWP66112",
  "TotalReadoutTime": 0.0344855,
  "TxRefAmp": 232.648,
  "dcmmeta_affine": [
    [-1.9122586250305176, -0.44851619005203247, -0.11149835586547852, 155.006591796875],
    [-0.46054697036743164, 1.8193514347076416, 0.5995616912841797, -97.75395965576172],
    [0.033029016107320786, -0.5989335179328918, 1.904754638671875, -23.618799209594727],
    [0.0, 0.0, 0.0, 1.0]
],
  "dcmmeta_reorient_transform": [
    [0.0, -1.0, 0.0, 121.0],
    [1.0, 0.0, 0.0, 0.0],
    [0.0, 0.0, -1.0, 69.0],
    [0.0, 0.0, 0.0, 1.0]
],
  "dcmmeta_shape": [122, 122, 70, 31],
  "dcmmeta_slice_dim": 2,
  "dcmmeta_version": 0.6,
  "global": {
    "const": {
      "AccessionNumber": "qa",
      "AcquisitionMatrix": [122, 0, 0, 122],
      "AngioFlag": "N",
      "BitsAllocated": 16,
      "BitsStored": 12,
      "BodyPartExamined": "BRAIN",
      "Columns": 122,
      "EchoNumbers": 1,
      "EchoTime": 75.0,
      "EchoTrainLength": 61,
      "FlipAngle": 90.0,
      "HighBit": 11,
      "ImageOrientationPatient": [0.97206479702977, 0.23411137241403, 0.01678974931008, -0.2279957226759, 0.92483693759789, 0.3044578612814],
      "ImageType": [
        "ORIGINAL",
        "PRIMARY",
        "DIFFUSION",
        "NONE",
        "ND",
        "NORM"
],
      "ImagedNucleus": "1H",
      "ImagingFrequency": 123.252423,
      "InPlanePhaseEncodingDirection": "COL",
      "MRAcquisitionType": "2D",
      "MagneticFieldStrength": 3.0,
      "Manufacturer": "SIEMENS",
      "ManufacturerModelName": "Prisma",
      "Modality": "MR",
      "NumberOfAverages": 1.0,
      "NumberOfPhaseEncodingSteps": 122,
      "PercentPhaseFieldOfView": 100.0,
      "PercentSampling": 100.0,
      "PerformedProcedureStepStartTime": "101022.428000",
      "PhotometricInterpretation": "MONOCHROME2",
      "PixelBandwidth": 2050.0,
      "PixelRepresentation": 0,
      "PixelSpacing": [1.9672131538391, 1.9672131538391],
      "ProtocolName": "dwi_acq-DTI-30-p2",
      "RepetitionTime": 7700.0,
      "Rows": 122,
      "SAR": 0.10194755780458,
      "SamplesPerPixel": 1,
      "ScanOptions": "FS",
      "ScanningSequence": "EP",
      "SequenceVariant": [
        "SK",
        "SP"
],
      "SeriesDescription": "dwi_acq-DTI-30-p2",
      "SeriesNumber": 8,
      "SeriesTime": "104356.844000",
      "SliceThickness": 2.0,
      "SmallestImagePixelValue": 0,
      "SoftwareVersions": "syngo MR E11",
      "SpacingBetweenSlices": 2.0,
      "SpecificCharacterSet": "ISO_IR 100",
      "StudyID": "98",
      "StudyTime": "101022.301000",
      "TransmitCoilName": "Body",
      "VariableFlipAngleFlag": "N",
      "WindowCenterWidthExplanation": "Algo1",
      "dBdt": 0.0},
    "slices": {
      "AcquisitionTime": ["104353.052500", "104349.212500", "104353.162500", "104349.322500", "104353.270000", "104349.432500", "104353.380000", "104349.540000", "104353.490000", "104349.650000", "104353.600000", "104349.760000", "104353.710000", "104349.870000", "104353.820000", "104349.980000", "104353.930000", "104350.090000", "104354.040000", "104350.200000", "104354.150000", "104350.310000", "104354.257500", "104350.417500", "104354.367500", "104350.527500", "104354.477500", "104350.637500", "104354.587500", "104350.747500", "104354.697500", "104350.857500", "104354.807500", "104350.967500", "104354.917500", "104351.077500", "104355.027500", "104351.187500", "104355.135000", "104351.297500", "104355.245000", "104351.405000", "104355.355000", "104351.515000", "104355.465000", "104351.625000", "104355.575000", "104351.735000", "104355.685000", "104351.845000", "104355.795000", "104351.955000", "104355.905000", "104352.065000", "104356.015000", "104352.175000", "104356.122500", "104352.282500", "104356.232500", "104352.392500", "104356.342500", "104352.502500", "104356.452500", "104352.612500", "104356.562500", "104352.722500", "104356.672500", "104352.832500", "104356.782500", "104352.942500", "104400.752500", "104356.912500", "104400.862500", "104357.022500", "104400.970000", "104357.132500", "104401.080000", "104357.240000", "104401.190000", "104357.350000", "104401.300000", "104357.460000", "104401.410000", "104357.570000", "104401.520000", "104357.680000", "104401.630000", "104357.790000", "104401.740000", "104357.900000", "104401.850000", "104358.010000", "104401.957500", "104358.117500", "104402.067500", "104358.227500", "104402.177500", "104358.337500", "104402.287500", "104358.447500", "104402.397500", "104358.557500", "104402.507500", "104358.667500", "104402.617500", "104358.777500", "104402.727500", "104358.887500", "104402.835000", "104358.997500", "104402.945000", "104359.105000", "104403.055000", "104359.215000", "104403.165000", "104359.325000", "104403.275000", "104359.435000", "104403.385000", "104359.545000", "104403.495000", "104359.655000", "104403.605000", "104359.765000", "104403.715000", "104359.875000", "104403.822500", "104359.982500", "104403.932500", "104400.092500", "104404.042500", "104400.202500", "104404.152500", "104400.312500", "104404.262500", "104400.422500", "104404.372500", "104400.532500", "104404.482500", "104400.642500", "104408.452500", "104404.612500", "104408.562500", "104404.722500", "104408.670000", "104404.832500", "104408.780000", "104404.940000", "104408.890000", "104405.050000", "104409.000000", "104405.160000", "104409.110000", "104405.270000", "104409.220000", "104405.380000", "104409.330000", "104405.490000", "104409.440000", "104405.600000", "104409.550000", "104405.710000", "104409.657500", "104405.817500", "104409.767500", "104405.927500", "104409.877500", "104406.037500", "104409.987500", "104406.147500", "104410.097500", "104406.257500", "104410.207500", "104406.367500", "104410.317500", "104406.477500", "104410.427500", "104406.587500", "104410.535000", "104406.697500", "104410.645000", "104406.805000", "104410.755000", "104406.915000", "104410.865000", "104407.025000", "104410.975000", "104407.135000", "104411.085000", "104407.245000", "104411.195000", "104407.355000", "104411.305000", "104407.465000", "104411.415000", "104407.575000", "104411.522500", "104407.682500", "104411.632500", "104407.792500", "104411.742500", "104407.902500", "104411.852500", "104408.012500", "104411.962500", "104408.122500", "104412.072500", "104408.232500", "104412.182500", "104408.342500", "104416.152500", "104412.312500", "104416.262500", "104412.422500", "104416.370000", "104412.532500", "104416.480000", "104412.640000", "104416.590000", "104412.750000", "104416.700000", "104412.860000", "104416.810000", "104412.970000", "104416.920000", "104413.080000", "104417.030000", "104413.190000", "104417.140000", "104413.300000", "104417.250000", "104413.410000", "104417.357500", "104413.517500", "104417.467500", "104413.627500", "104417.577500", "104413.737500", "104417.687500", "104413.847500", "104417.797500", "104413.957500", "104417.907500", "104414.067500", "104418.017500", "104414.177500", "104418.127500", "104414.287500", "104418.235000", "104414.397500", "104418.345000", "104414.505000", "104418.455000", "104414.615000", "104418.565000", "104414.725000", "104418.675000", "104414.835000", "104418.785000", "104414.945000", "104418.895000", "104415.055000", "104419.005000", "104415.165000", "104419.115000", "104415.275000", "104419.222500", "104415.382500", "104419.332500", "104415.492500", "104419.442500", "104415.602500", "104419.552500", "104415.712500", "104419.662500", "104415.822500", "104419.772500", "104415.932500", "104419.882500", "104416.042500", "104423.852500", "104420.012500", "104423.962500", "104420.122500", "104424.070000", "104420.232500", "104424.180000", "104420.340000", "104424.290000", "104420.450000", "104424.400000", "104420.560000", "104424.510000", "104420.670000", "104424.620000", "104420.780000", "104424.730000", "104420.890000", "104424.840000", "104421.000000", "104424.950000", "104421.110000", "104425.057500", "104421.217500", "104425.167500", "104421.327500", "104425.277500", "104421.437500", "104425.387500", "104421.547500", "104425.497500", "104421.657500", "104425.607500", "104421.767500", "104425.717500", "104421.877500", "104425.827500", "104421.987500", "104425.935000", "104422.097500", "104426.045000", "104422.205000", "104426.155000", "104422.315000", "104426.265000", "104422.425000", "104426.375000", "104422.535000", "104426.485000", "104422.645000", "104426.595000", "104422.755000", "104426.705000", "104422.865000", "104426.815000", "104422.975000", "104426.922500", "104423.082500", "104427.032500", "104423.192500", "104427.142500", "104423.302500", "104427.252500", "104423.412500", "104427.362500", "104423.522500", "104427.472500", "104423.632500", "104427.582500", "104423.742500", "104431.552500", "104427.712500", "104431.662500", "104427.822500", "104431.770000", "104427.932500", "104431.880000", "104428.040000", "104431.990000", "104428.150000", "104432.100000", "104428.260000", "104432.210000", "104428.370000", "104432.320000", "104428.480000", "104432.430000", "104428.590000", "104432.540000", "104428.700000", "104432.650000", "104428.810000", "104432.757500", "104428.917500", "104432.867500", "104429.027500", "104432.977500", "104429.137500", "104433.087500", "104429.247500", "104433.197500", "104429.357500", "104433.307500", "104429.467500", "104433.417500", "104429.577500", "104433.527500", "104429.687500", "104433.635000", "104429.797500", "104433.745000", "104429.905000", "104433.855000", "104430.015000", "104433.965000", "104430.125000", "104434.075000", "104430.235000", "104434.185000", "104430.345000", "104434.295000", "104430.455000", "104434.405000", "104430.565000", "104434.515000", "104430.675000", "104434.622500", "104430.782500", "104434.732500", "104430.892500", "104434.842500", "104431.002500", "104434.952500", "104431.112500", "104435.062500", "104431.222500", "104435.172500", "104431.332500", "104435.282500", "104431.442500", "104439.252500", "104435.412500", "104439.362500", "104435.522500", "104439.470000", "104435.632500", "104439.580000", "104435.740000", "104439.690000", "104435.850000", "104439.800000", "104435.960000", "104439.910000", "104436.070000", "104440.020000", "104436.180000", "104440.130000", "104436.290000", "104440.240000", "104436.400000", "104440.350000", "104436.510000", "104440.457500", "104436.617500", "104440.567500", "104436.727500", "104440.677500", "104436.837500", "104440.787500", "104436.947500", "104440.897500", "104437.057500", "104441.007500", "104437.167500", "104441.117500", "104437.277500", "104441.227500", "104437.387500", "104441.335000", "104437.497500", "104441.445000", "104437.605000", "104441.555000", "104437.715000", "104441.665000", "104437.825000", "104441.775000", "104437.935000", "104441.885000", "104438.045000", "104441.995000", "104438.155000", "104442.105000", "104438.265000", "104442.215000", "104438.375000", "104442.322500", "104438.482500", "104442.432500", "104438.592500", "104442.542500", "104438.702500", "104442.652500", "104438.812500", "104442.762500", "104438.922500", "104442.872500", "104439.032500", "104442.982500", "104439.142500", "104446.952500", "104443.112500", "104447.062500", "104443.222500", "104447.170000", "104443.332500", "104447.280000", "104443.440000", "104447.390000", "104443.550000", "104447.500000", "104443.660000", "104447.610000", "104443.770000", "104447.720000", "104443.880000", "104447.830000", "104443.990000", "104447.940000", "104444.100000", "104448.050000", "104444.210000", "104448.157500", "104444.317500", "104448.267500", "104444.427500", "104448.377500", "104444.537500", "104448.487500", "104444.647500", "104448.597500", "104444.757500", "104448.707500", "104444.867500", "104448.817500", "104444.977500", "104448.927500", "104445.087500", "104449.035000", "104445.197500", "104449.145000", "104445.305000", "104449.255000", "104445.415000", "104449.365000", "104445.525000", "104449.475000", "104445.635000", "104449.585000", "104445.745000", "104449.695000", "104445.855000", "104449.805000", "104445.965000", "104449.915000", "104446.075000", "104450.022500", "104446.182500", "104450.132500", "104446.292500", "104450.242500", "104446.402500", "104450.352500", "104446.512500", "104450.462500", "104446.622500", "104450.572500", "104446.732500", "104450.682500", "104446.842500", "104454.652500", "104450.812500", "104454.762500", "104450.922500", "104454.870000", "104451.032500", "104454.980000", "104451.140000", "104455.090000", "104451.250000", "104455.200000", "104451.360000", "104455.310000", "104451.470000", "104455.420000", "104451.580000", "104455.530000", "104451.690000", "104455.640000", "104451.800000", "104455.750000", "104451.910000", "104455.857500", "104452.017500", "104455.967500", "104452.127500", "104456.077500", "104452.237500", "104456.187500", "104452.347500", "104456.297500", "104452.457500", "104456.407500", "104452.567500", "104456.517500", "104452.677500", "104456.627500", "104452.787500", "104456.735000", "104452.897500", "104456.845000", "104453.005000", "104456.955000", "104453.115000", "104457.065000", "104453.225000", "104457.175000", "104453.335000", "104457.285000", "104453.445000", "104457.395000", "104453.555000", "104457.505000", "104453.665000", "104457.615000", "104453.775000", "104457.722500", "104453.882500", "104457.832500", "104453.992500", "104457.942500", "104454.102500", "104458.052500", "104454.212500", "104458.162500", "104454.322500", "104458.272500", "104454.432500", "104458.382500", "104454.542500", "104502.352500", "104458.512500", "104502.462500", "104458.622500", "104502.570000", "104458.732500", "104502.680000", "104458.840000", "104502.790000", "104458.950000", "104502.900000", "104459.060000", "104503.010000", "104459.170000", "104503.120000", "104459.280000", "104503.230000", "104459.390000", "104503.340000", "104459.500000", "104503.450000", "104459.610000", "104503.557500", "104459.717500", "104503.667500", "104459.827500", "104503.777500", "104459.937500", "104503.887500", "104500.047500", "104503.997500", "104500.157500", "104504.107500", "104500.267500", "104504.217500", "104500.377500", "104504.327500", "104500.487500", "104504.435000", "104500.597500", "104504.545000", "104500.705000", "104504.655000", "104500.815000", "104504.765000", "104500.925000", "104504.875000", "104501.035000", "104504.985000", "104501.145000", "104505.095000", "104501.255000", "104505.205000", "104501.365000", "104505.315000", "104501.475000", "104505.422500", "104501.582500", "104505.532500", "104501.692500", "104505.642500", "104501.802500", "104505.752500", "104501.912500", "104505.862500", "104502.022500", "104505.972500", "104502.132500", "104506.082500", "104502.242500", "104510.052500", "104506.212500", "104510.162500", "104506.322500", "104510.270000", "104506.432500", "104510.380000", "104506.540000", "104510.490000", "104506.650000", "104510.600000", "104506.760000", "104510.710000", "104506.870000", "104510.820000", "104506.980000", "104510.930000", "104507.090000", "104511.040000", "104507.200000", "104511.150000", "104507.310000", "104511.257500", "104507.417500", "104511.367500", "104507.527500", "104511.477500", "104507.637500", "104511.587500", "104507.747500", "104511.697500", "104507.857500", "104511.807500", "104507.967500", "104511.917500", "104508.077500", "104512.027500", "104508.187500", "104512.135000", "104508.297500", "104512.245000", "104508.405000", "104512.355000", "104508.515000", "104512.465000", "104508.625000", "104512.575000", "104508.735000", "104512.685000", "104508.845000", "104512.795000", "104508.955000", "104512.905000", "104509.065000", "104513.015000", "104509.175000", "104513.122500", "104509.282500", "104513.232500", "104509.392500", "104513.342500", "104509.502500", "104513.452500", "104509.612500", "104513.562500", "104509.722500", "104513.672500", "104509.832500", "104513.782500", "104509.942500", "104517.752500", "104513.912500", "104517.862500", "104514.022500", "104517.970000", "104514.132500", "104518.080000", "104514.240000", "104518.190000", "104514.350000", "104518.300000", "104514.460000", "104518.410000", "104514.570000", "104518.520000", "104514.680000", "104518.630000", "104514.790000", "104518.740000", "104514.900000", "104518.850000", "104515.010000", "104518.957500", "104515.117500", "104519.067500", "104515.227500", "104519.177500", "104515.337500", "104519.287500", "104515.447500", "104519.397500", "104515.557500", "104519.507500", "104515.667500", "104519.617500", "104515.777500", "104519.727500", "104515.887500", "104519.835000", "104515.997500", "104519.945000", "104516.105000", "104520.055000", "104516.215000", "104520.165000", "104516.325000", "104520.275000", "104516.435000", "104520.385000", "104516.545000", "104520.495000", "104516.655000", "104520.605000", "104516.765000", "104520.715000", "104516.875000", "104520.822500", "104516.982500", "104520.932500", "104517.092500", "104521.042500", "104517.202500", "104521.152500", "104517.312500", "104521.262500", "104517.422500", "104521.372500", "104517.532500", "104521.482500", "104517.642500", "104525.452500", "104521.612500", "104525.562500", "104521.722500", "104525.670000", "104521.832500", "104525.780000", "104521.940000", "104525.890000", "104522.050000", "104526.000000", "104522.160000", "104526.110000", "104522.270000", "104526.220000", "104522.380000", "104526.330000", "104522.490000", "104526.440000", "104522.600000", "104526.550000", "104522.710000", "104526.657500", "104522.817500", "104526.767500", "104522.927500", "104526.877500", "104523.037500", "104526.987500", "104523.147500", "104527.097500", "104523.257500", "104527.207500", "104523.367500", "104527.317500", "104523.477500", "104527.427500", "104523.587500", "104527.535000", "104523.697500", "104527.645000", "104523.805000", "104527.755000", "104523.915000", "104527.865000", "104524.025000", "104527.975000", "104524.135000", "104528.085000", "104524.245000", "104528.195000", "104524.355000", "104528.305000", "104524.465000", "104528.415000", "104524.575000", "104528.522500", "104524.682500", "104528.632500", "104524.792500", "104528.742500", "104524.902500", "104528.852500", "104525.012500", "104528.962500", "104525.122500", "104529.072500", "104525.232500", "104529.182500", "104525.342500", "104533.152500", "104529.312500", "104533.262500", "104529.422500", "104533.370000", "104529.532500", "104533.480000", "104529.640000", "104533.590000", "104529.750000", "104533.700000", "104529.860000", "104533.810000", "104529.970000", "104533.920000", "104530.080000", "104534.030000", "104530.190000", "104534.140000", "104530.300000", "104534.250000", "104530.410000", "104534.357500", "104530.517500", "104534.467500", "104530.627500", "104534.577500", "104530.737500", "104534.687500", "104530.847500", "104534.797500", "104530.957500", "104534.907500", "104531.067500", "104535.017500", "104531.177500", "104535.127500", "104531.287500", "104535.235000", "104531.397500", "104535.345000", "104531.505000", "104535.455000", "104531.615000", "104535.565000", "104531.725000", "104535.675000", "104531.835000", "104535.785000", "104531.945000", "104535.895000", "104532.055000", "104536.005000", "104532.165000", "104536.115000", "104532.275000", "104536.222500", "104532.382500", "104536.332500", "104532.492500", "104536.442500", "104532.602500", "104536.552500", "104532.712500", "104536.662500", "104532.822500", "104536.772500", "104532.932500", "104536.882500", "104533.042500", "104540.852500", "104537.012500", "104540.962500", "104537.122500", "104541.070000", "104537.232500", "104541.180000", "104537.340000", "104541.290000", "104537.450000", "104541.400000", "104537.560000", "104541.510000", "104537.670000", "104541.620000", "104537.780000", "104541.730000", "104537.890000", "104541.840000", "104538.000000", "104541.950000", "104538.110000", "104542.057500", "104538.217500", "104542.167500", "104538.327500", "104542.277500", "104538.437500", "104542.387500", "104538.547500", "104542.497500", "104538.657500", "104542.607500", "104538.767500", "104542.717500", "104538.877500", "104542.827500", "104538.987500", "104542.935000", "104539.097500", "104543.045000", "104539.205000", "104543.155000", "104539.315000", "104543.265000", "104539.425000", "104543.375000", "104539.535000", "104543.485000", "104539.645000", "104543.595000", "104539.755000", "104543.705000", "104539.865000", "104543.815000", "104539.975000", "104543.922500", "104540.082500", "104544.032500", "104540.192500", "104544.142500", "104540.302500", "104544.252500", "104540.412500", "104544.362500", "104540.522500", "104544.472500", "104540.632500", "104544.582500", "104540.742500", "104548.552500", "104544.712500", "104548.662500", "104544.822500", "104548.770000", "104544.932500", "104548.880000", "104545.040000", "104548.990000", "104545.150000", "104549.100000", "104545.260000", "104549.210000", "104545.370000", "104549.320000", "104545.480000", "104549.430000", "104545.590000", "104549.540000", "104545.700000", "104549.650000", "104545.810000", "104549.757500", "104545.917500", "104549.867500", "104546.027500", "104549.977500", "104546.137500", "104550.087500", "104546.247500", "104550.197500", "104546.357500", "104550.307500", "104546.467500", "104550.417500", "104546.577500", "104550.527500", "104546.687500", "104550.635000", "104546.797500", "104550.745000", "104546.905000", "104550.855000", "104547.015000", "104550.965000", "104547.125000", "104551.075000", "104547.235000", "104551.185000", "104547.345000", "104551.295000", "104547.455000", "104551.405000", "104547.565000", "104551.515000", "104547.675000", "104551.622500", "104547.782500", "104551.732500", "104547.892500", "104551.842500", "104548.002500", "104551.952500", "104548.112500", "104552.062500", "104548.222500", "104552.172500", "104548.332500", "104552.282500", "104548.442500", "104556.252500", "104552.412500", "104556.362500", "104552.522500", "104556.470000", "104552.632500", "104556.580000", "104552.740000", "104556.690000", "104552.850000", "104556.800000", "104552.960000", "104556.910000", "104553.070000", "104557.020000", "104553.180000", "104557.130000", "104553.290000", "104557.240000", "104553.400000", "104557.350000", "104553.510000", "104557.457500", "104553.617500", "104557.567500", "104553.727500", "104557.677500", "104553.837500", "104557.787500", "104553.947500", "104557.897500", "104554.057500", "104558.007500", "104554.167500", "104558.117500", "104554.277500", "104558.227500", "104554.387500", "104558.335000", "104554.497500", "104558.445000", "104554.605000", "104558.555000", "104554.715000", "104558.665000", "104554.825000", "104558.775000", "104554.935000", "104558.885000", "104555.045000", "104558.995000", "104555.155000", "104559.105000", "104555.265000", "104559.215000", "104555.375000", "104559.322500", "104555.482500", "104559.432500", "104555.592500", "104559.542500", "104555.702500", "104559.652500", "104555.812500", "104559.762500", "104555.922500", "104559.872500", "104556.032500", "104559.982500", "104556.142500", "104603.952500", "104600.112500", "104604.062500", "104600.222500", "104604.170000", "104600.332500", "104604.280000", "104600.440000", "104604.390000", "104600.550000", "104604.500000", "104600.660000", "104604.610000", "104600.770000", "104604.720000", "104600.880000", "104604.830000", "104600.990000", "104604.940000", "104601.100000", "104605.050000", "104601.210000", "104605.157500", "104601.317500", "104605.267500", "104601.427500", "104605.377500", "104601.537500", "104605.487500", "104601.647500", "104605.597500", "104601.757500", "104605.707500", "104601.867500", "104605.817500", "104601.977500", "104605.927500", "104602.087500", "104606.035000", "104602.197500", "104606.145000", "104602.305000", "104606.255000", "104602.415000", "104606.365000", "104602.525000", "104606.475000", "104602.635000", "104606.585000", "104602.745000", "104606.695000", "104602.855000", "104606.805000", "104602.965000", "104606.915000", "104603.075000", "104607.022500", "104603.182500", "104607.132500", "104603.292500", "104607.242500", "104603.402500", "104607.352500", "104603.512500", "104607.462500", "104603.622500", "104607.572500", "104603.732500", "104607.682500", "104603.842500", "104611.652500", "104607.812500", "104611.762500", "104607.922500", "104611.870000", "104608.032500", "104611.980000", "104608.140000", "104612.090000", "104608.250000", "104612.200000", "104608.360000", "104612.310000", "104608.470000", "104612.420000", "104608.580000", "104612.530000", "104608.690000", "104612.640000", "104608.800000", "104612.750000", "104608.910000", "104612.857500", "104609.017500", "104612.967500", "104609.127500", "104613.077500", "104609.237500", "104613.187500", "104609.347500", "104613.297500", "104609.457500", "104613.407500", "104609.567500", "104613.517500", "104609.677500", "104613.627500", "104609.787500", "104613.735000", "104609.897500", "104613.845000", "104610.005000", "104613.955000", "104610.115000", "104614.065000", "104610.225000", "104614.175000", "104610.335000", "104614.285000", "104610.445000", "104614.395000", "104610.555000", "104614.505000", "104610.665000", "104614.615000", "104610.775000", "104614.722500", "104610.882500", "104614.832500", "104610.992500", "104614.942500", "104611.102500", "104615.052500", "104611.212500", "104615.162500", "104611.322500", "104615.272500", "104611.432500", "104615.382500", "104611.542500", "104619.352500", "104615.512500", "104619.462500", "104615.622500", "104619.570000", "104615.732500", "104619.680000", "104615.840000", "104619.790000", "104615.950000", "104619.900000", "104616.060000", "104620.010000", "104616.170000", "104620.120000", "104616.280000", "104620.230000", "104616.390000", "104620.340000", "104616.500000", "104620.450000", "104616.610000", "104620.557500", "104616.717500", "104620.667500", "104616.827500", "104620.777500", "104616.937500", "104620.887500", "104617.047500", "104620.997500", "104617.157500", "104621.107500", "104617.267500", "104621.217500", "104617.377500", "104621.327500", "104617.487500", "104621.435000", "104617.597500", "104621.545000", "104617.705000", "104621.655000", "104617.815000", "104621.765000", "104617.925000", "104621.875000", "104618.035000", "104621.985000", "104618.145000", "104622.095000", "104618.255000", "104622.205000", "104618.365000", "104622.315000", "104618.475000", "104622.422500", "104618.582500", "104622.532500", "104618.692500", "104622.642500", "104618.802500", "104622.752500", "104618.912500", "104622.862500", "104619.022500", "104622.972500", "104619.132500", "104623.082500", "104619.242500", "104627.052500", "104623.212500", "104627.162500", "104623.322500", "104627.270000", "104623.432500", "104627.380000", "104623.540000", "104627.490000", "104623.650000", "104627.600000", "104623.760000", "104627.710000", "104623.870000", "104627.820000", "104623.980000", "104627.930000", "104624.090000", "104628.040000", "104624.200000", "104628.150000", "104624.310000", "104628.257500", "104624.417500", "104628.367500", "104624.527500", "104628.477500", "104624.637500", "104628.587500", "104624.747500", "104628.697500", "104624.857500", "104628.807500", "104624.967500", "104628.9175