{
  "AcquisitionMatrixPE": 80,
  "AcquisitionNumber": 1,
  "AcquisitionTime": "10:36:59.195000",
  "BandwidthPerPixelPhaseEncode": 48.077,
  "BaseResolution": 80,
  "BodyPartExamined": "BRAIN",
  "CoilCombinationMethod": "Sum of Squares",
  "ConsistencyInfo": "N4_VE11C_LATEST_20160120",
  "ConversionSoftware": "dcm2niix",
  "ConversionSoftwareVersion": "v1.0.20220720",
  "DerivedVendorReportedEchoSpacing": 0.000519999,
  "DeviceSerialNumber": "66112",
  "DwellTime": 2.7e-06,
  "EchoTime": 0.035,
  "EchoTrainLength": 39,
  "EffectiveEchoSpacing": 0.00026,
  "FlipAngle": 90,
  "HeudiconvVersion": "0.13.1",
  "ImageOrientationPatientDICOM": [0.988362, 0.151881, 0.00856186, -0.147359, 0.941919, 0.301784],
  "ImageOrientationText": "Tra>Cor(17.4)>Sag(-2.2)",
  "ImageType": [
    "ORIGINAL",
    "PRIMARY",
    "M",
    "ND",
    "NORM",
    "MOSAIC"
],
  "ImagingFrequency": 123.252,
  "InPlanePhaseEncodingDirectionDICOM": "COL",
  "InstitutionAddress": "Maynard 3,Hanover,NH,US,03755",
  "InstitutionName": "Dartmouth College - PBS",
  "InstitutionalDepartmentName": "Department",
  "MRAcquisitionType": "2D",
  "MagneticFieldStrength": 3,
  "Manufacturer": "Siemens",
  "ManufacturersModelName": "Prisma",
  "MatrixCoilMode": "GRAPPA",
  "Modality": "MR",
  "NonlinearGradientCorrection": false,
  "ParallelReductionFactorInPlane": 2,
  "PartialFourier": 1,
  "PatientPosition": "HFS",
  "PercentPhaseFOV": 100,
  "PercentSampling": 100,
  "PhaseEncodingDirection": "j-",
  "PhaseEncodingSteps": 79,
  "PhaseResolution": 1,
  "PixelBandwidth": 2315,
  "ProcedureStepDescription": "dbic^QA",
  "ProtocolName": "func-bold_task-rest_acq-p2",
  "PulseSequenceDetails": "%SiemensSeq%\\ep2d_bold",
  "ReceiveCoilActiveElements": "HEA;HEP",
  "ReceiveCoilName": "Head_32",
  "ReconMatrixPE": 80,
  "RefLinesPE": 24,
  "RepetitionTime": 2,
  "SAR": 0.0554695,
  "ScanOptions": "FS",
  "ScanningSequence": "EP",
  "SequenceName": "*epfid2d1_80",
  "SequenceVariant": "SK",
  "SeriesDescription": "func-bold_task-rest_acq-p2",
  "SeriesNumber": 5,
  "ShimSetting": [4143, -7683, -7517, 337, -49, -242, -83, 56],
  "SliceThickness": 3.5,
  "SliceTiming": [0.99, 0, 1.0575, 0.0675, 1.1225, 0.1325, 1.19, 0.2, 1.255, 0.265, 1.32, 0.33, 1.3875, 0.3975, 1.4525, 0.4625, 1.52, 0.53, 1.585, 0.595, 1.65, 0.66, 1.7175, 0.7275, 1.7825, 0.7925, 1.85, 0.86, 1.915, 0.925],
  "SoftwareVersions": "syngo MR E11",
  "SpacingBetweenSlices": 3.99,
  "StationName": "AWP66112",
  "TaskName": "rest",
  "TotalReadoutTime": 0.02054,
  "TxRefAmp": 235.423,
  "dcmmeta_affine": [
    [-2.9650847911834717, -0.442076712846756, -0.15070568025112152, 139.06849670410156],
    [-0.4556443691253662, 2.8257575035095215, 1.195138931274414, -109.96732330322266],
    [0.025685569271445274, -0.9053525924682617, 3.8038177490234375, -22.6131649017334],
    [0.0, 0.0, 0.0, 1.0]
],
  "dcmmeta_reorient_transform": [
    [0.0, -1.0, 0.0, 79.0],
    [1.0, 0.0, 0.0, 0.0],
    [0.0, 0.0, 1.0, 0.0],
    [0.0, 0.0, 0.0, 1.0]
],
  "dcmmeta_shape": [80, 80, 30, 200],
  "dcmmeta_slice_dim": 2,
  "dcmmeta_version": 0.6,
  "global": {
    "const": {
      "AccessionNumber": "qa",
      "AcquisitionMatrix": [80, 0, 0, 80],
      "AngioFlag": "N",
      "BitsAllocated": 16,
      "BitsStored": 12,
      "BodyPartExamined": "BRAIN",
      "Columns": 480,
      "EchoNumbers": 1,
      "EchoTime": 35.0,
      "EchoTrainLength": 39,
      "FlipAngle": 90.0,
      "HighBit": 11,
      "ImageOrientationPatient": [0.98836163261415, 0.1518814596807, 0.00856185619793, -0.1473589029673, 0.94191913469202, 0.3017841901381],
      "ImagePositionPatient": [-608.74606831968, -769.54786822546, -280.34364646497],
      "ImageType": [
        "ORIGINAL",
        "PRIMARY",
        "M",
        "ND",
        "NORM",
        "MOSAIC"
],
      "ImagedNucleus": "1H",
      "ImagingFrequency": 123.252451,
      "InPlanePhaseEncodingDirection": "COL",
      "MRAcquisitionType": "2D",
      "MagneticFieldStrength": 3.0,
      "Manufacturer": "SIEMENS",
      "ManufacturerModelName": "Prisma",
      "Modality": "MR",
      "NumberOfAverages": 1.0,
      "NumberOfPhaseEncodingSteps": 79,
      "PercentPhaseFieldOfView": 100.0,
      "PercentSampling": 100.0,
      "PerformedProcedureStepStartTime": "102224.195000",
      "PhotometricInterpretation": "MONOCHROME2",
      "PixelBandwidth": 2315.0,
      "PixelRepresentation": 0,
      "PixelSpacing": [3.0, 3.0],
      "ProtocolName": "func-bold_task-rest_acq-p2",
      "RepetitionTime": 2000.0,
      "Rows": 480,
      "SAR": 0.05546954082783,
      "SamplesPerPixel": 1,
      "ScanOptions": "FS",
      "ScanningSequence": "EP",
      "SequenceName": "*epfid2d1_80",
      "SequenceVariant": "SK",
      "SeriesDescription": "func-bold_task-rest_acq-p2",
      "SeriesNumber": 5,
      "SeriesTime": "103744.618000",
      "SliceLocation": -59.749626774063,
      "SliceThickness": 3.5,
      "SmallestImagePixelValue": 0,
      "SoftwareVersions": "syngo MR E11",
      "SpacingBetweenSlices": 3.9899999668104,
      "SpecificCharacterSet": "ISO_IR 100",
      "StudyID": "50",
      "StudyTime": "102224.130000",
      "TransmitCoilName": "Body",
      "VariableFlipAngleFlag": "N",
      "WindowCenterWidthExplanation": "Algo1",
      "dBdt": 0.0},
    "slices": {}
  },
  "time": {
    "samples": {
      "AcquisitionNumber": [1, 2, 3, 4, 5, 6, 7, 8, 9, 10, 11, 12, 13, 14, 15, 16, 17, 18, 19, 20, 21, 22, 23, 24, 25, 26, 27, 28, 29, 30, 31, 32, 33, 34, 35, 36, 37, 38, 39, 40, 41, 42, 43, 44, 45, 46, 47, 48, 49, 50, 51, 52, 53, 54, 55, 56, 57, 58, 59, 60, 61, 62, 63, 64, 65, 66, 67, 68, 69, 70, 71, 72, 73, 74, 75, 76, 77, 78, 79, 80, 81, 82, 83, 84, 85, 86, 87, 88, 89, 90, 91, 92, 93, 94, 95, 96, 97, 98, 99, 100, 101, 102, 103, 104, 105, 106, 107, 108, 109, 110, 111, 112, 113, 114, 115, 116, 117, 118, 119, 120, 121, 122, 123, 124, 125, 126, 127, 128, 129, 130, 131, 132, 133, 134, 135, 136, 137, 138, 139, 140, 141, 142, 143, 144, 145, 146, 147, 148, 149, 150, 151, 152, 153, 154, 155, 156, 157, 158, 159, 160, 161, 162, 163, 164, 165, 166, 167, 168, 169, 170, 171, 172, 173, 174, 175, 176, 177, 178, 179, 180, 181, 182, 183, 184, 185, 186, 187, 188, 189, 190, 191, 192, 193, 194, 195, 196, 197, 198, 199, 200],
      "AcquisitionTime": ["103659.195000", "103701.195000", "103703.195000", "103705.195000", "103707.195000", "103709.195000", "103711.195000", "103713.195000", "103715.195000", "103717.195000", "103719.195000", "103721.195000", "103723.195000", "103725.195000", "103727.195000", "103729.195000", "103731.195000", "103733.195000", "103735.195000", "103737.195000", "103739.195000", "103741.195000", "103743.195000", "103745.195000", "103747.195000", "103749.195000", "103751.195000", "103753.195000", "103755.195000", "103757.195000", "103759.195000", "103801.195000", "103803.195000", "103805.195000", "103807.195000", "103809.195000", "103811.195000", "103813.195000", "103815.195000", "103817.195000", "103819.195000", "103821.195000", "103823.195000", "103825.195000", "103827.195000", "103829.195000", "103831.195000", "103833.195000", "103835.195000", "103837.195000", "103839.195000", "103841.195000", "103843.195000", "103845.195000", "103847.195000", "103849.195000", "103851.195000", "103853.195000", "103855.195000", "103857.195000", "103859.195000", "103901.195000", "103903.195000", "103905.195000", "103907.195000", "103909.195000", "103911.195000", "103913.195000", "103915.195000", "103917.195000", "103919.195000", "103921.195000", "103923.195000", "103925.195000", "103927.195000", "103929.195000", "103931.195000", "103933.195000", "103935.195000", "103937.195000", "103939.195000", "103941.195000", "103943.195000", "103945.195000", "103947.195000", "103949.195000", "103951.195000", "103953.195000", "103955.195000", "103957.195000", "103959.195000", "104001.195000", "104003.195000", "104005.195000", "104007.195000", "104009.195000", "104011.195000", "104013.195000", "104015.195000", "104017.195000", "104019.195000", "104021.195000", "104023.195000", "104025.195000", "104027.195000", "104029.195000", "104031.195000", "104033.195000", "104035.195000", "104037.195000", "104039.195000", "104041.195000", "104043.195000", "104045.195000", "104047.195000", "104049.195000", "104051.195000", "104053.195000", "104055.195000", "104057.195000", "104059.195000", "104101.195000", "104103.195000", "104105.195000", "104107.195000", "104109.195000", "104111.195000", "104113.195000", "104115.195000", "104117.195000", "104119.195000", "104121.195000", "104123.195000", "104125.195000", "104127.195000", "104129.195000", "104131.195000", "104133.195000", "104135.195000", "104137.195000", "104139.195000", "104141.195000", "104143.195000", "104145.195000", "104147.195000", "104149.195000", "104151.195000", "104153.195000", "104155.195000", "104157.195000", "104159.195000", "104201.195000", "104203.195000", "104205.195000", "104207.195000", "104209.195000", "104211.195000", "104213.195000", "104215.195000", "104217.195000", "104219.195000", "104221.195000", "104223.195000", "104225.195000", "104227.195000", "104229.195000", "104231.195000", "104233.195000", "104235.195000", "104237.195000", "104239.195000", "104241.195000", "104243.195000", "104245.195000", "104247.195000", "104249.195000", "104251.195000", "104253.195000", "104255.195000", "104257.195000", "104259.195000", "104301.195000", "104303.195000", "104305.195000", "104307.195000", "104309.195000", "104311.195000", "104313.195000", "104315.195000", "104317.195000", "104319.195000", "104321.195000", "104323.195000", "104325.195000", "104327.195000", "104329.195000", "104331.195000", "104333.195000", "104335.195000", "104337.195000"],
      "ContentTime": ["103744.622000", "103744.625000", "103744.628000", "103744.631000", "103744.633000", "103744.636000", "103744.638000", "103744.641000", "103744.644000", "103744.647000", "103744.649000", "103744.652000", "103744.655000", "103744.657000", "103744.660000", "103744.662000", "103744.665000", "103744.668000", "103744.670000", "103744.673000", "103744.676000", "103744.692000", "103744.694000", "103824.615000", "103824.618000", "103824.621000", "103824.623000", "103824.626000", "103824.629000", "103824.631000", "103824.634000", "103824.636000", "103824.639000", "103824.642000", "103824.644000", "103824.647000", "103824.649000", "103824.652000", "103824.655000", "103824.657000", "103824.660000", "103824.663000", "103824.665000", "103904.616000", "103904.619000", "103904.622000", "103904.625000", "103904.627000", "103904.630000", "103904.632000", "103904.635000", "103904.637000", "103904.640000", "103904.642000", "103904.645000", "103904.647000", "103904.650000", "103904.652000", "103904.655000", "103904.657000", "103904.660000", "103904.662000", "103904.665000", "103944.617000", "103944.620000", "103944.622000", "103944.625000", "103944.627000", "103944.630000", "103944.632000", "103944.635000", "103944.637000", "103944.640000", "103944.642000", "103944.645000", "103944.647000", "103944.650000", "103944.653000", "103944.655000", "103944.658000", "103944.660000", "103944.663000", "103944.665000", "104024.617000", "104024.619000", "104024.622000", "104024.625000", "104024.627000", "104024.630000", "104024.632000", "104024.635000", "104024.637000", "104024.640000", "104024.642000", "104024.645000", "104024.647000", "104024.650000", "104024.653000", "104024.655000", "104024.658000", "104024.660000", "104024.663000", "104024.665000", "104104.616000", "104104.619000", "104104.626000", "104104.629000", "104104.631000", "104104.634000", "104104.636000", "104104.639000", "104104.641000", "104104.644000", "104104.646000", "104104.649000", "104104.651000", "104104.654000", "104104.656000", "104104.659000", "104104.662000", "104104.664000", "104104.667000", "104104.669000", "104144.617000", "104144.619000", "104144.622000", "104144.625000", "104144.627000", "104144.630000", "104144.632000", "104144.635000", "104144.637000", "104144.640000", "104144.642000", "104144.645000", "104144.648000", "104144.650000", "104144.653000", "104144.655000", "104144.658000", "104144.660000", "104144.663000", "104144.665000", "104224.617000", "104224.619000", "104224.622000", "104224.624000", "104224.627000", "104224.630000", "104224.632000", "104224.635000", "104224.637000", "104224.640000", "104224.642000", "104224.645000", "104224.648000", "104224.650000", "104224.653000", "104224.655000", "104224.658000", "104224.660000", "104224.663000", "104224.666000", "104304.615000", "104304.618000", "104304.621000", "104304.623000", "104304.626000", "104304.629000", "104304.631000", "104304.634000", "104304.640000", "104304.643000", "104304.645000", "104304.648000", "104304.650000", "104304.653000", "104304.669000", "104304.672000", "104304.674000", "104304.677000", "104304.679000", "104304.682000", "104338.289000", "104338.292000", "104338.294000", "104338.297000", "104338.300000", "104338.302000", "104338.305000", "104338.308000", "104338.310000", "104338.313000", "104338.316000", "104338.324000", "104338.327000", "104338.330000", "104338.333000", "104338.341000", "104338.345000"],
      "InstanceCreationTime": ["103744.622000", "103744.625000", "103744.628000", "103744.631000", "103744.633000", "103744.636000", "103744.638000", "103744.641000", "103744.644000", "103744.647000", "103744.649000", "103744.652000", "103744.655000", "103744.657000", "103744.660000", "103744.662000", "103744.665000", "103744.668000", "103744.670000", "103744.673000", "103744.676000", "103744.692000", "103744.694000", "103824.615000", "103824.618000", "103824.621000", "103824.623000", "103824.626000", "103824.629000", "103824.631000", "103824.634000", "103824.636000", "103824.639000", "103824.642000", "103824.644000", "103824.647000", "103824.649000", "103824.652000", "103824.655000", "103824.657000", "103824.660000", "103824.663000", "103824.665000", "103904.616000", "103904.619000", "103904.622000", "103904.625000", "103904.627000", "103904.630000", "103904.632000", "103904.635000", "103904.637000", "103904.640000", "103904.642000", "103904.645000", "103904.647000", "103904.650000", "103904.652000", "103904.655000", "103904.657000", "103904.660000", "103904.662000", "103904.665000", "103944.617000", "103944.620000", "103944.622000", "103944.625000", "103944.627000", "103944.630000", "103944.632000", "103944.635000", "103944.637000", "103944.640000", "103944.642000", "103944.645000", "103944.647000", "103944.650000", "103944.653000", "103944.655000", "103944.658000", "103944.660000", "103944.663000", "103944.665000", "104024.617000", "104024.619000", "104024.622000", "104024.625000", "104024.627000", "104024.630000", "104024.632000", "104024.635000", "104024.637000", "104024.640000", "104024.642000", "104024.645000", "104024.647000", "104024.650000", "104024.653000", "104024.655000", "104024.658000", "104024.660000", "104024.663000", "104024.665000", "104104.616000", "104104.619000", "104104.626000", "104104.629000", "104104.631000", "104104.634000", "104104.636000", "104104.639000", "104104.641000", "104104.644000", "104104.646000", "104104.649000", "104104.651000", "104104.654000", "104104.656000", "104104.659000", "104104.662000", "104104.664000", "104104.667000", "104104.669000", "104144.617000", "104144.619000", "104144.622000", "104144.625000", "104144.627000", "104144.630000", "104144.632000", "104144.635000", "104144.637000", "104144.640000", "104144.642000", "104144.645000", "104144.648000", "104144.650000", "104144.653000", "104144.655000", "104144.658000", "104144.660000", "104144.663000", "104144.665000", "104224.617000", "104224.619000", "104224.622000", "104224.624000", "104224.627000", "104224.630000", "104224.632000", "104224.635000", "104224.637000", "104224.640000", "104224.642000", "104224.645000", "104224.648000", "104224.650000", "104224.653000", "104224.655000", "104224.658000", "104224.660000", "104224.663000", "104224.666000", "104304.615000", "104304.618000", "104304.621000", "104304.623000", "104304.626000", "104304.629000", "104304.631000", "104304.634000", "104304.640000", "104304.643000", "104304.645000", "104304.648000", "104304.650000", "104304.653000", "104304.669000", "104304.672000", "104304.674000", "104304.677000", "104304.679000", "104304.682000", "104338.289000", "104338.292000", "104338.294000", "104338.297000", "104338.300000", "104338.302000", "104338.305000", "104338.308000", "104338.310000", "104338.313000", "104338.316000", "104338.324000", "104338.327000", "104338.330000", "104338.333000", "104338.341000", "104338.345000"],
      "InstanceNumber": [1, 2, 3, 4, 5, 6, 7, 8, 9, 10, 11, 12, 13, 14, 15, 16, 17, 18, 19, 20, 21, 22, 23, 24, 25, 26, 27, 28, 29, 30, 31, 32, 33, 34, 35, 36, 37, 38, 39, 40, 41, 42, 43, 44, 45, 46, 47, 48, 49, 50, 51, 52, 53, 54, 55, 56, 57, 58, 59, 60, 61, 62, 63, 64, 65, 66, 67, 68, 69, 70, 71, 72, 73, 74, 75, 76, 77, 78, 79, 80, 81, 82, 83, 84, 85, 86, 87, 88, 89, 90, 91, 92, 93, 94, 95, 96, 97, 98, 99, 100, 101, 102, 103, 104, 105, 106, 107, 108, 109, 110, 111, 112, 113, 114, 115, 116, 117, 118, 119, 120, 121, 122, 123, 124, 125, 126, 127, 128, 129, 130, 131, 132, 133, 134, 135, 136, 137, 138, 139, 140, 141, 142, 143, 144, 145, 146, 147, 148, 149, 150, 151, 152, 153, 154, 155, 156, 157, 158, 159, 160, 161, 162, 163, 164, 165, 166, 167, 168, 169, 170, 171, 172, 173, 174, 175, 176, 177, 178, 179, 180, 181, 182, 183, 184, 185, 186, 187, 188, 189, 190, 191, 192, 193, 194, 195, 196, 197, 198, 199, 200],
      "LargestImagePixelValue": [2148, 2141, 2146, 2146, 2135, 2144, 2147, 2138, 2146, 2137, 2142, 2140, 2142, 2144, 2142, 2140, 2142, 2139, 2145, 2139, 2147, 2138, 2143, 2137, 2139, 2142, 2148, 2145, 2135, 2148, 2136, 2143, 2142, 2141, 2136, 2144, 2144, 2153, 2144, 2152, 2138, 2145, 2150, 2146, 2147, 2144, 2142, 2141, 2142, 2139, 2141, 2137, 2150, 2142, 2141, 2142, 2136, 2142, 2150, 2148, 2138, 2141, 2142, 2141, 2147, 2135, 2153, 2147, 2146, 2142, 2138, 2150, 2140, 2147, 2140, 2139, 2137, 2149, 2145, 2143, 2143, 2137, 2140, 2149, 2145, 2145, 2144, 2141, 2145, 2143, 2149, 2140, 2146, 2143, 2146, 2138, 2142, 2147, 2139, 2143, 2141, 2142, 2139, 2144, 2141, 2149, 2136, 2154, 2145, 2142, 2143, 2144, 2146, 2146, 2153, 2141, 2142, 2139, 2134, 2140, 2138, 2145, 2141, 2138, 2140, 2140, 2144, 2147, 2145, 2139, 2137, 2139, 2139, 2149, 2141, 2140, 2144, 2140, 2141, 2140, 2147, 2145, 2149, 2140, 2137, 2142, 2137, 2146, 2138, 2135, 2145, 2138, 2146, 2139, 2142, 2136, 2146, 2139, 2145, 2142, 2135, 2139, 2139, 2146, 2136, 2142, 2135, 2142, 2134, 2135, 2143, 2144, 2138, 2141, 2150, 2140, 2141, 2144, 2146, 2150, 2139, 2143, 2143, 2142, 2144, 2144, 2141, 2141, 2147, 2144, 2149, 2143, 2139, 2138, 2139, 2140, 2146, 2141, 2143, 2143],
      "WindowCenter": [986.0, 986.0, 986.0, 986.0, 986.0, 986.0, 986.0, 987.0, 987.0, 987.0, 986.0, 986.0, 986.0, 986.0, 986.0, 986.0, 986.0, 986.0, 986.0, 986.0, 986.0, 986.0, 986.0, 986.0, 986.0, 986.0, 986.0, 986.0, 987.0, 986.0, 986.0, 986.0, 986.0, 986.0, 987.0, 986.0, 986.0, 986.0, 986.0, 986.0, 986.0, 986.0, 986.0, 986.0, 986.0, 986.0, 986.0, 987.0, 986.0, 986.0, 986.0, 986.0, 986.0, 986.0, 986.0, 986.0, 986.0, 986.0, 986.0, 986.0, 986.0, 986.0, 986.0, 986.0, 986.0, 987.0, 986.0, 986.0, 986.0, 986.0, 986.0, 986.0, 986.0, 986.0, 986.0, 986.0, 986.0, 986.0, 986.0, 986.0, 986.0, 986.0, 986.0, 986.0, 986.0, 986.0, 986.0, 986.0, 986.0, 986.0, 986.0, 986.0, 986.0, 986.0, 986.0, 986.0, 986.0, 986.0, 986.0, 986.0, 986.0, 986.0, 986.0, 986.0, 986.0, 986.0, 986.0, 986.0, 986.0, 986.0, 986.0, 986.0, 986.0, 985.0, 985.0, 985.0, 985.0, 986.0, 986.0, 986.0, 985.0, 985.0, 985.0, 985.0, 985.0, 986.0, 985.0, 985.0, 986.0, 985.0, 985.0, 986.0, 985.0, 985.0, 986.0, 985.0, 985.0, 985.0, 985.0, 985.0, 986.0, 985.0, 985.0, 985.0, 985.0, 985.0, 985.0, 986.0, 985.0, 985.0, 985.0, 985.0, 985.0, 985.0, 985.0, 985.0, 985.0, 985.0, 985.0, 985.0, 985.0, 985.0, 985.0, 985.0, 986.0, 985.0, 985.0, 985.0, 985.0, 985.0, 985.0, 985.0, 986.0, 985.0, 985.0, 985.0, 985.0, 985.0, 985.0, 986.0, 985.0, 985.0, 985.0, 985.0, 985.0, 985.0, 986.0, 985.0, 986.0, 985.0, 985.0, 986.0, 985.0, 985.0, 985.0, 985.0, 985.0, 986.0, 985.0, 985.0],
      "WindowWidth": [2161.0, 2160.0, 2161.0, 2161.0, 2160.0, 2161.0, 2161.0, 2161.0, 2161.0, 2162.0, 2161.0, 2161.0, 2160.0, 2160.0, 2160.0, 2160.0, 2161.0, 2161.0, 2161.0, 2160.0, 2160.0, 2160.0, 2160.0, 2161.0, 2160.0, 2161.0, 2160.0, 2160.0, 2161.0, 2160.0, 2160.0, 2160.0, 2160.0, 2160.0, 2161.0, 2160.0, 2160.0, 2161.0, 2160.0, 2161.0, 2161.0, 2160.0, 2161.0, 2160.0, 2160.0, 2161.0, 2161.0, 2161.0, 2160.0, 2160.0, 2161.0, 2160.0, 2160.0, 2160.0, 2160.0, 2160.0, 2161.0, 2160.0, 2161.0, 2160.0, 2161.0, 2160.0, 2160.0, 2160.0, 2160.0, 2161.0, 2160.0, 2160.0, 2160.0, 2160.0, 2160.0, 2160.0, 2160.0, 2160.0, 2160.0, 2160.0, 2160.0, 2160.0, 2160.0, 2160.0, 2160.0, 2161.0, 2160.0, 2160.0, 2160.0, 2160.0, 2160.0, 2160.0, 2161.0, 2160.0, 2160.0, 2160.0, 2160.0, 2160.0, 2160.0, 2160.0, 2160.0, 2160.0, 2160.0, 2160.0, 2160.0, 2161.0, 2160.0, 2160.0, 2160.0, 2161.0, 2160.0, 2160.0, 2161.0, 2160.0, 2160.0, 2160.0, 2161.0, 2160.0, 2160.0, 2160.0, 2160.0, 2160.0, 2161.0, 2161.0, 2160.0, 2160.0, 2160.0, 2160.0, 2160.0, 2161.0, 2160.0, 2160.0, 2160.0, 2160.0, 2160.0, 2160.0, 2160.0, 2160.0, 2160.0, 2160.0, 2160.0, 2160.0, 2160.0, 2160.0, 2160.0, 2160.0, 2160.0, 2160.0, 2160.0, 2160.0, 2160.0, 2161.0, 2160.0, 2160.0, 2160.0, 2160.0, 2160.0, 2160.0, 2160.0, 2160.0, 2160.0, 2160.0, 2160.0, 2160.0, 2160.0, 2160.0, 2160.0, 2160.0, 2161.0, 2160.0, 2160.0, 2159.0, 2160.0, 2159.0, 2159.0, 2159.0, 2161.0, 2159.0, 2159.0, 2160.0, 2160.0, 2160.0, 2160.0, 2161.0, 2160.0, 2160.0, 2160.0, 2159.0, 2160.0, 2159.0, 2160.0, 2159.0, 2160.0, 2160.0, 2160.0, 2160.0, 2160.0, 2160.0, 2159.0, 2159.0, 2160.0, 2160.0, 2160.0, 2159.0]
    },
    "slices": {}
  }
}