{
  "AcquisitionMatrixPE": 80,
  "AcquisitionNumber": 1,
  "AcquisitionTime": "09:55:15.550000",
  "BandwidthPerPixelPhaseEncode": 25,
  "BaseResolution": 80,
  "BodyPartExamined": "BRAIN",
  "CoilCombinationMethod": "Sum of Squares",
  "ConsistencyInfo": "N4_VE11C_LATEST_20160120",
  "ConversionSoftware": "dcm2niix",
  "ConversionSoftwareVersion": "v1.0.20220720",
  "DerivedVendorReportedEchoSpacing": 0.0005,
  "DeviceSerialNumber": "66112",
  "DwellTime": 2.7e-06,
  "EchoTime": 0.03,
  "EchoTrainLength": 80,
  "EffectiveEchoSpacing": 0.0005,
  "FlipAngle": 77,
  "HeudiconvVersion": "0.13.1",
  "ImageOrientationPatientDICOM": [0.999934, 0.0109776, 0.00349083, -0.0115189, 0.950406, 0.310798],
  "ImageOrientationText": "Tra>Cor(18.1)>Sag(-0.0)",
  "ImageType": [
    "ORIGINAL",
    "PRIMARY",
    "M",
    "ND",
    "NORM",
    "MOSAIC"
],
  "ImagingFrequency": 123.252,
  "InPlanePhaseEncodingDirectionDICOM": "COL",
  "InstitutionAddress": "Maynard 3,Hanover,NH,US,03755",
  "InstitutionName": "Dartmouth College - PBS",
  "InstitutionalDepartmentName": "Department",
  "MRAcquisitionType": "2D",
  "MagneticFieldStrength": 3,
  "Manufacturer": "Siemens",
  "ManufacturersModelName": "Prisma",
  "MatrixCoilMode": "SENSE",
  "Modality": "MR",
  "NonlinearGradientCorrection": false,
  "PartialFourier": 1,
  "PatientPosition": "HFS",
  "PercentPhaseFOV": 100,
  "PercentSampling": 100,
  "PhaseEncodingDirection": "j-",
  "PhaseEncodingSteps": 80,
  "PhaseResolution": 1,
  "PixelBandwidth": 2315,
  "ProcedureStepDescription": "dbic^QA",
  "ProtocolName": "func-bold_fa-77",
  "PulseSequenceDetails": "%SiemensSeq%\\ep2d_bold",
  "ReceiveCoilActiveElements": "HC1-7;NC1,2",
  "ReceiveCoilName": "HeadNeck_64",
  "ReconMatrixPE": 80,
  "RepetitionTime": 2,
  "SAR": 0.0283697,
  "ScanOptions": "FS",
  "ScanningSequence": "EP",
  "SequenceName": "*epfid2d1_80",
  "SequenceVariant": "SK",
  "SeriesDescription": "func-bold_fa-77",
  "SeriesNumber": 7,
  "ShimSetting": [4141, -7693, -7510, 175, -57, -280, -43, 84],
  "SliceThickness": 3.5,
  "SliceTiming": [0.9875, 0, 1.055, 0.065, 1.12, 0.13, 1.1875, 0.1975, 1.2525, 0.2625, 1.3175, 0.33, 1.385, 0.395, 1.45, 0.46, 1.5175, 0.5275, 1.5825, 0.5925, 1.6475, 0.6575, 1.715, 0.725, 1.78, 0.79, 1.8475, 0.8575, 1.9125, 0.9225],
  "SoftwareVersions": "syngo MR E11",
  "SpacingBetweenSlices": 3.99,
  "StationName": "AWP66112",
  "TotalReadoutTime": 0.0395,
  "TxRefAmp": 212.312,
  "dcmmeta_affine": [
    [-2.99980092048645, -0.03455665335059166, -0.0003754694480448961, 120.9694595336914],
    [-0.032932791858911514, 2.8512187004089355, 1.2401612997055054, -115.09225463867188],
    [0.010472501628100872, -0.9323933720588684, 3.7923738956451416, -34.76722717285156],
    [0.0, 0.0, 0.0, 1.0]
],
  "dcmmeta_reorient_transform": [
    [0.0, -1.0, 0.0, 79.0],
    [1.0, 0.0, 0.0, 0.0],
    [0.0, 0.0, 1.0, 0.0],
    [0.0, 0.0, 0.0, 1.0]
],
  "dcmmeta_shape": [80, 80, 30, 200],
  "dcmmeta_slice_dim": 2,
  "dcmmeta_version": 0.6,
  "global": {
    "const": {
      "AccessionNumber": "qa64",
      "AcquisitionMatrix": [80, 0, 0, 80],
      "AngioFlag": "N",
      "BitsAllocated": 16,
      "BitsStored": 12,
      "BodyPartExamined": "BRAIN",
      "Columns": 480,
      "EchoNumbers": 1,
      "EchoTime": 30.0,
      "EchoTrainLength": 80,
      "FlipAngle": 77.0,
      "HighBit": 11,
      "ImageOrientationPatient": [0.99993365101965, 0.01097759709515, 0.00349083378756, -0.0115188846341, 0.95040625558363, 0.31079778738643],
      "ImagePositionPatient": [-711.28834011753, -686.98433588856, -296.99947716714],
      "ImageType": [
        "ORIGINAL",
        "PRIMARY",
        "M",
        "ND",
        "NORM",
        "MOSAIC"
],
      "ImagedNucleus": "1H",
      "ImagingFrequency": 123.252365,
      "InPlanePhaseEncodingDirection": "COL",
      "MRAcquisitionType": "2D",
      "MagneticFieldStrength": 3.0,
      "Manufacturer": "SIEMENS",
      "ManufacturerModelName": "Prisma",
      "Modality": "MR",
      "NumberOfAverages": 1.0,
      "NumberOfPhaseEncodingSteps": 80,
      "PercentPhaseFieldOfView": 100.0,
      "PercentSampling": 100.0,
      "PerformedProcedureStepStartTime": "093700.312000",
      "PhotometricInterpretation": "MONOCHROME2",
      "PixelBandwidth": 2315.0,
      "PixelRepresentation": 0,
      "PixelSpacing": [3.0, 3.0],
      "ProtocolName": "func-bold_fa-77",
      "RepetitionTime": 2000.0,
      "Rows": 480,
      "SAR": 0.02836966396642,
      "SamplesPerPixel": 1,
      "ScanOptions": "FS",
      "ScanningSequence": "EP",
      "SequenceName": "*epfid2d1_80",
      "SequenceVariant": "SK",
      "SeriesDescription": "func-bold_fa-77",
      "SeriesNumber": 7,
      "SeriesTime": "095610.650000",
      "SliceLocation": -68.829253079226,
      "SliceThickness": 3.5,
      "SmallestImagePixelValue": 0,
      "SoftwareVersions": "syngo MR E11",
      "SpacingBetweenSlices": 3.9899999144539,
      "SpecificCharacterSet": "ISO_IR 100",
      "StudyID": "17",
      "StudyTime": "093700.237000",
      "TransmitCoilName": "Body",
      "VariableFlipAngleFlag": "N",
      "WindowCenterWidthExplanation": "Algo1",
      "dBdt": 0.0},
    "slices": {}
  },
  "time": {
    "samples": {
      "AcquisitionNumber": [1, 2, 3, 4, 5, 6, 7, 8, 9, 10, 11, 12, 13, 14, 15, 16, 17, 18, 19, 20, 21, 22, 23, 24, 25, 26, 27, 28, 29, 30, 31, 32, 33, 34, 35, 36, 37, 38, 39, 40, 41, 42, 43, 44, 45, 46, 47, 48, 49, 50, 51, 52, 53, 54, 55, 56, 57, 58, 59, 60, 61, 62, 63, 64, 65, 66, 67, 68, 69, 70, 71, 72, 73, 74, 75, 76, 77, 78, 79, 80, 81, 82, 83, 84, 85, 86, 87, 88, 89, 90, 91, 92, 93, 94, 95, 96, 97, 98, 99, 100, 101, 102, 103, 104, 105, 106, 107, 108, 109, 110, 111, 112, 113, 114, 115, 116, 117, 118, 119, 120, 121, 122, 123, 124, 125, 126, 127, 128, 129, 130, 131, 132, 133, 134, 135, 136, 137, 138, 139, 140, 141, 142, 143, 144, 145, 146, 147, 148, 149, 150, 151, 152, 153, 154, 155, 156, 157, 158, 159, 160, 161, 162, 163, 164, 165, 166, 167, 168, 169, 170, 171, 172, 173, 174, 175, 176, 177, 178, 179, 180, 181, 182, 183, 184, 185, 186, 187, 188, 189, 190, 191, 192, 193, 194, 195, 196, 197, 198, 199, 200],
      "AcquisitionTime": ["095515.550000", "095517.550000", "095519.550000", "095521.550000", "095523.550000", "095525.550000", "095527.550000", "095529.550000", "095531.550000", "095533.550000", "095535.550000", "095537.550000", "095539.550000", "095541.550000", "095543.550000", "095545.550000", "095547.550000", "095549.550000", "095551.550000", "095553.550000", "095555.550000", "095557.550000", "095559.550000", "095601.550000", "095603.550000", "095605.550000", "095607.550000", "095609.550000", "095611.550000", "095613.550000", "095615.550000", "095617.550000", "095619.550000", "095621.550000", "095623.550000", "095625.550000", "095627.550000", "095629.550000", "095631.550000", "095633.550000", "095635.550000", "095637.550000", "095639.550000", "095641.550000", "095643.550000", "095645.550000", "095647.550000", "095649.550000", "095651.550000", "095653.550000", "095655.550000", "095657.550000", "095659.550000", "095701.550000", "095703.550000", "095705.550000", "095707.550000", "095709.550000", "095711.550000", "095713.550000", "095715.550000", "095717.550000", "095719.550000", "095721.550000", "095723.550000", "095725.550000", "095727.550000", "095729.550000", "095731.550000", "095733.550000", "095735.550000", "095737.550000", "095739.550000", "095741.550000", "095743.550000", "095745.550000", "095747.550000", "095749.550000", "095751.550000", "095753.550000", "095755.550000", "095757.550000", "095759.550000", "095801.550000", "095803.550000", "095805.550000", "095807.550000", "095809.550000", "095811.550000", "095813.550000", "095815.550000", "095817.550000", "095819.550000", "095821.550000", "095823.550000", "095825.550000", "095827.550000", "095829.550000", "095831.550000", "095833.550000", "095835.550000", "095837.550000", "095839.550000", "095841.550000", "095843.550000", "095845.550000", "095847.550000", "095849.550000", "095851.550000", "095853.550000", "095855.550000", "095857.550000", "095859.550000", "095901.550000", "095903.550000", "095905.550000", "095907.550000", "095909.550000", "095911.550000", "095913.550000", "095915.550000", "095917.550000", "095919.550000", "095921.550000", "095923.550000", "095925.550000", "095927.550000", "095929.550000", "095931.550000", "095933.550000", "095935.550000", "095937.550000", "095939.550000", "095941.550000", "095943.550000", "095945.550000", "095947.550000", "095949.550000", "095951.550000", "095953.550000", "095955.550000", "095957.550000", "095959.550000", "100001.550000", "100003.550000", "100005.550000", "100007.550000", "100009.550000", "100011.550000", "100013.550000", "100015.550000", "100017.550000", "100019.550000", "100021.550000", "100023.550000", "100025.550000", "100027.550000", "100029.550000", "100031.550000", "100033.550000", "100035.550000", "100037.550000", "100039.550000", "100041.550000", "100043.550000", "100045.550000", "100047.550000", "100049.550000", "100051.550000", "100053.550000", "100055.550000", "100057.550000", "100059.550000", "100101.550000", "100103.550000", "100105.550000", "100107.550000", "100109.550000", "100111.550000", "100113.550000", "100115.550000", "100117.550000", "100119.550000", "100121.550000", "100123.550000", "100125.550000", "100127.550000", "100129.550000", "100131.550000", "100133.550000", "100135.550000", "100137.550000", "100139.550000", "100141.550000", "100143.550000", "100145.550000", "100147.550000", "100149.550000", "100151.550000", "100153.550000"],
      "ContentTime": ["095610.654000", "095610.657000", "095610.660000", "095610.662000", "095610.665000", "095610.668000", "095610.670000", "095610.673000", "095610.675000", "095610.678000", "095610.680000", "095610.683000", "095610.685000", "095610.688000", "095610.690000", "095610.693000", "095610.695000", "095610.698000", "095610.700000", "095610.703000", "095610.705000", "095610.708000", "095610.710000", "095610.713000", "095610.715000", "095610.718000", "095610.720000", "095610.723000", "095650.637000", "095650.640000", "095650.643000", "095650.645000", "095650.648000", "095650.650000", "095650.653000", "095650.655000", "095650.658000", "095650.660000", "095650.663000", "095650.665000", "095650.668000", "095650.670000", "095650.673000", "095650.676000", "095650.678000", "095650.681000", "095650.683000", "095650.686000", "095730.636000", "095730.639000", "095730.642000", "095730.644000", "095730.647000", "095730.649000", "095730.652000", "095730.654000", "095730.657000", "095730.659000", "095730.662000", "095730.664000", "095730.667000", "095730.669000", "095730.672000", "095730.675000", "095730.677000", "095730.680000", "095730.682000", "095730.685000", "095810.637000", "095810.639000", "095810.642000", "095810.644000", "095810.647000", "095810.649000", "095810.652000", "095810.654000", "095810.657000", "095810.659000", "095810.662000", "095810.664000", "095810.667000", "095810.670000", "095810.672000", "095810.675000", "095810.677000", "095810.680000", "095810.682000", "095810.685000", "095850.637000", "095850.640000", "095850.643000", "095850.645000", "095850.648000", "095850.650000", "095850.653000", "095850.655000", "095850.658000", "095850.660000", "095850.663000", "095850.665000", "095850.668000", "095850.671000", "095850.673000", "095850.676000", "095850.678000", "095850.681000", "095850.683000", "095850.686000", "095930.636000", "095930.639000", "095930.642000", "095930.644000", "095930.647000", "095930.649000", "095930.652000", "095930.654000", "095930.657000", "095930.659000", "095930.662000", "095930.664000", "095930.667000", "095930.670000", "095930.672000", "095930.675000", "095930.677000", "095930.680000", "095930.683000", "095930.685000", "100010.636000", "100010.639000", "100010.642000", "100010.644000", "100010.647000", "100010.649000", "100010.652000", "100010.654000", "100010.657000", "100010.659000", "100010.662000", "100010.664000", "100010.667000", "100010.670000", "100010.673000", "100010.675000", "100010.678000", "100010.680000", "100010.683000", "100010.685000", "100050.637000", "100050.640000", "100050.648000", "100050.650000", "100050.653000", "100050.655000", "100050.658000", "100050.660000", "100050.663000", "100050.665000", "100050.668000", "100050.671000", "100050.673000", "100050.676000", "100050.678000", "100050.681000", "100050.684000", "100050.686000", "100050.689000", "100130.636000", "100130.639000", "100130.642000", "100130.644000", "100130.647000", "100130.649000", "100130.652000", "100130.654000", "100130.657000", "100130.659000", "100130.662000", "100130.664000", "100130.667000", "100130.670000", "100130.672000", "100130.675000", "100130.677000", "100130.680000", "100130.682000", "100130.685000", "100130.687000", "100154.661000", "100154.664000", "100154.667000", "100154.669000", "100154.672000", "100154.674000", "100154.677000", "100154.680000", "100154.682000", "100154.685000", "100154.688000", "100154.690000"],
      "InstanceCreationTime": ["095610.654000", "095610.657000", "095610.660000", "095610.662000", "095610.665000", "095610.668000", "095610.670000", "095610.673000", "095610.675000", "095610.678000", "095610.680000", "095610.683000", "095610.685000", "095610.688000", "095610.690000", "095610.693000", "095610.695000", "095610.698000", "095610.700000", "095610.703000", "095610.705000", "095610.708000", "095610.710000", "095610.713000", "095610.715000", "095610.718000", "095610.720000", "095610.723000", "095650.637000", "095650.640000", "095650.643000", "095650.645000", "095650.648000", "095650.650000", "095650.653000", "095650.655000", "095650.658000", "095650.660000", "095650.663000", "095650.665000", "095650.668000", "095650.670000", "095650.673000", "095650.676000", "095650.678000", "095650.681000", "095650.683000", "095650.686000", "095730.636000", "095730.639000", "095730.642000", "095730.644000", "095730.647000", "095730.649000", "095730.652000", "095730.654000", "095730.657000", "095730.659000", "095730.662000", "095730.664000", "095730.667000", "095730.669000", "095730.672000", "095730.675000", "095730.677000", "095730.680000", "095730.682000", "095730.685000", "095810.637000", "095810.639000", "095810.642000", "095810.644000", "095810.647000", "095810.649000", "095810.652000", "095810.654000", "095810.657000", "095810.659000", "095810.662000", "095810.664000", "095810.667000", "095810.670000", "095810.672000", "095810.675000", "095810.677000", "095810.680000", "095810.682000", "095810.685000", "095850.637000", "095850.640000", "095850.643000", "095850.645000", "095850.648000", "095850.650000", "095850.653000", "095850.655000", "095850.658000", "095850.660000", "095850.663000", "095850.665000", "095850.668000", "095850.671000", "095850.673000", "095850.676000", "095850.678000", "095850.681000", "095850.683000", "095850.686000", "095930.636000", "095930.639000", "095930.642000", "095930.644000", "095930.647000", "095930.649000", "095930.652000", "095930.654000", "095930.657000", "095930.659000", "095930.662000", "095930.664000", "095930.667000", "095930.670000", "095930.672000", "095930.675000", "095930.677000", "095930.680000", "095930.683000", "095930.685000", "100010.636000", "100010.639000", "100010.642000", "100010.644000", "100010.647000", "100010.649000", "100010.652000", "100010.654000", "100010.657000", "100010.659000", "100010.662000", "100010.664000", "100010.667000", "100010.670000", "100010.673000", "100010.675000", "100010.678000", "100010.680000", "100010.683000", "100010.685000", "100050.637000", "100050.640000", "100050.648000", "100050.650000", "100050.653000", "100050.655000", "100050.658000", "100050.660000", "100050.663000", "100050.665000", "100050.668000", "100050.671000", "100050.673000", "100050.676000", "100050.678000", "100050.681000", "100050.684000", "100050.686000", "100050.689000", "100130.636000", "100130.639000", "100130.642000", "100130.644000", "100130.647000", "100130.649000", "100130.652000", "100130.654000", "100130.657000", "100130.659000", "100130.662000", "100130.664000", "100130.667000", "100130.670000", "100130.672000", "100130.675000", "100130.677000", "100130.680000", "100130.682000", "100130.685000", "100130.687000", "100154.661000", "100154.664000", "100154.667000", "100154.669000", "100154.672000", "100154.674000", "100154.677000", "100154.680000", "100154.682000", "100154.685000", "100154.688000", "100154.690000"],
      "InstanceNumber": [1, 2, 3, 4, 5, 6, 7, 8, 9, 10, 11, 12, 13, 14, 15, 16, 17, 18, 19, 20, 21, 22, 23, 24, 25, 26, 27, 28, 29, 30, 31, 32, 33, 34, 35, 36, 37, 38, 39, 40, 41, 42, 43, 44, 45, 46, 47, 48, 49, 50, 51, 52, 53, 54, 55, 56, 57, 58, 59, 60, 61, 62, 63, 64, 65, 66, 67, 68, 69, 70, 71, 72, 73, 74, 75, 76, 77, 78, 79, 80, 81, 82, 83, 84, 85, 86, 87, 88, 89, 90, 91, 92, 93, 94, 95, 96, 97, 98, 99, 100, 101, 102, 103, 104, 105, 106, 107, 108, 109, 110, 111, 112, 113, 114, 115, 116, 117, 118, 119, 120, 121, 122, 123, 124, 125, 126, 127, 128, 129, 130, 131, 132, 133, 134, 135, 136, 137, 138, 139, 140, 141, 142, 143, 144, 145, 146, 147, 148, 149, 150, 151, 152, 153, 154, 155, 156, 157, 158, 159, 160, 161, 162, 163, 164, 165, 166, 167, 168, 169, 170, 171, 172, 173, 174, 175, 176, 177, 178, 179, 180, 181, 182, 183, 184, 185, 186, 187, 188, 189, 190, 191, 192, 193, 194, 195, 196, 197, 198, 199, 200],
      "LargestImagePixelValue": [3801, 3802, 3801, 3805, 3802, 3802, 3801, 3800, 3797, 3797, 3801, 3805, 3801, 3798, 3801, 3802, 3801, 3797, 3802, 3803, 3804, 3802, 3801, 3802, 3803, 3803, 3803, 3801, 3800, 3805, 3800, 3800, 3797, 3802, 3798, 3799, 3798, 3801, 3801, 3802, 3798, 3795, 3802, 3797, 3800, 3797, 3801, 3801, 3800, 3803, 3792, 3795, 3799, 3797, 3796, 3800, 3794, 3798, 3799, 3802, 3796, 3797, 3802, 3797, 3798, 3791, 3803, 3797, 3796, 3796, 3793, 3794, 3797, 3801, 3794, 3796, 3793, 3798, 3799, 3793, 3795, 3798, 3795, 3800, 3797, 3796, 3796, 3795, 3797, 3794, 3797, 3793, 3792, 3796, 3793, 3792, 3796, 3796, 3794, 3793, 3796, 3796, 3797, 3796, 3794, 3793, 3795, 3793, 3793, 3799, 3803, 3788, 3791, 3800, 3795, 3794, 3793, 3790, 3794, 3796, 3795, 3798, 3790, 3792, 3796, 3793, 3796, 3792, 3795, 3794, 3794, 3793, 3794, 3793, 3795, 3796, 3793, 3791, 3792, 3793, 3791, 3792, 3794, 3794, 3793, 3791, 3794, 3794, 3792, 3792, 3794, 3793, 3794, 3793, 3797, 3790, 3795, 3792, 3794, 3794, 3794, 3795, 3790, 3794, 3791, 3793, 3791, 3797, 3793, 3794, 3792, 3791, 3793, 3792, 3792, 3793, 3790, 3797, 3793, 3788, 3792, 3790, 3790, 3792, 3794, 3796, 3792, 3788, 3792, 3790, 3791, 3791, 3793, 3793, 3788, 3795, 3788, 3792, 3793, 3790],
      "WindowCenter": [1356.0, 1356.0, 1356.0, 1356.0, 1355.0, 1356.0, 1356.0, 1355.0, 1355.0, 1355.0, 1356.0, 1355.0, 1355.0, 1356.0, 1355.0, 1356.0, 1356.0, 1356.0, 1355.0, 1355.0, 1355.0, 1356.0, 1355.0, 1355.0, 1355.0, 1355.0, 1355.0, 1355.0, 1356.0, 1355.0, 1355.0, 1355.0, 1354.0, 1355.0, 1355.0, 1354.0, 1354.0, 1355.0, 1354.0, 1354.0, 1355.0, 1354.0, 1353.0, 1354.0, 1354.0, 1355.0, 1353.0, 1354.0, 1354.0, 1354.0, 1354.0, 1353.0, 1353.0, 1354.0, 1353.0, 1354.0, 1353.0, 1353.0, 1354.0, 1354.0, 1354.0, 1353.0, 1354.0, 1353.0, 1353.0, 1353.0, 1354.0, 1353.0, 1353.0, 1353.0, 1353.0, 1352.0, 1353.0, 1353.0, 1353.0, 1353.0, 1352.0, 1353.0, 1352.0, 1353.0, 1352.0, 1353.0, 1352.0, 1352.0, 1352.0, 1352.0, 1352.0, 1352.0, 1352.0, 1351.0, 1351.0, 1352.0, 1352.0, 1353.0, 1352.0, 1352.0, 1352.0, 1351.0, 1352.0, 1352.0, 1352.0, 1352.0, 1351.0, 1352.0, 1352.0, 1351.0, 1351.0, 1351.0, 1351.0, 1351.0, 1352.0, 1352.0, 1352.0, 1352.0, 1351.0, 1351.0, 1351.0, 1351.0, 1351.0, 1351.0, 1351.0, 1352.0, 1351.0, 1351.0, 1352.0, 1351.0, 1351.0, 1351.0, 1351.0, 1351.0, 1351.0, 1351.0, 1351.0, 1351.0, 1351.0, 1352.0, 1351.0, 1351.0, 1351.0, 1351.0, 1351.0, 1351.0, 1351.0, 1350.0, 1351.0, 1351.0, 1351.0, 1351.0, 1351.0, 1351.0, 1351.0, 1351.0, 1350.0, 1351.0, 1351.0, 1350.0, 1351.0, 1351.0, 1350.0, 1351.0, 1350.0, 1350.0, 1351.0, 1351.0, 1350.0, 1350.0, 1350.0, 1351.0, 1351.0, 1350.0, 1350.0, 1350.0, 1351.0, 1351.0, 1350.0, 1351.0, 1350.0, 1351.0, 1351.0, 1351.0, 1350.0, 1350.0, 1350.0, 1350.0, 1350.0, 1350.0, 1349.0, 1350.0, 1350.0, 1350.0, 1350.0, 1350.0, 1350.0, 1350.0, 1350.0, 1350.0, 1350.0, 1350.0, 1349.0, 1350.0],
      "WindowWidth": [3245.0, 3245.0, 3245.0, 3245.0, 3245.0, 3245.0, 3245.0, 3245.0, 3245.0, 3245.0, 3245.0, 3245.0, 3245.0, 3245.0, 3246.0, 3245.0, 3245.0, 3245.0, 3245.0, 3245.0, 3245.0, 3245.0, 3245.0, 3245.0, 3245.0, 3245.0, 3245.0, 3245.0, 3245.0, 3245.0, 3245.0, 3245.0, 3244.0, 3244.0, 3245.0, 3245.0, 3244.0, 3244.0, 3245.0, 3244.0, 3244.0, 3244.0, 3243.0, 3243.0, 3244.0, 3243.0, 3243.0, 3244.0, 3244.0, 3243.0, 3244.0, 3243.0, 3243.0, 3243.0, 3243.0, 3243.0, 3243.0, 3243.0, 3243.0, 3244.0, 3243.0, 3243.0, 3244.0, 3242.0, 3242.0, 3242.0, 3243.0, 3242.0, 3243.0, 3243.0, 3243.0, 3242.0, 3242.0, 3243.0, 3242.0, 3242.0, 3242.0, 3242.0, 3242.0, 3242.0, 3242.0, 3243.0, 3242.0, 3242.0, 3242.0, 3242.0, 3242.0, 3241.0, 3242.0, 3242.0, 3242.0, 3242.0, 3241.0, 3242.0, 3242.0, 3241.0, 3241.0, 3241.0, 3242.0, 3241.0, 3241.0, 3241.0, 3241.0, 3241.0, 3240.0, 3241.0, 3241.0, 3241.0, 3241.0, 3241.0, 3241.0, 3242.0, 3240.0, 3240.0, 3241.0, 3241.0, 3241.0, 3241.0, 3241.0, 3241.0, 3241.0, 3240.0, 3241.0, 3241.0, 3241.0, 3241.0, 3241.0, 3241.0, 3241.0, 3241.0, 3241.0, 3241.0, 3241.0, 3241.0, 3241.0, 3241.0, 3241.0, 3241.0, 3241.0, 3241.0, 3241.0, 3241.0, 3240.0, 3241.0, 3241.0, 3240.0, 3240.0, 3240.0, 3241.0, 3241.0, 3241.0, 3241.0, 3241.0, 3241.0, 3240.0, 3240.0, 3240.0, 3240.0, 3240.0, 3240.0, 3240.0, 3240.0, 3240.0, 3240.0, 3240.0, 3240.0, 3240.0, 3240.0, 3241.0, 3240.0, 3240.0, 3240.0, 3240.0, 3239.0, 3240.0, 3239.0, 3240.0, 3239.0, 3239.0, 3239.0, 3239.0, 3239.0, 3239.0, 3239.0, 3240.0, 3239.0, 3240.0, 3239.0, 3239.0, 3240.0, 3239.0, 3239.0, 3240.0, 3239.0, 3239.0, 3239.0, 3239.0, 3239.0, 3239.0, 3239.0]
    },
    "slices": {}
  }
}