{
  "AcquisitionMatrixPE": 80,
  "AcquisitionNumber": 1,
  "AcquisitionTime": "09:23:48.565000",
  "BandwidthPerPixelPhaseEncode": 25,
  "BaseResolution": 80,
  "BodyPartExamined": "BRAIN",
  "CoilCombinationMethod": "Sum of Squares",
  "ConsistencyInfo": "N4_VE11C_LATEST_20160120",
  "ConversionSoftware": "dcm2niix",
  "ConversionSoftwareVersion": "v1.0.20220720",
  "DerivedVendorReportedEchoSpacing": 0.0005,
  "DeviceSerialNumber": "66112",
  "DwellTime": 2.7e-06,
  "EchoTime": 0.03,
  "EchoTrainLength": 80,
  "EffectiveEchoSpacing": 0.0005,
  "FlipAngle": 77,
  "HeudiconvVersion": "0.13.1",
  "ImageOrientationPatientDICOM": [0.996799, -0.0714925, -0.035797, 0.0793251, 0.940338, 0.330866],
  "ImageOrientationText": "Tra>Cor(19.4)>Sag(-0.6)",
  "ImageType": [
    "ORIGINAL",
    "PRIMARY",
    "M",
    "ND",
    "NORM",
    "MOSAIC"
],
  "ImagingFrequency": 123.252,
  "InPlanePhaseEncodingDirectionDICOM": "COL",
  "InstitutionAddress": "Maynard 3,Hanover,NH,US,03755",
  "InstitutionName": "Dartmouth College - PBS",
  "InstitutionalDepartmentName": "Department",
  "MRAcquisitionType": "2D",
  "MagneticFieldStrength": 3,
  "Manufacturer": "Siemens",
  "ManufacturersModelName": "Prisma",
  "MatrixCoilMode": "SENSE",
  "Modality": "MR",
  "NonlinearGradientCorrection": false,
  "PartialFourier": 1,
  "PatientPosition": "HFS",
  "PercentPhaseFOV": 100,
  "PercentSampling": 100,
  "PhaseEncodingDirection": "j-",
  "PhaseEncodingSteps": 80,
  "PhaseResolution": 1,
  "PixelBandwidth": 2315,
  "ProcedureStepDescription": "dbic^QA",
  "ProtocolName": "func-bold_fa-77",
  "PulseSequenceDetails": "%SiemensSeq%\\ep2d_bold",
  "ReceiveCoilActiveElements": "HC1-7;NC1,2",
  "ReceiveCoilName": "HeadNeck_64",
  "ReconMatrixPE": 80,
  "RepetitionTime": 2,
  "SAR": 0.0281774,
  "ScanOptions": "FS",
  "ScanningSequence": "EP",
  "SequenceName": "*epfid2d1_80",
  "SequenceVariant": "SK",
  "SeriesDescription": "func-bold_fa-77",
  "SeriesNumber": 7,
  "ShimSetting": [4143, -7676, -7498, 167, -76, -328, -67, 88],
  "SliceThickness": 3.5,
  "SliceTiming": [0.99, 0, 1.0575, 0.0675, 1.1225, 0.1325, 1.1875, 0.1975, 1.255, 0.265, 1.32, 0.33, 1.3875, 0.3975, 1.4525, 0.4625, 1.5175, 0.5275, 1.585, 0.595, 1.65, 0.66, 1.7175, 0.7275, 1.7825, 0.7925, 1.8475, 0.8575, 1.915, 0.925],
  "SoftwareVersions": "syngo MR E11",
  "SpacingBetweenSlices": 3.99,
  "StationName": "AWP66112",
  "TotalReadoutTime": 0.0395,
  "TxRefAmp": 217.429,
  "dcmmeta_affine": [
    [-2.9903957843780518, 0.23797528445720673, -0.03992724046111107, 112.16139221191406],
    [0.21447762846946716, 2.821013927459717, 1.3272576332092285, -126.13837432861328],
    [-0.10739093273878098, -0.9925970435142517, 3.7625646591186523, -34.83477020263672],
    [0.0, 0.0, 0.0, 1.0]
],
  "dcmmeta_reorient_transform": [
    [0.0, -1.0, 0.0, 79.0],
    [1.0, 0.0, 0.0, 0.0],
    [0.0, 0.0, 1.0, 0.0],
    [0.0, 0.0, 0.0, 1.0]
],
  "dcmmeta_shape": [80, 80, 30, 200],
  "dcmmeta_slice_dim": 2,
  "dcmmeta_version": 0.6,
  "global": {
    "const": {
      "AccessionNumber": "qa64",
      "AcquisitionMatrix": [80, 0, 0, 80],
      "AngioFlag": "N",
      "BitsAllocated": 16,
      "BitsStored": 12,
      "BodyPartExamined": "BRAIN",
      "Columns": 480,
      "EchoNumbers": 1,
      "EchoTime": 30.0,
      "EchoTrainLength": 80,
      "FlipAngle": 77.0,
      "HighBit": 11,
      "ImageOrientationPatient": [0.99679857164128, -0.0714925448868, -0.0357969775194, 0.07932509682452, 0.94033793702976, 0.33086567243579],
      "ImagePositionPatient": [-776.63564482721, -618.02895179407, -290.2911504033],
      "ImageType": [
        "ORIGINAL",
        "PRIMARY",
        "M",
        "ND",
        "NORM",
        "MOSAIC"
],
      "ImagedNucleus": "1H",
      "ImagingFrequency": 123.252472,
      "InPlanePhaseEncodingDirection": "COL",
      "MRAcquisitionType": "2D",
      "MagneticFieldStrength": 3.0,
      "Manufacturer": "SIEMENS",
      "ManufacturerModelName": "Prisma",
      "Modality": "MR",
      "NumberOfAverages": 1.0,
      "NumberOfPhaseEncodingSteps": 80,
      "PercentPhaseFieldOfView": 100.0,
      "PercentSampling": 100.0,
      "PerformedProcedureStepStartTime": "091520.256000",
      "PhotometricInterpretation": "MONOCHROME2",
      "PixelBandwidth": 2315.0,
      "PixelRepresentation": 0,
      "PixelSpacing": [3.0, 3.0],
      "ProtocolName": "func-bold_fa-77",
      "RepetitionTime": 2000.0,
      "Rows": 480,
      "SAR": 0.0281774088609,
      "SamplesPerPixel": 1,
      "ScanOptions": "FS",
      "ScanningSequence": "EP",
      "SequenceName": "*epfid2d1_80",
      "SequenceVariant": "SK",
      "SeriesDescription": "func-bold_fa-77",
      "SeriesNumber": 7,
      "SeriesTime": "092432.341000",
      "SliceLocation": -75.930949780884,
      "SliceThickness": 3.5,
      "SmallestImagePixelValue": 0,
      "SoftwareVersions": "syngo MR E11",
      "SpacingBetweenSlices": 3.990000071136,
      "SpecificCharacterSet": "ISO_IR 100",
      "StudyID": "8",
      "StudyTime": "091520.170000",
      "TransmitCoilName": "Body",
      "VariableFlipAngleFlag": "N",
      "WindowCenterWidthExplanation": "Algo1",
      "dBdt": 0.0},
    "slices": {}
  },
  "time": {
    "samples": {
      "AcquisitionNumber": [1, 2, 3, 4, 5, 6, 7, 8, 9, 10, 11, 12, 13, 14, 15, 16, 17, 18, 19, 20, 21, 22, 23, 24, 25, 26, 27, 28, 29, 30, 31, 32, 33, 34, 35, 36, 37, 38, 39, 40, 41, 42, 43, 44, 45, 46, 47, 48, 49, 50, 51, 52, 53, 54, 55, 56, 57, 58, 59, 60, 61, 62, 63, 64, 65, 66, 67, 68, 69, 70, 71, 72, 73, 74, 75, 76, 77, 78, 79, 80, 81, 82, 83, 84, 85, 86, 87, 88, 89, 90, 91, 92, 93, 94, 95, 96, 97, 98, 99, 100, 101, 102, 103, 104, 105, 106, 107, 108, 109, 110, 111, 112, 113, 114, 115, 116, 117, 118, 119, 120, 121, 122, 123, 124, 125, 126, 127, 128, 129, 130, 131, 132, 133, 134, 135, 136, 137, 138, 139, 140, 141, 142, 143, 144, 145, 146, 147, 148, 149, 150, 151, 152, 153, 154, 155, 156, 157, 158, 159, 160, 161, 162, 163, 164, 165, 166, 167, 168, 169, 170, 171, 172, 173, 174, 175, 176, 177, 178, 179, 180, 181, 182, 183, 184, 185, 186, 187, 188, 189, 190, 191, 192, 193, 194, 195, 196, 197, 198, 199, 200],
      "AcquisitionTime": ["092348.565000", "092350.565000", "092352.565000", "092354.565000", "092356.565000", "092358.565000", "092400.565000", "092402.565000", "092404.565000", "092406.565000", "092408.565000", "092410.565000", "092412.565000", "092414.565000", "092416.565000", "092418.565000", "092420.565000", "092422.565000", "092424.565000", "092426.565000", "092428.565000", "092430.565000", "092432.565000", "092434.565000", "092436.565000", "092438.565000", "092440.565000", "092442.565000", "092444.565000", "092446.565000", "092448.565000", "092450.565000", "092452.565000", "092454.565000", "092456.565000", "092458.565000", "092500.565000", "092502.565000", "092504.565000", "092506.565000", "092508.565000", "092510.565000", "092512.565000", "092514.565000", "092516.565000", "092518.565000", "092520.565000", "092522.565000", "092524.565000", "092526.565000", "092528.565000", "092530.565000", "092532.565000", "092534.565000", "092536.565000", "092538.565000", "092540.565000", "092542.565000", "092544.565000", "092546.565000", "092548.565000", "092550.565000", "092552.565000", "092554.565000", "092556.565000", "092558.565000", "092600.565000", "092602.565000", "092604.565000", "092606.565000", "092608.565000", "092610.565000", "092612.565000", "092614.565000", "092616.565000", "092618.565000", "092620.565000", "092622.565000", "092624.565000", "092626.565000", "092628.565000", "092630.565000", "092632.565000", "092634.565000", "092636.565000", "092638.565000", "092640.565000", "092642.565000", "092644.565000", "092646.565000", "092648.565000", "092650.565000", "092652.565000", "092654.565000", "092656.565000", "092658.565000", "092700.565000", "092702.565000", "092704.565000", "092706.565000", "092708.565000", "092710.565000", "092712.565000", "092714.565000", "092716.565000", "092718.565000", "092720.565000", "092722.565000", "092724.565000", "092726.565000", "092728.565000", "092730.565000", "092732.565000", "092734.565000", "092736.565000", "092738.565000", "092740.565000", "092742.565000", "092744.565000", "092746.565000", "092748.565000", "092750.565000", "092752.565000", "092754.565000", "092756.565000", "092758.565000", "092800.565000", "092802.565000", "092804.565000", "092806.565000", "092808.565000", "092810.565000", "092812.565000", "092814.565000", "092816.565000", "092818.565000", "092820.565000", "092822.565000", "092824.565000", "092826.565000", "092828.565000", "092830.565000", "092832.565000", "092834.565000", "092836.565000", "092838.565000", "092840.565000", "092842.565000", "092844.565000", "092846.565000", "092848.565000", "092850.565000", "092852.565000", "092854.565000", "092856.565000", "092858.565000", "092900.565000", "092902.565000", "092904.565000", "092906.565000", "092908.565000", "092910.565000", "092912.565000", "092914.565000", "092916.565000", "092918.565000", "092920.565000", "092922.565000", "092924.565000", "092926.565000", "092928.565000", "092930.565000", "092932.565000", "092934.565000", "092936.565000", "092938.565000", "092940.565000", "092942.565000", "092944.565000", "092946.565000", "092948.565000", "092950.565000", "092952.565000", "092954.565000", "092956.565000", "092958.565000", "093000.565000", "093002.565000", "093004.565000", "093006.565000", "093008.565000", "093010.565000", "093012.565000", "093014.565000", "093016.565000", "093018.565000", "093020.565000", "093022.565000", "093024.565000", "093026.565000"],
      "ContentTime": ["092432.345000", "092432.348000", "092432.351000", "092432.353000", "092432.356000", "092432.358000", "092432.361000", "092432.363000", "092432.366000", "092432.368000", "092432.371000", "092432.373000", "092432.380000", "092432.383000", "092432.385000", "092432.387000", "092432.390000", "092432.392000", "092432.395000", "092432.397000", "092432.400000", "092432.402000", "092512.340000", "092512.343000", "092512.345000", "092512.348000", "092512.350000", "092512.353000", "092512.355000", "092512.358000", "092512.360000", "092512.363000", "092512.365000", "092512.368000", "092512.370000", "092512.373000", "092512.375000", "092512.378000", "092512.380000", "092512.383000", "092512.385000", "092512.388000", "092552.338000", "092552.341000", "092552.344000", "092552.346000", "092552.349000", "092552.351000", "092552.354000", "092552.356000", "092552.359000", "092552.361000", "092552.364000", "092552.366000", "092552.369000", "092552.371000", "092552.373000", "092552.376000", "092552.378000", "092552.381000", "092552.383000", "092552.386000", "092612.338000", "092612.341000", "092612.344000", "092612.346000", "092612.349000", "092612.351000", "092612.354000", "092612.356000", "092612.359000", "092612.361000", "092652.339000", "092652.342000", "092652.345000", "092652.347000", "092652.350000", "092652.352000", "092652.355000", "092652.357000", "092652.359000", "092652.362000", "092652.364000", "092652.367000", "092652.369000", "092652.372000", "092652.374000", "092652.377000", "092652.379000", "092652.382000", "092652.384000", "092652.387000", "092732.339000", "092732.342000", "092732.345000", "092732.355000", "092732.358000", "092732.361000", "092732.363000", "092732.366000", "092732.368000", "092732.371000", "092732.373000", "092732.375000", "092732.378000", "092732.380000", "092732.383000", "092732.385000", "092732.388000", "092732.390000", "092732.393000", "092732.395000", "092812.338000", "092812.341000", "092812.344000", "092812.346000", "092812.349000", "092812.351000", "092812.354000", "092812.356000", "092812.359000", "092812.362000", "092812.364000", "092812.367000", "092812.369000", "092812.372000", "092812.374000", "092812.376000", "092812.379000", "092812.381000", "092812.384000", "092812.386000", "092852.339000", "092852.342000", "092852.345000", "092852.347000", "092852.350000", "092852.352000", "092852.354000", "092852.357000", "092852.359000", "092852.362000", "092852.364000", "092852.367000", "092852.369000", "092852.372000", "092852.374000", "092852.377000", "092852.379000", "092852.382000", "092852.384000", "092852.387000", "092932.339000", "092932.342000", "092932.345000", "092932.347000", "092932.350000", "092932.352000", "092932.355000", "092932.357000", "092932.360000", "092932.362000", "092932.365000", "092932.367000", "092932.370000", "092932.372000", "092932.375000", "092932.377000", "092932.380000", "092932.382000", "092932.385000", "092932.387000", "093012.338000", "093012.341000", "093012.344000", "093012.346000", "093012.349000", "093012.351000", "093012.354000", "093012.356000", "093012.359000", "093012.361000", "093012.364000", "093012.366000", "093012.369000", "093012.371000", "093012.374000", "093012.376000", "093012.379000", "093012.381000", "093012.384000", "093012.386000", "093027.982000", "093027.985000", "093027.987000", "093027.990000", "093027.992000", "093027.995000", "093027.998000", "093028.001000"],
      "InstanceCreationTime": ["092432.345000", "092432.348000", "092432.351000", "092432.353000", "092432.356000", "092432.358000", "092432.361000", "092432.363000", "092432.366000", "092432.368000", "092432.371000", "092432.373000", "092432.380000", "092432.383000", "092432.385000", "092432.387000", "092432.390000", "092432.392000", "092432.395000", "092432.397000", "092432.400000", "092432.402000", "092512.340000", "092512.343000", "092512.345000", "092512.348000", "092512.350000", "092512.353000", "092512.355000", "092512.358000", "092512.360000", "092512.363000", "092512.365000", "092512.368000", "092512.370000", "092512.373000", "092512.375000", "092512.378000", "092512.380000", "092512.383000", "092512.385000", "092512.388000", "092552.338000", "092552.341000", "092552.344000", "092552.346000", "092552.349000", "092552.351000", "092552.354000", "092552.356000", "092552.359000", "092552.361000", "092552.364000", "092552.366000", "092552.369000", "092552.371000", "092552.373000", "092552.376000", "092552.378000", "092552.381000", "092552.383000", "092552.386000", "092612.338000", "092612.341000", "092612.344000", "092612.346000", "092612.349000", "092612.351000", "092612.354000", "092612.356000", "092612.359000", "092612.361000", "092652.339000", "092652.342000", "092652.345000", "092652.347000", "092652.350000", "092652.352000", "092652.355000", "092652.357000", "092652.359000", "092652.362000", "092652.364000", "092652.367000", "092652.369000", "092652.372000", "092652.374000", "092652.377000", "092652.379000", "092652.382000", "092652.384000", "092652.387000", "092732.339000", "092732.342000", "092732.345000", "092732.355000", "092732.358000", "092732.361000", "092732.363000", "092732.366000", "092732.368000", "092732.371000", "092732.373000", "092732.375000", "092732.378000", "092732.380000", "092732.383000", "092732.385000", "092732.388000", "092732.390000", "092732.393000", "092732.395000", "092812.338000", "092812.341000", "092812.344000", "092812.346000", "092812.349000", "092812.351000", "092812.354000", "092812.356000", "092812.359000", "092812.362000", "092812.364000", "092812.367000", "092812.369000", "092812.372000", "092812.374000", "092812.376000", "092812.379000", "092812.381000", "092812.384000", "092812.386000", "092852.339000", "092852.342000", "092852.345000", "092852.347000", "092852.350000", "092852.352000", "092852.354000", "092852.357000", "092852.359000", "092852.362000", "092852.364000", "092852.367000", "092852.369000", "092852.372000", "092852.374000", "092852.377000", "092852.379000", "092852.382000", "092852.384000", "092852.387000", "092932.339000", "092932.342000", "092932.345000", "092932.347000", "092932.350000", "092932.352000", "092932.355000", "092932.357000", "092932.360000", "092932.362000", "092932.365000", "092932.367000", "092932.370000", "092932.372000", "092932.375000", "092932.377000", "092932.380000", "092932.382000", "092932.385000", "092932.387000", "093012.338000", "093012.341000", "093012.344000", "093012.346000", "093012.349000", "093012.351000", "093012.354000", "093012.356000", "093012.359000", "093012.361000", "093012.364000", "093012.366000", "093012.369000", "093012.371000", "093012.374000", "093012.376000", "093012.379000", "093012.381000", "093012.384000", "093012.386000", "093027.982000", "093027.985000", "093027.987000", "093027.990000", "093027.992000", "093027.995000", "093027.998000", "093028.001000"],
      "InstanceNumber": [1, 2, 3, 4, 5, 6, 7, 8, 9, 10, 11, 12, 13, 14, 15, 16, 17, 18, 19, 20, 21, 22, 23, 24, 25, 26, 27, 28, 29, 30, 31, 32, 33, 34, 35, 36, 37, 38, 39, 40, 41, 42, 43, 44, 45, 46, 47, 48, 49, 50, 51, 52, 53, 54, 55, 56, 57, 58, 59, 60, 61, 62, 63, 64, 65, 66, 67, 68, 69, 70, 71, 72, 73, 74, 75, 76, 77, 78, 79, 80, 81, 82, 83, 84, 85, 86, 87, 88, 89, 90, 91, 92, 93, 94, 95, 96, 97, 98, 99, 100, 101, 102, 103, 104, 105, 106, 107, 108, 109, 110, 111, 112, 113, 114, 115, 116, 117, 118, 119, 120, 121, 122, 123, 124, 125, 126, 127, 128, 129, 130, 131, 132, 133, 134, 135, 136, 137, 138, 139, 140, 141, 142, 143, 144, 145, 146, 147, 148, 149, 150, 151, 152, 153, 154, 155, 156, 157, 158, 159, 160, 161, 162, 163, 164, 165, 166, 167, 168, 169, 170, 171, 172, 173, 174, 175, 176, 177, 178, 179, 180, 181, 182, 183, 184, 185, 186, 187, 188, 189, 190, 191, 192, 193, 194, 195, 196, 197, 198, 199, 200],
      "LargestImagePixelValue": [3678, 3678, 3681, 3676, 3679, 3680, 3679, 3681, 3679, 3676, 3681, 3683, 3676, 3683, 3677, 3687, 3680, 3680, 3677, 3680, 3675, 3679, 3680, 3678, 3679, 3674, 3680, 3676, 3682, 3673, 3677, 3680, 3679, 3678, 3676, 3677, 3678, 3675, 3681, 3679, 3678, 3681, 3680, 3674, 3678, 3679, 3680, 3675, 3676, 3675, 3679, 3676, 3680, 3678, 3675, 3675, 3676, 3677, 3674, 3682, 3676, 3674, 3672, 3677, 3673, 3677, 3678, 3673, 3677, 3673, 3669, 3677, 3673, 3674, 3674, 3678, 3672, 3680, 3677, 3676, 3678, 3677, 3675, 3675, 3675, 3676, 3675, 3677, 3674, 3679, 3677, 3680, 3677, 3677, 3677, 3673, 3675, 3674, 3678, 3675, 3677, 3673, 3675, 3679, 3672, 3676, 3677, 3673, 3674, 3675, 3675, 3674, 3673, 3672, 3677, 3672, 3678, 3673, 3673, 3674, 3671, 3675, 3677, 3674, 3672, 3676, 3671, 3670, 3674, 3674, 3673, 3675, 3670, 3674, 3675, 3674, 3672, 3670, 3671, 3673, 3675, 3672, 3673, 3672, 3676, 3676, 3672, 3671, 3671, 3672, 3674, 3674, 3667, 3672, 3672, 3670, 3671, 3673, 3672, 3669, 3670, 3670, 3671, 3673, 3673, 3671, 3672, 3671, 3669, 3672, 3670, 3670, 3669, 3670, 3669, 3671, 3675, 3669, 3670, 3669, 3669, 3671, 3672, 3671, 3677, 3669, 3669, 3673, 3670, 3671, 3669, 3667, 3670, 3670, 3674, 3672, 3671, 3671, 3673, 3665],
      "WindowCenter": [1376.0, 1376.0, 1375.0, 1376.0, 1375.0, 1376.0, 1375.0, 1376.0, 1375.0, 1375.0, 1375.0, 1375.0, 1375.0, 1375.0, 1375.0, 1375.0, 1375.0, 1375.0, 1375.0, 1375.0, 1375.0, 1374.0, 1375.0, 1375.0, 1375.0, 1374.0, 1374.0, 1374.0, 1375.0, 1375.0, 1375.0, 1375.0, 1375.0, 1374.0, 1374.0, 1374.0, 1375.0, 1375.0, 1374.0, 1375.0, 1374.0, 1375.0, 1374.0, 1374.0, 1375.0, 1374.0, 1374.0, 1374.0, 1374.0, 1374.0, 1374.0, 1374.0, 1374.0, 1374.0, 1374.0, 1374.0, 1374.0, 1374.0, 1373.0, 1374.0, 1374.0, 1374.0, 1374.0, 1374.0, 1374.0, 1373.0, 1374.0, 1373.0, 1373.0, 1374.0, 1374.0, 1374.0, 1374.0, 1374.0, 1373.0, 1373.0, 1374.0, 1373.0, 1373.0, 1374.0, 1374.0, 1373.0, 1373.0, 1373.0, 1373.0, 1373.0, 1373.0, 1373.0, 1373.0, 1373.0, 1373.0, 1373.0, 1372.0, 1373.0, 1373.0, 1374.0, 1373.0, 1373.0, 1373.0, 1373.0, 1373.0, 1372.0, 1373.0, 1373.0, 1374.0, 1373.0, 1373.0, 1373.0, 1372.0, 1373.0, 1373.0, 1373.0, 1373.0, 1373.0, 1372.0, 1372.0, 1372.0, 1373.0, 1373.0, 1373.0, 1373.0, 1373.0, 1373.0, 1373.0, 1373.0, 1372.0, 1372.0, 1372.0, 1372.0, 1372.0, 1372.0, 1373.0, 1372.0, 1372.0, 1372.0, 1372.0, 1372.0, 1372.0, 1371.0, 1372.0, 1371.0, 1372.0, 1372.0, 1372.0, 1372.0, 1372.0, 1372.0, 1372.0, 1371.0, 1372.0, 1372.0, 1371.0, 1372.0, 1371.0, 1372.0, 1372.0, 1372.0, 1371.0, 1372.0, 1372.0, 1371.0, 1371.0, 1371.0, 1371.0, 1371.0, 1371.0, 1371.0, 1371.0, 1371.0, 1372.0, 1371.0, 1372.0, 1371.0, 1371.0, 1371.0, 1371.0, 1371.0, 1371.0, 1371.0, 1370.0, 1371.0, 1371.0, 1371.0, 1371.0, 1371.0, 1371.0, 1371.0, 1371.0, 1371.0, 1371.0, 1371.0, 1371.0, 1371.0, 1371.0, 1371.0, 1371.0, 1371.0, 1370.0, 1371.0, 1371.0],
      "WindowWidth": [3286.0, 3286.0, 3287.0, 3286.0, 3286.0, 3286.0, 3286.0, 3285.0, 3286.0, 3286.0, 3286.0, 3286.0, 3286.0, 3286.0, 3286.0, 3286.0, 3286.0, 3286.0, 3286.0, 3285.0, 3286.0, 3286.0, 3285.0, 3286.0, 3286.0, 3285.0, 3285.0, 3286.0, 3286.0, 3286.0, 3286.0, 3285.0, 3286.0, 3286.0, 3286.0, 3286.0, 3285.0, 3285.0, 3285.0, 3285.0, 3285.0, 3285.0, 3286.0, 3285.0, 3285.0, 3285.0, 3285.0, 3285.0, 3285.0, 3285.0, 3285.0, 3285.0, 3285.0, 3285.0, 3285.0, 3285.0, 3285.0, 3285.0, 3285.0, 3284.0, 3285.0, 3285.0, 3285.0, 3285.0, 3285.0, 3285.0, 3285.0, 3285.0, 3284.0, 3284.0, 3284.0, 3284.0, 3284.0, 3284.0, 3285.0, 3285.0, 3284.0, 3284.0, 3284.0, 3284.0, 3284.0, 3284.0, 3284.0, 3284.0, 3284.0, 3284.0, 3284.0, 3284.0, 3284.0, 3284.0, 3283.0, 3284.0, 3284.0, 3284.0, 3283.0, 3283.0, 3284.0, 3284.0, 3284.0, 3284.0, 3283.0, 3284.0, 3283.0, 3284.0, 3283.0, 3284.0, 3284.0, 3283.0, 3284.0, 3284.0, 3283.0, 3283.0, 3283.0, 3283.0, 3283.0, 3284.0, 3284.0, 3283.0, 3283.0, 3283.0, 3283.0, 3283.0, 3283.0, 3283.0, 3283.0, 3283.0, 3283.0, 3283.0, 3283.0, 3283.0, 3282.0, 3282.0, 3283.0, 3283.0, 3283.0, 3282.0, 3283.0, 3282.0, 3283.0, 3283.0, 3283.0, 3282.0, 3282.0, 3282.0, 3282.0, 3282.0, 3283.0, 3283.0, 3283.0, 3283.0, 3282.0, 3283.0, 3282.0, 3282.0, 3282.0, 3282.0, 3282.0, 3282.0, 3282.0, 3282.0, 3282.0, 3282.0, 3282.0, 3282.0, 3282.0, 3282.0, 3282.0, 3282.0, 3282.0, 3282.0, 3282.0, 3281.0, 3282.0, 3282.0, 3281.0, 3281.0, 3281.0, 3281.0, 3281.0, 3282.0, 3281.0, 3281.0, 3281.0, 3281.0, 3281.0, 3281.0, 3281.0, 3281.0, 3281.0, 3282.0, 3281.0, 3281.0, 3281.0, 3281.0, 3281.0, 3281.0, 3281.0, 3282.0, 3281.0, 3281.0]
    },
    "slices": {}
  }
}