{
  "AcquisitionMatrixPE": 80,
  "AcquisitionNumber": 1,
  "AcquisitionTime": "09:30:34.560000",
  "BandwidthPerPixelPhaseEncode": 25,
  "BaseResolution": 80,
  "BodyPartExamined": "BRAIN",
  "CoilCombinationMethod": "Sum of Squares",
  "ConsistencyInfo": "N4_VE11C_LATEST_20160120",
  "ConversionSoftware": "dcm2niix",
  "ConversionSoftwareVersion": "v1.0.20220720",
  "DerivedVendorReportedEchoSpacing": 0.0005,
  "DeviceSerialNumber": "66112",
  "DwellTime": 2.7e-06,
  "EchoTime": 0.03,
  "EchoTrainLength": 80,
  "EffectiveEchoSpacing": 0.0005,
  "FlipAngle": 10,
  "HeudiconvVersion": "0.13.1",
  "ImageOrientationPatientDICOM": [0.996799, -0.0714925, -0.035797, 0.0793251, 0.940338, 0.330866],
  "ImageOrientationText": "Tra>Cor(19.4)>Sag(-0.6)",
  "ImageType": [
    "ORIGINAL",
    "PRIMARY",
    "M",
    "ND",
    "NORM",
    "MOSAIC"
],
  "ImagingFrequency": 123.252,
  "InPlanePhaseEncodingDirectionDICOM": "COL",
  "InstitutionAddress": "Maynard 3,Hanover,NH,US,03755",
  "InstitutionName": "Dartmouth College - PBS",
  "InstitutionalDepartmentName": "Department",
  "MRAcquisitionType": "2D",
  "MagneticFieldStrength": 3,
  "Manufacturer": "Siemens",
  "ManufacturersModelName": "Prisma",
  "MatrixCoilMode": "SENSE",
  "Modality": "MR",
  "NonlinearGradientCorrection": false,
  "PartialFourier": 1,
  "PatientPosition": "HFS",
  "PercentPhaseFOV": 100,
  "PercentSampling": 100,
  "PhaseEncodingDirection": "j-",
  "PhaseEncodingSteps": 80,
  "PhaseResolution": 1,
  "PixelBandwidth": 2315,
  "ProcedureStepDescription": "dbic^QA",
  "ProtocolName": "func-bold_fa-10",
  "PulseSequenceDetails": "%SiemensSeq%\\ep2d_bold",
  "ReceiveCoilActiveElements": "HC1-7;NC1,2",
  "ReceiveCoilName": "HeadNeck_64",
  "ReconMatrixPE": 80,
  "RepetitionTime": 2,
  "SAR": 0.00755857,
  "ScanOptions": "FS",
  "ScanningSequence": "EP",
  "SequenceName": "*epfid2d1_80",
  "SequenceVariant": "SK",
  "SeriesDescription": "func-bold_fa-10",
  "SeriesNumber": 9,
  "ShimSetting": [4143, -7676, -7498, 167, -76, -328, -67, 88],
  "SliceThickness": 3.5,
  "SliceTiming": [0.99, 0, 1.055, 0.065, 1.1225, 0.1325, 1.1875, 0.1975, 1.2525, 0.2625, 1.32, 0.33, 1.385, 0.395, 1.4525, 0.4625, 1.5175, 0.5275, 1.5825, 0.5925, 1.65, 0.66, 1.715, 0.725, 1.7825, 0.7925, 1.8475, 0.8575, 1.9125, 0.9225],
  "SoftwareVersions": "syngo MR E11",
  "SpacingBetweenSlices": 3.99,
  "StationName": "AWP66112",
  "TotalReadoutTime": 0.0395,
  "TxRefAmp": 217.429,
  "dcmmeta_affine": [
    [-2.9903957843780518, 0.23797528445720673, -0.03992724046111107, 112.16139221191406],
    [0.21447762846946716, 2.821013927459717, 1.3272576332092285, -126.13837432861328],
    [-0.10739093273878098, -0.9925970435142517, 3.7625646591186523, -34.83477020263672],
    [0.0, 0.0, 0.0, 1.0]
],
  "dcmmeta_reorient_transform": [
    [0.0, -1.0, 0.0, 79.0],
    [1.0, 0.0, 0.0, 0.0],
    [0.0, 0.0, 1.0, 0.0],
    [0.0, 0.0, 0.0, 1.0]
],
  "dcmmeta_shape": [80, 80, 30, 200],
  "dcmmeta_slice_dim": 2,
  "dcmmeta_version": 0.6,
  "global": {
    "const": {
      "AccessionNumber": "qa64",
      "AcquisitionMatrix": [80, 0, 0, 80],
      "AngioFlag": "N",
      "BitsAllocated": 16,
      "BitsStored": 12,
      "BodyPartExamined": "BRAIN",
      "Columns": 480,
      "EchoNumbers": 1,
      "EchoTime": 30.0,
      "EchoTrainLength": 80,
      "FlipAngle": 10.0,
      "HighBit": 11,
      "ImageOrientationPatient": [0.99679857164128, -0.0714925448868, -0.0357969775194, 0.07932509682452, 0.94033793702976, 0.33086567243579],
      "ImagePositionPatient": [-776.63564482721, -618.02895179407, -290.2911504033],
      "ImageType": [
        "ORIGINAL",
        "PRIMARY",
        "M",
        "ND",
        "NORM",
        "MOSAIC"
],
      "ImagedNucleus": "1H",
      "ImagingFrequency": 123.252479,
      "InPlanePhaseEncodingDirection": "COL",
      "MRAcquisitionType": "2D",
      "MagneticFieldStrength": 3.0,
      "Manufacturer": "SIEMENS",
      "ManufacturerModelName": "Prisma",
      "Modality": "MR",
      "NumberOfAverages": 1.0,
      "NumberOfPhaseEncodingSteps": 80,
      "PercentPhaseFieldOfView": 100.0,
      "PercentSampling": 100.0,
      "PerformedProcedureStepStartTime": "091520.256000",
      "PhotometricInterpretation": "MONOCHROME2",
      "PixelBandwidth": 2315.0,
      "PixelRepresentation": 0,
      "PixelSpacing": [3.0, 3.0],
      "ProtocolName": "func-bold_fa-10",
      "RepetitionTime": 2000.0,
      "Rows": 480,
      "SAR": 0.00755856500166,
      "SamplesPerPixel": 1,
      "ScanOptions": "FS",
      "ScanningSequence": "EP",
      "SequenceName": "*epfid2d1_80",
      "SequenceVariant": "SK",
      "SeriesDescription": "func-bold_fa-10",
      "SeriesNumber": 9,
      "SeriesTime": "093132.200000",
      "SliceLocation": -75.930949780884,
      "SliceThickness": 3.5,
      "SmallestImagePixelValue": 0,
      "SoftwareVersions": "syngo MR E11",
      "SpacingBetweenSlices": 3.990000071136,
      "SpecificCharacterSet": "ISO_IR 100",
      "StudyID": "8",
      "StudyTime": "091520.170000",
      "TransmitCoilName": "Body",
      "VariableFlipAngleFlag": "N",
      "WindowCenterWidthExplanation": "Algo1",
      "dBdt": 0.0},
    "slices": {}
  },
  "time": {
    "samples": {
      "AcquisitionNumber": [1, 2, 3, 4, 5, 6, 7, 8, 9, 10, 11, 12, 13, 14, 15, 16, 17, 18, 19, 20, 21, 22, 23, 24, 25, 26, 27, 28, 29, 30, 31, 32, 33, 34, 35, 36, 37, 38, 39, 40, 41, 42, 43, 44, 45, 46, 47, 48, 49, 50, 51, 52, 53, 54, 55, 56, 57, 58, 59, 60, 61, 62, 63, 64, 65, 66, 67, 68, 69, 70, 71, 72, 73, 74, 75, 76, 77, 78, 79, 80, 81, 82, 83, 84, 85, 86, 87, 88, 89, 90, 91, 92, 93, 94, 95, 96, 97, 98, 99, 100, 101, 102, 103, 104, 105, 106, 107, 108, 109, 110, 111, 112, 113, 114, 115, 116, 117, 118, 119, 120, 121, 122, 123, 124, 125, 126, 127, 128, 129, 130, 131, 132, 133, 134, 135, 136, 137, 138, 139, 140, 141, 142, 143, 144, 145, 146, 147, 148, 149, 150, 151, 152, 153, 154, 155, 156, 157, 158, 159, 160, 161, 162, 163, 164, 165, 166, 167, 168, 169, 170, 171, 172, 173, 174, 175, 176, 177, 178, 179, 180, 181, 182, 183, 184, 185, 186, 187, 188, 189, 190, 191, 192, 193, 194, 195, 196, 197, 198, 199, 200],
      "AcquisitionTime": ["093034.560000", "093036.560000", "093038.560000", "093040.560000", "093042.560000", "093044.560000", "093046.560000", "093048.560000", "093050.560000", "093052.560000", "093054.560000", "093056.560000", "093058.560000", "093100.560000", "093102.560000", "093104.560000", "093106.560000", "093108.560000", "093110.560000", "093112.560000", "093114.560000", "093116.560000", "093118.560000", "093120.560000", "093122.560000", "093124.560000", "093126.560000", "093128.560000", "093130.560000", "093132.560000", "093134.560000", "093136.560000", "093138.560000", "093140.560000", "093142.560000", "093144.560000", "093146.560000", "093148.560000", "093150.560000", "093152.560000", "093154.560000", "093156.560000", "093158.560000", "093200.560000", "093202.560000", "093204.560000", "093206.560000", "093208.560000", "093210.560000", "093212.560000", "093214.560000", "093216.560000", "093218.560000", "093220.560000", "093222.560000", "093224.560000", "093226.560000", "093228.560000", "093230.560000", "093232.560000", "093234.560000", "093236.560000", "093238.560000", "093240.560000", "093242.560000", "093244.560000", "093246.560000", "093248.560000", "093250.560000", "093252.560000", "093254.560000", "093256.560000", "093258.560000", "093300.560000", "093302.560000", "093304.560000", "093306.560000", "093308.560000", "093310.560000", "093312.560000", "093314.560000", "093316.560000", "093318.560000", "093320.560000", "093322.560000", "093324.560000", "093326.560000", "093328.560000", "093330.560000", "093332.560000", "093334.560000", "093336.560000", "093338.560000", "093340.560000", "093342.560000", "093344.560000", "093346.560000", "093348.560000", "093350.560000", "093352.560000", "093354.560000", "093356.560000", "093358.560000", "093400.560000", "093402.560000", "093404.560000", "093406.560000", "093408.560000", "093410.560000", "093412.560000", "093414.560000", "093416.560000", "093418.560000", "093420.560000", "093422.560000", "093424.560000", "093426.560000", "093428.560000", "093430.560000", "093432.560000", "093434.560000", "093436.560000", "093438.560000", "093440.560000", "093442.560000", "093444.560000", "093446.560000", "093448.560000", "093450.560000", "093452.560000", "093454.560000", "093456.560000", "093458.560000", "093500.560000", "093502.560000", "093504.560000", "093506.560000", "093508.560000", "093510.560000", "093512.560000", "093514.560000", "093516.560000", "093518.560000", "093520.560000", "093522.560000", "093524.560000", "093526.560000", "093528.560000", "093530.560000", "093532.560000", "093534.560000", "093536.560000", "093538.560000", "093540.560000", "093542.560000", "093544.560000", "093546.560000", "093548.560000", "093550.560000", "093552.560000", "093554.560000", "093556.560000", "093558.560000", "093600.560000", "093602.560000", "093604.560000", "093606.560000", "093608.560000", "093610.560000", "093612.560000", "093614.560000", "093616.560000", "093618.560000", "093620.560000", "093622.560000", "093624.560000", "093626.560000", "093628.560000", "093630.560000", "093632.560000", "093634.560000", "093636.560000", "093638.560000", "093640.560000", "093642.560000", "093644.560000", "093646.560000", "093648.560000", "093650.560000", "093652.560000", "093654.560000", "093656.560000", "093658.560000", "093700.560000", "093702.560000", "093704.560000", "093706.560000", "093708.560000", "093710.560000", "093712.560000"],
      "ContentTime": ["093132.203000", "093132.207000", "093132.209000", "093132.212000", "093132.214000", "093132.217000", "093132.219000", "093132.221000", "093132.224000", "093132.226000", "093132.229000", "093132.231000", "093132.234000", "093132.236000", "093132.239000", "093132.241000", "093132.244000", "093132.246000", "093132.249000", "093132.251000", "093132.258000", "093132.261000", "093132.263000", "093132.266000", "093132.268000", "093132.271000", "093132.273000", "093132.276000", "093212.197000", "093212.200000", "093212.203000", "093212.205000", "093212.208000", "093212.210000", "093212.213000", "093212.215000", "093212.217000", "093212.220000", "093212.223000", "093212.225000", "093212.228000", "093212.230000", "093212.232000", "093212.235000", "093212.237000", "093212.240000", "093212.242000", "093212.253000", "093252.197000", "093252.200000", "093252.203000", "093252.205000", "093252.208000", "093252.210000", "093252.213000", "093252.215000", "093252.218000", "093252.220000", "093252.222000", "093252.225000", "093252.227000", "093252.230000", "093252.232000", "093252.235000", "093252.237000", "093252.240000", "093252.242000", "093252.245000", "093332.198000", "093332.201000", "093332.204000", "093332.206000", "093332.209000", "093332.211000", "093332.214000", "093332.216000", "093332.218000", "093332.221000", "093332.223000", "093332.226000", "093332.228000", "093332.231000", "093332.233000", "093332.236000", "093332.238000", "093332.241000", "093332.243000", "093332.246000", "093412.198000", "093412.201000", "093412.204000", "093412.206000", "093412.209000", "093412.211000", "093412.214000", "093412.216000", "093412.219000", "093412.221000", "093412.223000", "093412.226000", "093412.228000", "093412.231000", "093412.233000", "093412.236000", "093412.238000", "093412.241000", "093412.243000", "093412.246000", "093452.197000", "093452.200000", "093452.203000", "093452.205000", "093452.208000", "093452.210000", "093452.213000", "093452.215000", "093452.218000", "093452.220000", "093452.223000", "093452.225000", "093452.227000", "093452.230000", "093452.232000", "093452.235000", "093452.237000", "093452.240000", "093452.242000", "093452.245000", "093532.197000", "093532.200000", "093532.203000", "093532.205000", "093532.208000", "093532.210000", "093532.213000", "093532.215000", "093532.218000", "093532.220000", "093532.223000", "093532.225000", "093532.228000", "093532.230000", "093532.232000", "093532.235000", "093532.237000", "093532.240000", "093532.242000", "093532.245000", "093612.199000", "093612.201000", "093612.204000", "093612.206000", "093612.209000", "093612.211000", "093612.214000", "093612.216000", "093612.219000", "093612.221000", "093612.224000", "093612.226000", "093612.229000", "093612.231000", "093612.248000", "093612.251000", "093612.253000", "093612.256000", "093612.258000", "093612.261000", "093652.197000", "093652.200000", "093652.203000", "093652.205000", "093652.208000", "093652.210000", "093652.213000", "093652.215000", "093652.218000", "093652.220000", "093652.223000", "093652.225000", "093652.228000", "093652.230000", "093652.233000", "093652.235000", "093652.238000", "093652.240000", "093652.243000", "093652.245000", "093714.533000", "093714.536000", "093714.539000", "093714.541000", "093714.544000", "093714.546000", "093714.549000", "093714.551000", "093714.554000", "093714.556000", "093714.559000", "093714.561000"],
      "InstanceCreationTime": ["093132.203000", "093132.207000", "093132.209000", "093132.212000", "093132.214000", "093132.217000", "093132.219000", "093132.221000", "093132.224000", "093132.226000", "093132.229000", "093132.231000", "093132.234000", "093132.236000", "093132.239000", "093132.241000", "093132.244000", "093132.246000", "093132.249000", "093132.251000", "093132.258000", "093132.261000", "093132.263000", "093132.266000", "093132.268000", "093132.271000", "093132.273000", "093132.276000", "093212.197000", "093212.200000", "093212.203000", "093212.205000", "093212.208000", "093212.210000", "093212.213000", "093212.215000", "093212.217000", "093212.220000", "093212.223000", "093212.225000", "093212.228000", "093212.230000", "093212.232000", "093212.235000", "093212.237000", "093212.240000", "093212.242000", "093212.253000", "093252.197000", "093252.200000", "093252.203000", "093252.205000", "093252.208000", "093252.210000", "093252.213000", "093252.215000", "093252.218000", "093252.220000", "093252.222000", "093252.225000", "093252.227000", "093252.230000", "093252.232000", "093252.235000", "093252.237000", "093252.240000", "093252.242000", "093252.245000", "093332.198000", "093332.201000", "093332.204000", "093332.206000", "093332.209000", "093332.211000", "093332.214000", "093332.216000", "093332.218000", "093332.221000", "093332.223000", "093332.226000", "093332.228000", "093332.231000", "093332.233000", "093332.236000", "093332.238000", "093332.241000", "093332.243000", "093332.246000", "093412.198000", "093412.201000", "093412.204000", "093412.206000", "093412.209000", "093412.211000", "093412.214000", "093412.216000", "093412.219000", "093412.221000", "093412.223000", "093412.226000", "093412.228000", "093412.231000", "093412.233000", "093412.236000", "093412.238000", "093412.241000", "093412.243000", "093412.246000", "093452.197000", "093452.200000", "093452.203000", "093452.205000", "093452.208000", "093452.210000", "093452.213000", "093452.215000", "093452.218000", "093452.220000", "093452.223000", "093452.225000", "093452.227000", "093452.230000", "093452.232000", "093452.235000", "093452.237000", "093452.240000", "093452.242000", "093452.245000", "093532.197000", "093532.200000", "093532.203000", "093532.205000", "093532.208000", "093532.210000", "093532.213000", "093532.215000", "093532.218000", "093532.220000", "093532.223000", "093532.225000", "093532.228000", "093532.230000", "093532.232000", "093532.235000", "093532.237000", "093532.240000", "093532.242000", "093532.245000", "093612.199000", "093612.201000", "093612.204000", "093612.206000", "093612.209000", "093612.211000", "093612.214000", "093612.216000", "093612.219000", "093612.221000", "093612.224000", "093612.226000", "093612.229000", "093612.231000", "093612.248000", "093612.251000", "093612.253000", "093612.256000", "093612.258000", "093612.261000", "093652.197000", "093652.200000", "093652.203000", "093652.205000", "093652.208000", "093652.210000", "093652.213000", "093652.215000", "093652.218000", "093652.220000", "093652.223000", "093652.225000", "093652.228000", "093652.230000", "093652.233000", "093652.235000", "093652.238000", "093652.240000", "093652.243000", "093652.245000", "093714.533000", "093714.536000", "093714.539000", "093714.541000", "093714.544000", "093714.546000", "093714.549000", "093714.551000", "093714.554000", "093714.556000", "093714.559000", "093714.561000"],
      "InstanceNumber": [1, 2, 3, 4, 5, 6, 7, 8, 9, 10, 11, 12, 13, 14, 15, 16, 17, 18, 19, 20, 21, 22, 23, 24, 25, 26, 27, 28, 29, 30, 31, 32, 33, 34, 35, 36, 37, 38, 39, 40, 41, 42, 43, 44, 45, 46, 47, 48, 49, 50, 51, 52, 53, 54, 55, 56, 57, 58, 59, 60, 61, 62, 63, 64, 65, 66, 67, 68, 69, 70, 71, 72, 73, 74, 75, 76, 77, 78, 79, 80, 81, 82, 83, 84, 85, 86, 87, 88, 89, 90, 91, 92, 93, 94, 95, 96, 97, 98, 99, 100, 101, 102, 103, 104, 105, 106, 107, 108, 109, 110, 111, 112, 113, 114, 115, 116, 117, 118, 119, 120, 121, 122, 123, 124, 125, 126, 127, 128, 129, 130, 131, 132, 133, 134, 135, 136, 137, 138, 139, 140, 141, 142, 143, 144, 145, 146, 147, 148, 149, 150, 151, 152, 153, 154, 155, 156, 157, 158, 159, 160, 161, 162, 163, 164, 165, 166, 167, 168, 169, 170, 171, 172, 173, 174, 175, 176, 177, 178, 179, 180, 181, 182, 183, 184, 185, 186, 187, 188, 189, 190, 191, 192, 193, 194, 195, 196, 197, 198, 199, 200],
      "LargestImagePixelValue": [623, 628, 625, 628, 626, 628, 624, 624, 626, 628, 627, 630, 626, 625, 627, 630, 626, 629, 627, 623, 624, 629, 622, 622, 624, 625, 625, 623, 627, 628, 623, 626, 623, 627, 626, 626, 625, 623, 625, 625, 627, 625, 625, 625, 626, 624, 624, 626, 626, 626, 625, 623, 624, 626, 625, 627, 626, 624, 625, 627, 625, 627, 623, 627, 624, 628, 626, 624, 624, 627, 629, 625, 624, 627, 622, 623, 628, 625, 625, 625, 625, 626, 623, 624, 624, 628, 626, 628, 626, 624, 623, 624, 628, 623, 625, 628, 624, 627, 624, 624, 623, 622, 624, 624, 624, 625, 625, 629, 624, 626, 623, 626, 621, 624, 625, 627, 622, 623, 624, 623, 623, 623, 625, 623, 624, 626, 623, 624, 624, 624, 623, 624, 625, 624, 626, 626, 626, 625, 624, 624, 625, 622, 627, 622, 624, 623, 625, 623, 627, 625, 623, 622, 625, 629, 622, 627, 624, 622, 624, 625, 622, 623, 628, 627, 623, 623, 621, 624, 622, 623, 624, 620, 620, 624, 623, 624, 622, 623, 625, 623, 625, 624, 625, 624, 625, 623, 625, 625, 622, 625, 626, 624, 625, 625, 623, 624, 625, 623, 626, 622],
      "WindowCenter": [453.0, 453.0, 453.0, 453.0, 453.0, 453.0, 453.0, 453.0, 453.0, 453.0, 453.0, 453.0, 453.0, 453.0, 453.0, 453.0, 453.0, 453.0, 453.0, 453.0, 452.0, 453.0, 453.0, 453.0, 453.0, 452.0, 452.0, 452.0, 452.0, 452.0, 452.0, 452.0, 452.0, 452.0, 452.0, 452.0, 452.0, 452.0, 452.0, 452.0, 452.0, 452.0, 452.0, 452.0, 452.0, 452.0, 452.0, 452.0, 452.0, 452.0, 452.0, 452.0, 452.0, 452.0, 452.0, 452.0, 452.0, 452.0, 452.0, 452.0, 452.0, 452.0, 452.0, 452.0, 452.0, 452.0, 452.0, 452.0, 452.0, 452.0, 452.0, 452.0, 452.0, 452.0, 452.0, 452.0, 452.0, 452.0, 452.0, 452.0, 452.0, 452.0, 452.0, 452.0, 452.0, 452.0, 452.0, 452.0, 452.0, 452.0, 452.0, 452.0, 452.0, 452.0, 452.0, 452.0, 452.0, 452.0, 452.0, 452.0, 452.0, 452.0, 452.0, 452.0, 452.0, 452.0, 452.0, 452.0, 452.0, 452.0, 452.0, 452.0, 452.0, 452.0, 452.0, 452.0, 452.0, 452.0, 452.0, 452.0, 452.0, 452.0, 452.0, 452.0, 452.0, 452.0, 452.0, 452.0, 452.0, 452.0, 452.0, 452.0, 452.0, 452.0, 452.0, 452.0, 452.0, 452.0, 452.0, 452.0, 452.0, 452.0, 452.0, 452.0, 452.0, 452.0, 452.0, 452.0, 452.0, 452.0, 452.0, 452.0, 452.0, 452.0, 452.0, 452.0, 452.0, 452.0, 452.0, 451.0, 452.0, 452.0, 452.0, 451.0, 452.0, 452.0, 451.0, 452.0, 452.0, 452.0, 451.0, 452.0, 451.0, 451.0, 452.0, 452.0, 451.0, 451.0, 452.0, 452.0, 452.0, 451.0, 451.0, 451.0, 452.0, 452.0, 451.0, 451.0, 451.0, 452.0, 451.0, 451.0, 451.0, 451.0, 451.0, 451.0, 451.0, 451.0, 451.0, 451.0],
      "WindowWidth": [941.0, 941.0, 941.0, 941.0, 941.0, 941.0, 941.0, 941.0, 941.0, 941.0, 941.0, 941.0, 941.0, 941.0, 941.0, 941.0, 941.0, 941.0, 941.0, 941.0, 941.0, 941.0, 941.0, 941.0, 941.0, 940.0, 941.0, 941.0, 941.0, 941.0, 941.0, 941.0, 941.0, 941.0, 941.0, 941.0, 941.0, 940.0, 941.0, 941.0, 941.0, 940.0, 940.0, 941.0, 941.0, 940.0, 940.0, 940.0, 940.0, 940.0, 940.0, 940.0, 940.0, 940.0, 940.0, 940.0, 940.0, 940.0, 940.0, 940.0, 940.0, 940.0, 940.0, 940.0, 940.0, 940.0, 940.0, 940.0, 940.0, 940.0, 940.0, 940.0, 940.0, 940.0, 940.0, 940.0, 940.0, 940.0, 940.0, 940.0, 940.0, 940.0, 940.0, 940.0, 940.0, 940.0, 940.0, 940.0, 939.0, 940.0, 939.0, 939.0, 939.0, 939.0, 939.0, 939.0, 939.0, 939.0, 939.0, 939.0, 939.0, 939.0, 939.0, 939.0, 939.0, 939.0, 939.0, 939.0, 939.0, 939.0, 939.0, 939.0, 939.0, 939.0, 939.0, 939.0, 939.0, 939.0, 939.0, 939.0, 939.0, 939.0, 939.0, 939.0, 939.0, 939.0, 939.0, 939.0, 939.0, 939.0, 939.0, 939.0, 939.0, 939.0, 939.0, 939.0, 939.0, 939.0, 939.0, 939.0, 939.0, 939.0, 939.0, 939.0, 939.0, 939.0, 939.0, 939.0, 939.0, 939.0, 939.0, 939.0, 939.0, 939.0, 939.0, 939.0, 939.0, 939.0, 939.0, 938.0, 939.0, 939.0, 939.0, 938.0, 939.0, 939.0, 938.0, 939.0, 939.0, 939.0, 938.0, 939.0, 938.0, 938.0, 939.0, 939.0, 938.0, 938.0, 939.0, 939.0, 939.0, 938.0, 938.0, 938.0, 939.0, 939.0, 938.0, 938.0, 938.0, 939.0, 938.0, 938.0, 938.0, 938.0, 938.0, 938.0, 938.0, 938.0, 938.0, 938.0]
    },
    "slices": {}
  }
}