{
  "AcquisitionMatrixPE": 80,
  "AcquisitionNumber": 1,
  "AcquisitionTime": "09:16:57.780000",
  "BandwidthPerPixelPhaseEncode": 48.077,
  "BaseResolution": 80,
  "BodyPartExamined": "BRAIN",
  "CoilCombinationMethod": "Sum of Squares",
  "ConsistencyInfo": "N4_VE11C_LATEST_20160120",
  "ConversionSoftware": "dcm2niix",
  "ConversionSoftwareVersion": "v1.0.20220720",
  "DerivedVendorReportedEchoSpacing": 0.000519999,
  "DeviceSerialNumber": "66112",
  "DwellTime": 2.7e-06,
  "EchoTime": 0.035,
  "EchoTrainLength": 39,
  "EffectiveEchoSpacing": 0.00026,
  "FlipAngle": 90,
  "HeudiconvVersion": "0.13.1",
  "ImageOrientationPatientDICOM": [0.996799, -0.0714925, -0.035797, 0.0793251, 0.940338, 0.330866],
  "ImageOrientationText": "Tra>Cor(19.4)>Sag(-0.6)",
  "ImageType": [
    "ORIGINAL",
    "PRIMARY",
    "M",
    "ND",
    "NORM",
    "MOSAIC"
],
  "ImagingFrequency": 123.252,
  "InPlanePhaseEncodingDirectionDICOM": "COL",
  "InstitutionAddress": "Maynard 3,Hanover,NH,US,03755",
  "InstitutionName": "Dartmouth College - PBS",
  "InstitutionalDepartmentName": "Department",
  "MRAcquisitionType": "2D",
  "MagneticFieldStrength": 3,
  "Manufacturer": "Siemens",
  "ManufacturersModelName": "Prisma",
  "MatrixCoilMode": "GRAPPA",
  "Modality": "MR",
  "NonlinearGradientCorrection": false,
  "ParallelReductionFactorInPlane": 2,
  "PartialFourier": 1,
  "PatientPosition": "HFS",
  "PercentPhaseFOV": 100,
  "PercentSampling": 100,
  "PhaseEncodingDirection": "j-",
  "PhaseEncodingSteps": 79,
  "PhaseResolution": 1,
  "PixelBandwidth": 2315,
  "ProcedureStepDescription": "dbic^QA",
  "ProtocolName": "func-bold_task-rest_acq-p2",
  "PulseSequenceDetails": "%SiemensSeq%\\ep2d_bold",
  "ReceiveCoilActiveElements": "HC1-7;NC1,2",
  "ReceiveCoilName": "HeadNeck_64",
  "ReconMatrixPE": 80,
  "RefLinesPE": 24,
  "RepetitionTime": 2,
  "SAR": 0.035856,
  "ScanOptions": "FS",
  "ScanningSequence": "EP",
  "SequenceName": "*epfid2d1_80",
  "SequenceVariant": "SK",
  "SeriesDescription": "func-bold_task-rest_acq-p2",
  "SeriesNumber": 5,
  "ShimSetting": [4143, -7676, -7497, 165, -76, -328, -68, 88],
  "SliceThickness": 3.5,
  "SliceTiming": [0.9875, 0, 1.055, 0.065, 1.12, 0.13, 1.1875, 0.1975, 1.2525, 0.2625, 1.3175, 0.33, 1.385, 0.395, 1.45, 0.46, 1.5175, 0.5275, 1.5825, 0.5925, 1.6475, 0.66, 1.715, 0.725, 1.78, 0.79, 1.8475, 0.8575, 1.9125, 0.9225],
  "SoftwareVersions": "syngo MR E11",
  "SpacingBetweenSlices": 3.99,
  "StationName": "AWP66112",
  "TaskName": "rest",
  "TotalReadoutTime": 0.02054,
  "TxRefAmp": 217.429,
  "dcmmeta_affine": [
    [-2.9903957843780518, 0.23797528445720673, -0.03992724046111107, 114.13871002197266],
    [0.21447762846946716, 2.821013927459717, 1.3272576332092285, -126.09970092773438],
    [-0.10739093273878098, -0.9925970435142517, 3.7625646591186523, -36.18290710449219],
    [0.0, 0.0, 0.0, 1.0]
],
  "dcmmeta_reorient_transform": [
    [0.0, -1.0, 0.0, 79.0],
    [1.0, 0.0, 0.0, 0.0],
    [0.0, 0.0, 1.0, 0.0],
    [0.0, 0.0, 0.0, 1.0]
],
  "dcmmeta_shape": [80, 80, 30, 200],
  "dcmmeta_slice_dim": 2,
  "dcmmeta_version": 0.6,
  "global": {
    "const": {
      "AccessionNumber": "qa64",
      "AcquisitionMatrix": [80, 0, 0, 80],
      "AngioFlag": "N",
      "BitsAllocated": 16,
      "BitsStored": 12,
      "BodyPartExamined": "BRAIN",
      "Columns": 480,
      "EchoNumbers": 1,
      "EchoTime": 35.0,
      "EchoTrainLength": 39,
      "FlipAngle": 90.0,
      "HighBit": 11,
      "ImageOrientationPatient": [0.99679857164128, -0.0714925448868, -0.0357969775194, 0.07932509682452, 0.94033793702976, 0.33086567243579],
      "ImagePositionPatient": [-778.61296132597, -618.06762805597, -291.63928730516],
      "ImageType": [
        "ORIGINAL",
        "PRIMARY",
        "M",
        "ND",
        "NORM",
        "MOSAIC"
],
      "ImagedNucleus": "1H",
      "ImagingFrequency": 123.252472,
      "InPlanePhaseEncodingDirection": "COL",
      "MRAcquisitionType": "2D",
      "MagneticFieldStrength": 3.0,
      "Manufacturer": "SIEMENS",
      "ManufacturerModelName": "Prisma",
      "Modality": "MR",
      "NumberOfAverages": 1.0,
      "NumberOfPhaseEncodingSteps": 79,
      "PercentPhaseFieldOfView": 100.0,
      "PercentSampling": 100.0,
      "PerformedProcedureStepStartTime": "091520.256000",
      "PhotometricInterpretation": "MONOCHROME2",
      "PixelBandwidth": 2315.0,
      "PixelRepresentation": 0,
      "PixelSpacing": [3.0, 3.0],
      "ProtocolName": "func-bold_task-rest_acq-p2",
      "RepetitionTime": 2000.0,
      "Rows": 480,
      "SAR": 0.03585596741106,
      "SamplesPerPixel": 1,
      "ScanOptions": "FS",
      "ScanningSequence": "EP",
      "SequenceName": "*epfid2d1_80",
      "SequenceVariant": "SK",
      "SeriesDescription": "func-bold_task-rest_acq-p2",
      "SeriesNumber": 5,
      "SeriesTime": "091752.272000",
      "SliceLocation": -77.209162239614,
      "SliceThickness": 3.5,
      "SmallestImagePixelValue": 0,
      "SoftwareVersions": "syngo MR E11",
      "SpacingBetweenSlices": 3.9900000601762,
      "SpecificCharacterSet": "ISO_IR 100",
      "StudyID": "8",
      "StudyTime": "091520.170000",
      "TransmitCoilName": "Body",
      "VariableFlipAngleFlag": "N",
      "WindowCenterWidthExplanation": "Algo1",
      "dBdt": 0.0},
    "slices": {}
  },
  "time": {
    "samples": {
      "AcquisitionNumber": [1, 2, 3, 4, 5, 6, 7, 8, 9, 10, 11, 12, 13, 14, 15, 16, 17, 18, 19, 20, 21, 22, 23, 24, 25, 26, 27, 28, 29, 30, 31, 32, 33, 34, 35, 36, 37, 38, 39, 40, 41, 42, 43, 44, 45, 46, 47, 48, 49, 50, 51, 52, 53, 54, 55, 56, 57, 58, 59, 60, 61, 62, 63, 64, 65, 66, 67, 68, 69, 70, 71, 72, 73, 74, 75, 76, 77, 78, 79, 80, 81, 82, 83, 84, 85, 86, 87, 88, 89, 90, 91, 92, 93, 94, 95, 96, 97, 98, 99, 100, 101, 102, 103, 104, 105, 106, 107, 108, 109, 110, 111, 112, 113, 114, 115, 116, 117, 118, 119, 120, 121, 122, 123, 124, 125, 126, 127, 128, 129, 130, 131, 132, 133, 134, 135, 136, 137, 138, 139, 140, 141, 142, 143, 144, 145, 146, 147, 148, 149, 150, 151, 152, 153, 154, 155, 156, 157, 158, 159, 160, 161, 162, 163, 164, 165, 166, 167, 168, 169, 170, 171, 172, 173, 174, 175, 176, 177, 178, 179, 180, 181, 182, 183, 184, 185, 186, 187, 188, 189, 190, 191, 192, 193, 194, 195, 196, 197, 198, 199, 200],
      "AcquisitionTime": ["091657.780000", "091659.780000", "091701.780000", "091703.780000", "091705.780000", "091707.780000", "091709.780000", "091711.780000", "091713.780000", "091715.780000", "091717.780000", "091719.780000", "091721.780000", "091723.780000", "091725.780000", "091727.780000", "091729.780000", "091731.780000", "091733.780000", "091735.780000", "091737.780000", "091739.780000", "091741.780000", "091743.780000", "091745.780000", "091747.780000", "091749.780000", "091751.780000", "091753.780000", "091755.780000", "091757.780000", "091759.780000", "091801.780000", "091803.780000", "091805.780000", "091807.780000", "091809.780000", "091811.780000", "091813.780000", "091815.780000", "091817.780000", "091819.780000", "091821.780000", "091823.780000", "091825.780000", "091827.780000", "091829.780000", "091831.780000", "091833.780000", "091835.780000", "091837.780000", "091839.780000", "091841.780000", "091843.780000", "091845.780000", "091847.780000", "091849.780000", "091851.780000", "091853.780000", "091855.780000", "091857.780000", "091859.780000", "091901.780000", "091903.780000", "091905.780000", "091907.780000", "091909.780000", "091911.780000", "091913.780000", "091915.780000", "091917.780000", "091919.780000", "091921.780000", "091923.780000", "091925.780000", "091927.780000", "091929.780000", "091931.780000", "091933.780000", "091935.780000", "091937.780000", "091939.780000", "091941.780000", "091943.780000", "091945.780000", "091947.780000", "091949.780000", "091951.780000", "091953.780000", "091955.780000", "091957.780000", "091959.780000", "092001.780000", "092003.780000", "092005.780000", "092007.780000", "092009.780000", "092011.780000", "092013.780000", "092015.780000", "092017.780000", "092019.780000", "092021.780000", "092023.780000", "092025.780000", "092027.780000", "092029.780000", "092031.780000", "092033.780000", "092035.780000", "092037.780000", "092039.780000", "092041.780000", "092043.780000", "092045.780000", "092047.780000", "092049.780000", "092051.780000", "092053.780000", "092055.780000", "092057.780000", "092059.780000", "092101.780000", "092103.780000", "092105.780000", "092107.780000", "092109.780000", "092111.780000", "092113.780000", "092115.780000", "092117.780000", "092119.780000", "092121.780000", "092123.780000", "092125.780000", "092127.780000", "092129.780000", "092131.780000", "092133.780000", "092135.780000", "092137.780000", "092139.780000", "092141.780000", "092143.780000", "092145.780000", "092147.780000", "092149.780000", "092151.780000", "092153.780000", "092155.780000", "092157.780000", "092159.780000", "092201.780000", "092203.780000", "092205.780000", "092207.780000", "092209.780000", "092211.780000", "092213.780000", "092215.780000", "092217.780000", "092219.780000", "092221.780000", "092223.780000", "092225.780000", "092227.780000", "092229.780000", "092231.780000", "092233.780000", "092235.780000", "092237.780000", "092239.780000", "092241.780000", "092243.780000", "092245.780000", "092247.780000", "092249.780000", "092251.780000", "092253.780000", "092255.780000", "092257.780000", "092259.780000", "092301.780000", "092303.780000", "092305.780000", "092307.780000", "092309.780000", "092311.780000", "092313.780000", "092315.780000", "092317.780000", "092319.780000", "092321.780000", "092323.780000", "092325.780000", "092327.780000", "092329.780000", "092331.780000", "092333.780000", "092335.780000"],
      "ContentTime": ["091752.276000", "091752.280000", "091752.283000", "091752.285000", "091752.288000", "091752.290000", "091752.293000", "091752.296000", "091752.298000", "091752.301000", "091752.303000", "091752.306000", "091752.308000", "091752.311000", "091752.313000", "091752.316000", "091752.318000", "091752.321000", "091752.323000", "091752.326000", "091752.329000", "091752.331000", "091752.334000", "091752.336000", "091752.339000", "091752.341000", "091752.346000", "091832.269000", "091832.271000", "091832.274000", "091832.277000", "091832.279000", "091832.282000", "091832.284000", "091832.287000", "091832.289000", "091832.292000", "091832.295000", "091832.308000", "091832.310000", "091832.313000", "091832.316000", "091832.318000", "091832.321000", "091832.323000", "091832.326000", "091832.328000", "091912.268000", "091912.271000", "091912.274000", "091912.276000", "091912.279000", "091912.281000", "091912.284000", "091912.287000", "091912.289000", "091912.292000", "091912.294000", "091912.297000", "091912.299000", "091912.302000", "091912.305000", "091912.307000", "091912.310000", "091912.312000", "091912.315000", "091912.317000", "091952.270000", "091952.273000", "091952.275000", "091952.278000", "091952.280000", "091952.283000", "091952.286000", "091952.288000", "091952.291000", "091952.293000", "091952.296000", "091952.298000", "091952.301000", "091952.303000", "091952.306000", "091952.309000", "091952.311000", "091952.313000", "091952.316000", "091952.319000", "092032.269000", "092032.272000", "092032.275000", "092032.277000", "092032.280000", "092032.282000", "092032.285000", "092032.287000", "092032.290000", "092032.292000", "092032.295000", "092032.298000", "092032.300000", "092032.303000", "092032.305000", "092032.308000", "092032.310000", "092032.313000", "092032.315000", "092032.318000", "092112.269000", "092112.272000", "092112.274000", "092112.277000", "092112.279000", "092112.282000", "092112.284000", "092112.287000", "092112.289000", "092112.292000", "092112.295000", "092112.297000", "092112.300000", "092112.302000", "092112.305000", "092112.307000", "092112.310000", "092112.312000", "092112.315000", "092112.317000", "092152.269000", "092152.272000", "092152.275000", "092152.277000", "092152.280000", "092152.283000", "092152.285000", "092152.288000", "092152.291000", "092152.293000", "092152.296000", "092152.298000", "092152.301000", "092152.304000", "092152.306000", "092152.309000", "092152.312000", "092152.314000", "092152.317000", "092152.319000", "092232.270000", "092232.272000", "092232.275000", "092232.277000", "092232.280000", "092232.282000", "092232.285000", "092232.287000", "092232.303000", "092232.305000", "092232.308000", "092232.310000", "092232.313000", "092232.315000", "092232.318000", "092232.321000", "092232.323000", "092232.326000", "092232.328000", "092232.331000", "092312.268000", "092312.271000", "092312.274000", "092312.276000", "092312.279000", "092312.281000", "092312.284000", "092312.287000", "092312.289000", "092312.292000", "092312.294000", "092312.297000", "092312.299000", "092312.302000", "092312.305000", "092312.307000", "092312.310000", "092312.312000", "092312.315000", "092312.317000", "092336.906000", "092336.909000", "092336.911000", "092336.914000", "092336.916000", "092336.919000", "092336.922000", "092336.925000", "092336.936000", "092336.938000", "092336.941000", "092336.944000", "092336.954000"],
      "InstanceCreationTime": ["091752.276000", "091752.280000", "091752.283000", "091752.285000", "091752.288000", "091752.290000", "091752.293000", "091752.296000", "091752.298000", "091752.301000", "091752.303000", "091752.306000", "091752.308000", "091752.311000", "091752.313000", "091752.316000", "091752.318000", "091752.321000", "091752.323000", "091752.326000", "091752.329000", "091752.331000", "091752.334000", "091752.336000", "091752.339000", "091752.341000", "091752.346000", "091832.269000", "091832.271000", "091832.274000", "091832.277000", "091832.279000", "091832.282000", "091832.284000", "091832.287000", "091832.289000", "091832.292000", "091832.295000", "091832.308000", "091832.310000", "091832.313000", "091832.316000", "091832.318000", "091832.321000", "091832.323000", "091832.326000", "091832.328000", "091912.268000", "091912.271000", "091912.274000", "091912.276000", "091912.279000", "091912.281000", "091912.284000", "091912.287000", "091912.289000", "091912.292000", "091912.294000", "091912.297000", "091912.299000", "091912.302000", "091912.305000", "091912.307000", "091912.310000", "091912.312000", "091912.315000", "091912.317000", "091952.270000", "091952.273000", "091952.275000", "091952.278000", "091952.280000", "091952.283000", "091952.286000", "091952.288000", "091952.291000", "091952.293000", "091952.296000", "091952.298000", "091952.301000", "091952.303000", "091952.306000", "091952.309000", "091952.311000", "091952.313000", "091952.316000", "091952.319000", "092032.269000", "092032.272000", "092032.275000", "092032.277000", "092032.280000", "092032.282000", "092032.285000", "092032.287000", "092032.290000", "092032.292000", "092032.295000", "092032.298000", "092032.300000", "092032.303000", "092032.305000", "092032.308000", "092032.310000", "092032.313000", "092032.315000", "092032.318000", "092112.269000", "092112.272000", "092112.274000", "092112.277000", "092112.279000", "092112.282000", "092112.284000", "092112.287000", "092112.289000", "092112.292000", "092112.295000", "092112.297000", "092112.300000", "092112.302000", "092112.305000", "092112.307000", "092112.310000", "092112.312000", "092112.315000", "092112.317000", "092152.269000", "092152.272000", "092152.275000", "092152.277000", "092152.280000", "092152.283000", "092152.285000", "092152.288000", "092152.291000", "092152.293000", "092152.296000", "092152.298000", "092152.301000", "092152.304000", "092152.306000", "092152.309000", "092152.312000", "092152.314000", "092152.317000", "092152.319000", "092232.270000", "092232.272000", "092232.275000", "092232.277000", "092232.280000", "092232.282000", "092232.285000", "092232.287000", "092232.303000", "092232.305000", "092232.308000", "092232.310000", "092232.313000", "092232.315000", "092232.318000", "092232.321000", "092232.323000", "092232.326000", "092232.328000", "092232.331000", "092312.268000", "092312.271000", "092312.274000", "092312.276000", "092312.279000", "092312.281000", "092312.284000", "092312.287000", "092312.289000", "092312.292000", "092312.294000", "092312.297000", "092312.299000", "092312.302000", "092312.305000", "092312.307000", "092312.310000", "092312.312000", "092312.315000", "092312.317000", "092336.906000", "092336.909000", "092336.911000", "092336.914000", "092336.916000", "092336.919000", "092336.922000", "092336.925000", "092336.936000", "092336.938000", "092336.941000", "092336.944000", "092336.954000"],
      "InstanceNumber": [1, 2, 3, 4, 5, 6, 7, 8, 9, 10, 11, 12, 13, 14, 15, 16, 17, 18, 19, 20, 21, 22, 23, 24, 25, 26, 27, 28, 29, 30, 31, 32, 33, 34, 35, 36, 37, 38, 39, 40, 41, 42, 43, 44, 45, 46, 47, 48, 49, 50, 51, 52, 53, 54, 55, 56, 57, 58, 59, 60, 61, 62, 63, 64, 65, 66, 67, 68, 69, 70, 71, 72, 73, 74, 75, 76, 77, 78, 79, 80, 81, 82, 83, 84, 85, 86, 87, 88, 89, 90, 91, 92, 93, 94, 95, 96, 97, 98, 99, 100, 101, 102, 103, 104, 105, 106, 107, 108, 109, 110, 111, 112, 113, 114, 115, 116, 117, 118, 119, 120, 121, 122, 123, 124, 125, 126, 127, 128, 129, 130, 131, 132, 133, 134, 135, 136, 137, 138, 139, 140, 141, 142, 143, 144, 145, 146, 147, 148, 149, 150, 151, 152, 153, 154, 155, 156, 157, 158, 159, 160, 161, 162, 163, 164, 165, 166, 167, 168, 169, 170, 171, 172, 173, 174, 175, 176, 177, 178, 179, 180, 181, 182, 183, 184, 185, 186, 187, 188, 189, 190, 191, 192, 193, 194, 195, 196, 197, 198, 199, 200],
      "LargestImagePixelValue": [3737, 3726, 3729, 3735, 3729, 3731, 3732, 3733, 3735, 3735, 3733, 3734, 3732, 3724, 3731, 3738, 3740, 3732, 3745, 3737, 3731, 3733, 3732, 3725, 3732, 3724, 3735, 3730, 3724, 3727, 3731, 3734, 3725, 3726, 3737, 3736, 3734, 3728, 3722, 3728, 3729, 3735, 3726, 3724, 3727, 3725, 3725, 3732, 3732, 3724, 3731, 3723, 3731, 3726, 3724, 3728, 3735, 3730, 3732, 3733, 3728, 3725, 3733, 3729, 3717, 3724, 3723, 3731, 3723, 3727, 3732, 3733, 3724, 3728, 3732, 3720, 3727, 3734, 3724, 3724, 3725, 3737, 3726, 3718, 3730, 3725, 3731, 3725, 3723, 3723, 3736, 3731, 3730, 3719, 3728, 3730, 3721, 3719, 3729, 3719, 3718, 3721, 3726, 3727, 3730, 3729, 3724, 3727, 3728, 3722, 3723, 3731, 3721, 3722, 3732, 3729, 3724, 3733, 3722, 3732, 3726, 3734, 3721, 3727, 3730, 3726, 3720, 3722, 3728, 3725, 3733, 3734, 3729, 3730, 3733, 3722, 3720, 3715, 3725, 3723, 3729, 3723, 3727, 3727, 3726, 3726, 3715, 3721, 3731, 3731, 3721, 3726, 3711, 3726, 3724, 3721, 3728, 3720, 3720, 3717, 3722, 3718, 3723, 3724, 3722, 3724, 3726, 3719, 3728, 3718, 3724, 3724, 3725, 3724, 3721, 3724, 3728, 3719, 3715, 3723, 3718, 3715, 3717, 3719, 3727, 3718, 3719, 3724, 3716, 3715, 3718, 3718, 3723, 3725, 3716, 3719, 3721, 3725, 3720, 3723],
      "WindowCenter": [1445.0, 1445.0, 1444.0, 1444.0, 1444.0, 1444.0, 1443.0, 1443.0, 1443.0, 1444.0, 1443.0, 1444.0, 1443.0, 1443.0, 1443.0, 1442.0, 1444.0, 1444.0, 1443.0, 1443.0, 1444.0, 1444.0, 1444.0, 1443.0, 1443.0, 1442.0, 1442.0, 1443.0, 1443.0, 1443.0, 1442.0, 1442.0, 1443.0, 1443.0, 1443.0, 1442.0, 1443.0, 1443.0, 1443.0, 1443.0, 1443.0, 1443.0, 1443.0, 1442.0, 1442.0, 1442.0, 1442.0, 1442.0, 1442.0, 1442.0, 1442.0, 1441.0, 1442.0, 1442.0, 1442.0, 1441.0, 1442.0, 1442.0, 1442.0, 1441.0, 1441.0, 1441.0, 1441.0, 1441.0, 1441.0, 1441.0, 1441.0, 1441.0, 1442.0, 1441.0, 1441.0, 1441.0, 1441.0, 1440.0, 1442.0, 1441.0, 1441.0, 1441.0, 1442.0, 1441.0, 1441.0, 1441.0, 1441.0, 1440.0, 1441.0, 1441.0, 1440.0, 1440.0, 1440.0, 1440.0, 1440.0, 1440.0, 1441.0, 1440.0, 1440.0, 1441.0, 1440.0, 1440.0, 1440.0, 1440.0, 1440.0, 1440.0, 1440.0, 1441.0, 1440.0, 1440.0, 1439.0, 1440.0, 1440.0, 1440.0, 1440.0, 1440.0, 1439.0, 1440.0, 1440.0, 1439.0, 1440.0, 1440.0, 1440.0, 1439.0, 1440.0, 1439.0, 1439.0, 1438.0, 1438.0, 1439.0, 1439.0, 1439.0, 1438.0, 1438.0, 1439.0, 1438.0, 1438.0, 1439.0, 1438.0, 1438.0, 1438.0, 1439.0, 1438.0, 1438.0, 1438.0, 1439.0, 1438.0, 1438.0, 1438.0, 1438.0, 1438.0, 1438.0, 1437.0, 1438.0, 1437.0, 1438.0, 1438.0, 1439.0, 1438.0, 1438.0, 1437.0, 1438.0, 1437.0, 1437.0, 1437.0, 1437.0, 1437.0, 1437.0, 1437.0, 1437.0, 1437.0, 1437.0, 1437.0, 1437.0, 1437.0, 1438.0, 1437.0, 1437.0, 1437.0, 1437.0, 1436.0, 1437.0, 1437.0, 1437.0, 1437.0, 1437.0, 1436.0, 1437.0, 1436.0, 1437.0, 1436.0, 1436.0, 1437.0, 1437.0, 1437.0, 1437.0, 1437.0, 1437.0, 1437.0, 1436.0, 1437.0, 1437.0, 1436.0, 1437.0],
      "WindowWidth": [3310.0, 3308.0, 3309.0, 3309.0, 3309.0, 3308.0, 3308.0, 3308.0, 3308.0, 3308.0, 3309.0, 3309.0, 3308.0, 3308.0, 3308.0, 3309.0, 3308.0, 3309.0, 3308.0, 3308.0, 3308.0, 3308.0, 3308.0, 3308.0, 3308.0, 3308.0, 3308.0, 3308.0, 3308.0, 3308.0, 3308.0, 3308.0, 3308.0, 3308.0, 3308.0, 3309.0, 3308.0, 3308.0, 3308.0, 3308.0, 3308.0, 3308.0, 3308.0, 3308.0, 3308.0, 3308.0, 3308.0, 3308.0, 3309.0, 3308.0, 3308.0, 3308.0, 3308.0, 3308.0, 3308.0, 3309.0, 3308.0, 3308.0, 3308.0, 3308.0, 3308.0, 3308.0, 3308.0, 3308.0, 3308.0, 3308.0, 3308.0, 3308.0, 3307.0, 3307.0, 3308.0, 3308.0, 3308.0, 3308.0, 3307.0, 3308.0, 3307.0, 3307.0, 3307.0, 3307.0, 3307.0, 3307.0, 3307.0, 3308.0, 3307.0, 3307.0, 3308.0, 3307.0, 3307.0, 3307.0, 3307.0, 3307.0, 3307.0, 3307.0, 3307.0, 3307.0, 3307.0, 3307.0, 3307.0, 3307.0, 3307.0, 3307.0, 3307.0, 3306.0, 3307.0, 3307.0, 3307.0, 3307.0, 3307.0, 3307.0, 3306.0, 3306.0, 3306.0, 3307.0, 3307.0, 3307.0, 3306.0, 3306.0, 3306.0, 3306.0, 3306.0, 3307.0, 3307.0, 3306.0, 3306.0, 3306.0, 3306.0, 3306.0, 3306.0, 3306.0, 3306.0, 3306.0, 3306.0, 3306.0, 3306.0, 3306.0, 3306.0, 3305.0, 3306.0, 3306.0, 3306.0, 3305.0, 3305.0, 3305.0, 3306.0, 3306.0, 3306.0, 3306.0, 3306.0, 3306.0, 3306.0, 3305.0, 3305.0, 3305.0, 3305.0, 3305.0, 3305.0, 3306.0, 3305.0, 3305.0, 3305.0, 3305.0, 3305.0, 3305.0, 3305.0, 3305.0, 3305.0, 3305.0, 3305.0, 3305.0, 3305.0, 3305.0, 3305.0, 3305.0, 3305.0, 3305.0, 3306.0, 3305.0, 3305.0, 3305.0, 3305.0, 3305.0, 3305.0, 3305.0, 3305.0, 3305.0, 3305.0, 3305.0, 3305.0, 3305.0, 3305.0, 3305.0, 3305.0, 3305.0, 3305.0, 3305.0, 3305.0, 3305.0, 3304.0, 3305.0]
    },
    "slices": {}
  }
}