{
  "AcquisitionMatrixPE": 80,
  "AcquisitionNumber": 1,
  "AcquisitionTime": "08:48:40.200000",
  "BandwidthPerPixelPhaseEncode": 48.077,
  "BaseResolution": 80,
  "BodyPartExamined": "BRAIN",
  "CoilCombinationMethod": "Sum of Squares",
  "ConsistencyInfo": "N4_VE11C_LATEST_20160120",
  "ConversionSoftware": "dcm2niix",
  "ConversionSoftwareVersion": "v1.0.20220720",
  "DerivedVendorReportedEchoSpacing": 0.000519999,
  "DeviceSerialNumber": "66112",
  "DwellTime": 2.7e-06,
  "EchoTime": 0.035,
  "EchoTrainLength": 39,
  "EffectiveEchoSpacing": 0.00026,
  "FlipAngle": 90,
  "HeudiconvVersion": "0.13.1",
  "ImageOrientationPatientDICOM": [0.986908, 0.160858, 0.011689, -0.157194, 0.943145, 0.292861],
  "ImageOrientationText": "Tra>Cor(16.9)>Sag(-2.1)",
  "ImageType": [
    "ORIGINAL",
    "PRIMARY",
    "M",
    "ND",
    "NORM",
    "MOSAIC"
],
  "ImagingFrequency": 123.252,
  "InPlanePhaseEncodingDirectionDICOM": "COL",
  "InstitutionAddress": "Maynard 3,Hanover,NH,US,03755",
  "InstitutionName": "Dartmouth College - PBS",
  "InstitutionalDepartmentName": "Department",
  "MRAcquisitionType": "2D",
  "MagneticFieldStrength": 3,
  "Manufacturer": "Siemens",
  "ManufacturersModelName": "Prisma",
  "MatrixCoilMode": "GRAPPA",
  "Modality": "MR",
  "NonlinearGradientCorrection": false,
  "ParallelReductionFactorInPlane": 2,
  "PartialFourier": 1,
  "PatientPosition": "HFS",
  "PercentPhaseFOV": 100,
  "PercentSampling": 100,
  "PhaseEncodingDirection": "j-",
  "PhaseEncodingSteps": 79,
  "PhaseResolution": 1,
  "PixelBandwidth": 2315,
  "ProcedureStepDescription": "dbic^QA",
  "ProtocolName": "func-bold_task-rest_acq-p2",
  "PulseSequenceDetails": "%SiemensSeq%\\ep2d_bold",
  "ReceiveCoilActiveElements": "HEA;HEP",
  "ReceiveCoilName": "Head_32",
  "ReconMatrixPE": 80,
  "RefLinesPE": 24,
  "RepetitionTime": 2,
  "SAR": 0.0554873,
  "ScanOptions": "FS",
  "ScanningSequence": "EP",
  "SequenceName": "*epfid2d1_80",
  "SequenceVariant": "SK",
  "SeriesDescription": "func-bold_task-rest_acq-p2",
  "SeriesNumber": 5,
  "ShimSetting": [4146, -7698, -7509, 352, -18, -145, -59, 58],
  "SliceThickness": 3.5,
  "SliceTiming": [0.99, 0, 1.0575, 0.0675, 1.1225, 0.1325, 1.19, 0.2, 1.255, 0.265, 1.32, 0.33, 1.3875, 0.3975, 1.4525, 0.4625, 1.52, 0.53, 1.585, 0.595, 1.65, 0.66, 1.7175, 0.7275, 1.7825, 0.7925, 1.85, 0.86, 1.915, 0.925],
  "SoftwareVersions": "syngo MR E11",
  "SpacingBetweenSlices": 3.99,
  "StationName": "AWP66112",
  "TaskName": "rest",
  "TotalReadoutTime": 0.02054,
  "TxRefAmp": 235.255,
  "dcmmeta_affine": [
    [-2.9607248306274414, -0.4715816378593445, -0.14397767186164856, 145.70932006835938],
    [-0.48257482051849365, 2.829435348510742, 1.1605478525161743, -112.82636260986328],
    [0.03506706655025482, -0.878582239151001, 3.8147737979888916, -14.084451675415039],
    [0.0, 0.0, 0.0, 1.0]
],
  "dcmmeta_reorient_transform": [
    [0.0, -1.0, 0.0, 79.0],
    [1.0, 0.0, 0.0, 0.0],
    [0.0, 0.0, 1.0, 0.0],
    [0.0, 0.0, 0.0, 1.0]
],
  "dcmmeta_shape": [80, 80, 30, 200],
  "dcmmeta_slice_dim": 2,
  "dcmmeta_version": 0.6,
  "global": {
    "const": {
      "AccessionNumber": "qa",
      "AcquisitionMatrix": [80, 0, 0, 80],
      "AngioFlag": "N",
      "BitsAllocated": 16,
      "BitsStored": 12,
      "BodyPartExamined": "BRAIN",
      "Columns": 480,
      "EchoNumbers": 1,
      "EchoTime": 35.0,
      "EchoTrainLength": 39,
      "FlipAngle": 90.0,
      "HighBit": 11,
      "ImageOrientationPatient": [0.98690829483769, 0.16085827408738, 0.01168902212317, -0.157193883816, 0.94314509482544, 0.29286073993889],
      "ImagePositionPatient": [-606.28301347835, -773.10104401017, -266.22230466735],
      "ImageType": [
        "ORIGINAL",
        "PRIMARY",
        "M",
        "ND",
        "NORM",
        "MOSAIC"
],
      "ImagedNucleus": "1H",
      "ImagingFrequency": 123.25249,
      "InPlanePhaseEncodingDirection": "COL",
      "MRAcquisitionType": "2D",
      "MagneticFieldStrength": 3.0,
      "Manufacturer": "SIEMENS",
      "ManufacturerModelName": "Prisma",
      "Modality": "MR",
      "NumberOfAverages": 1.0,
      "NumberOfPhaseEncodingSteps": 79,
      "PercentPhaseFieldOfView": 100.0,
      "PercentSampling": 100.0,
      "PerformedProcedureStepStartTime": "084109.967000",
      "PhotometricInterpretation": "MONOCHROME2",
      "PixelBandwidth": 2315.0,
      "PixelRepresentation": 0,
      "PixelSpacing": [3.0, 3.0],
      "ProtocolName": "func-bold_task-rest_acq-p2",
      "RepetitionTime": 2000.0,
      "Rows": 480,
      "SAR": 0.05548729417397,
      "SamplesPerPixel": 1,
      "ScanOptions": "FS",
      "ScanningSequence": "EP",
      "SequenceName": "*epfid2d1_80",
      "SequenceVariant": "SK",
      "SeriesDescription": "func-bold_task-rest_acq-p2",
      "SeriesNumber": 5,
      "SeriesTime": "084928.908000",
      "SliceLocation": -51.540924246181,
      "SliceThickness": 3.5,
      "SmallestImagePixelValue": 0,
      "SoftwareVersions": "syngo MR E11",
      "SpacingBetweenSlices": 3.9899999270643,
      "SpecificCharacterSet": "ISO_IR 100",
      "StudyID": "48",
      "StudyTime": "084109.901000",
      "TransmitCoilName": "Body",
      "VariableFlipAngleFlag": "N",
      "WindowCenterWidthExplanation": "Algo1",
      "dBdt": 0.0},
    "slices": {}
  },
  "time": {
    "samples": {
      "AcquisitionNumber": [1, 2, 3, 4, 5, 6, 7, 8, 9, 10, 11, 12, 13, 14, 15, 16, 17, 18, 19, 20, 21, 22, 23, 24, 25, 26, 27, 28, 29, 30, 31, 32, 33, 34, 35, 36, 37, 38, 39, 40, 41, 42, 43, 44, 45, 46, 47, 48, 49, 50, 51, 52, 53, 54, 55, 56, 57, 58, 59, 60, 61, 62, 63, 64, 65, 66, 67, 68, 69, 70, 71, 72, 73, 74, 75, 76, 77, 78, 79, 80, 81, 82, 83, 84, 85, 86, 87, 88, 89, 90, 91, 92, 93, 94, 95, 96, 97, 98, 99, 100, 101, 102, 103, 104, 105, 106, 107, 108, 109, 110, 111, 112, 113, 114, 115, 116, 117, 118, 119, 120, 121, 122, 123, 124, 125, 126, 127, 128, 129, 130, 131, 132, 133, 134, 135, 136, 137, 138, 139, 140, 141, 142, 143, 144, 145, 146, 147, 148, 149, 150, 151, 152, 153, 154, 155, 156, 157, 158, 159, 160, 161, 162, 163, 164, 165, 166, 167, 168, 169, 170, 171, 172, 173, 174, 175, 176, 177, 178, 179, 180, 181, 182, 183, 184, 185, 186, 187, 188, 189, 190, 191, 192, 193, 194, 195, 196, 197, 198, 199, 200],
      "AcquisitionTime": ["084840.200000", "084842.200000", "084844.200000", "084846.200000", "084848.200000", "084850.200000", "084852.200000", "084854.200000", "084856.200000", "084858.200000", "084900.200000", "084902.200000", "084904.200000", "084906.200000", "084908.200000", "084910.200000", "084912.200000", "084914.200000", "084916.200000", "084918.200000", "084920.200000", "084922.200000", "084924.200000", "084926.200000", "084928.200000", "084930.200000", "084932.200000", "084934.200000", "084936.200000", "084938.200000", "084940.200000", "084942.200000", "084944.200000", "084946.200000", "084948.200000", "084950.200000", "084952.200000", "084954.200000", "084956.200000", "084958.200000", "085000.200000", "085002.200000", "085004.200000", "085006.200000", "085008.200000", "085010.200000", "085012.200000", "085014.200000", "085016.200000", "085018.200000", "085020.200000", "085022.200000", "085024.200000", "085026.200000", "085028.200000", "085030.200000", "085032.200000", "085034.200000", "085036.200000", "085038.200000", "085040.200000", "085042.200000", "085044.200000", "085046.200000", "085048.200000", "085050.200000", "085052.200000", "085054.200000", "085056.200000", "085058.200000", "085100.200000", "085102.200000", "085104.200000", "085106.200000", "085108.200000", "085110.200000", "085112.200000", "085114.200000", "085116.200000", "085118.200000", "085120.200000", "085122.200000", "085124.200000", "085126.200000", "085128.200000", "085130.200000", "085132.200000", "085134.200000", "085136.200000", "085138.200000", "085140.200000", "085142.200000", "085144.200000", "085146.200000", "085148.200000", "085150.200000", "085152.200000", "085154.200000", "085156.200000", "085158.200000", "085200.200000", "085202.200000", "085204.200000", "085206.200000", "085208.200000", "085210.200000", "085212.200000", "085214.200000", "085216.200000", "085218.200000", "085220.200000", "085222.200000", "085224.200000", "085226.200000", "085228.200000", "085230.200000", "085232.200000", "085234.200000", "085236.200000", "085238.200000", "085240.200000", "085242.200000", "085244.200000", "085246.200000", "085248.200000", "085250.200000", "085252.200000", "085254.200000", "085256.200000", "085258.200000", "085300.200000", "085302.200000", "085304.200000", "085306.200000", "085308.200000", "085310.200000", "085312.200000", "085314.200000", "085316.200000", "085318.200000", "085320.200000", "085322.200000", "085324.200000", "085326.200000", "085328.200000", "085330.200000", "085332.200000", "085334.200000", "085336.200000", "085338.200000", "085340.200000", "085342.200000", "085344.200000", "085346.200000", "085348.200000", "085350.200000", "085352.200000", "085354.200000", "085356.200000", "085358.200000", "085400.200000", "085402.200000", "085404.200000", "085406.200000", "085408.200000", "085410.200000", "085412.200000", "085414.200000", "085416.200000", "085418.200000", "085420.200000", "085422.200000", "085424.200000", "085426.200000", "085428.200000", "085430.200000", "085432.200000", "085434.200000", "085436.200000", "085438.200000", "085440.200000", "085442.200000", "085444.200000", "085446.200000", "085448.200000", "085450.200000", "085452.200000", "085454.200000", "085456.200000", "085458.200000", "085500.200000", "085502.200000", "085504.200000", "085506.200000", "085508.200000", "085510.200000", "085512.200000", "085514.200000", "085516.200000", "085518.200000"],
      "ContentTime": ["084928.913000", "084928.917000", "084928.919000", "084928.928000", "084928.931000", "084928.933000", "084928.936000", "084928.938000", "084928.941000", "084928.943000", "084928.946000", "084928.948000", "084928.951000", "084928.953000", "084928.956000", "084928.958000", "084928.961000", "084928.963000", "084928.966000", "084928.968000", "084928.971000", "084928.974000", "084928.976000", "084928.979000", "085008.906000", "085008.909000", "085008.911000", "085008.914000", "085008.916000", "085008.919000", "085008.922000", "085008.924000", "085008.927000", "085008.929000", "085008.932000", "085008.934000", "085008.937000", "085008.939000", "085008.942000", "085008.944000", "085008.947000", "085008.949000", "085008.952000", "085008.954000", "085048.906000", "085048.909000", "085048.912000", "085048.915000", "085048.917000", "085048.920000", "085048.923000", "085048.925000", "085048.928000", "085048.930000", "085048.933000", "085048.936000", "085048.938000", "085048.941000", "085048.943000", "085048.946000", "085048.948000", "085048.951000", "085048.954000", "085048.956000", "085128.906000", "085128.909000", "085128.911000", "085128.914000", "085128.916000", "085128.919000", "085128.921000", "085128.924000", "085128.926000", "085128.929000", "085128.931000", "085128.934000", "085128.936000", "085128.939000", "085128.941000", "085128.944000", "085128.947000", "085128.949000", "085128.952000", "085128.954000", "085208.906000", "085208.909000", "085208.912000", "085208.914000", "085208.917000", "085208.919000", "085208.922000", "085208.924000", "085208.927000", "085208.929000", "085208.932000", "085208.934000", "085208.937000", "085208.939000", "085208.942000", "085208.945000", "085208.947000", "085208.950000", "085208.952000", "085208.955000", "085248.906000", "085248.909000", "085248.911000", "085248.914000", "085248.917000", "085248.919000", "085248.922000", "085248.924000", "085248.927000", "085248.929000", "085248.932000", "085248.934000", "085248.937000", "085248.939000", "085248.942000", "085248.944000", "085248.947000", "085248.949000", "085248.952000", "085248.955000", "085328.906000", "085328.909000", "085328.912000", "085328.914000", "085328.917000", "085328.919000", "085328.923000", "085328.925000", "085328.928000", "085328.930000", "085328.935000", "085328.937000", "085328.940000", "085328.942000", "085328.945000", "085328.947000", "085328.950000", "085328.952000", "085328.955000", "085328.957000", "085408.906000", "085408.909000", "085408.911000", "085408.914000", "085408.917000", "085408.919000", "085408.922000", "085408.924000", "085408.927000", "085408.929000", "085408.932000", "085408.934000", "085408.937000", "085408.939000", "085408.942000", "085408.944000", "085408.947000", "085408.949000", "085408.952000", "085408.954000", "085448.906000", "085448.909000", "085448.911000", "085448.914000", "085448.916000", "085448.919000", "085448.922000", "085448.924000", "085448.927000", "085448.929000", "085448.932000", "085448.934000", "085448.937000", "085448.939000", "085448.942000", "085448.944000", "085448.947000", "085448.949000", "085448.952000", "085448.954000", "085519.278000", "085519.281000", "085519.284000", "085519.287000", "085519.289000", "085519.292000", "085519.294000", "085519.297000", "085519.299000", "085519.302000", "085519.305000", "085519.309000", "085519.315000", "085519.318000", "085519.321000", "085519.329000"],
      "InstanceCreationTime": ["084928.913000", "084928.917000", "084928.919000", "084928.928000", "084928.931000", "084928.933000", "084928.936000", "084928.938000", "084928.941000", "084928.943000", "084928.946000", "084928.948000", "084928.951000", "084928.953000", "084928.956000", "084928.958000", "084928.961000", "084928.963000", "084928.966000", "084928.968000", "084928.971000", "084928.974000", "084928.976000", "084928.979000", "085008.906000", "085008.909000", "085008.911000", "085008.914000", "085008.916000", "085008.919000", "085008.922000", "085008.924000", "085008.927000", "085008.929000", "085008.932000", "085008.934000", "085008.937000", "085008.939000", "085008.942000", "085008.944000", "085008.947000", "085008.949000", "085008.952000", "085008.954000", "085048.906000", "085048.909000", "085048.912000", "085048.915000", "085048.917000", "085048.920000", "085048.923000", "085048.925000", "085048.928000", "085048.930000", "085048.933000", "085048.936000", "085048.938000", "085048.941000", "085048.943000", "085048.946000", "085048.948000", "085048.951000", "085048.954000", "085048.956000", "085128.906000", "085128.909000", "085128.911000", "085128.914000", "085128.916000", "085128.919000", "085128.921000", "085128.924000", "085128.926000", "085128.929000", "085128.931000", "085128.934000", "085128.936000", "085128.939000", "085128.941000", "085128.944000", "085128.947000", "085128.949000", "085128.952000", "085128.954000", "085208.906000", "085208.909000", "085208.912000", "085208.914000", "085208.917000", "085208.919000", "085208.922000", "085208.924000", "085208.927000", "085208.929000", "085208.932000", "085208.934000", "085208.937000", "085208.939000", "085208.942000", "085208.945000", "085208.947000", "085208.950000", "085208.952000", "085208.955000", "085248.906000", "085248.909000", "085248.911000", "085248.914000", "085248.917000", "085248.919000", "085248.922000", "085248.924000", "085248.927000", "085248.929000", "085248.932000", "085248.934000", "085248.937000", "085248.939000", "085248.942000", "085248.944000", "085248.947000", "085248.949000", "085248.952000", "085248.955000", "085328.906000", "085328.909000", "085328.912000", "085328.914000", "085328.917000", "085328.919000", "085328.923000", "085328.925000", "085328.928000", "085328.930000", "085328.935000", "085328.937000", "085328.940000", "085328.942000", "085328.945000", "085328.947000", "085328.950000", "085328.952000", "085328.955000", "085328.957000", "085408.906000", "085408.909000", "085408.911000", "085408.914000", "085408.917000", "085408.919000", "085408.922000", "085408.924000", "085408.927000", "085408.929000", "085408.932000", "085408.934000", "085408.937000", "085408.939000", "085408.942000", "085408.944000", "085408.947000", "085408.949000", "085408.952000", "085408.954000", "085448.906000", "085448.909000", "085448.911000", "085448.914000", "085448.916000", "085448.919000", "085448.922000", "085448.924000", "085448.927000", "085448.929000", "085448.932000", "085448.934000", "085448.937000", "085448.939000", "085448.942000", "085448.944000", "085448.947000", "085448.949000", "085448.952000", "085448.954000", "085519.278000", "085519.281000", "085519.284000", "085519.287000", "085519.289000", "085519.292000", "085519.294000", "085519.297000", "085519.299000", "085519.302000", "085519.305000", "085519.309000", "085519.315000", "085519.318000", "085519.321000", "085519.329000"],
      "InstanceNumber": [1, 2, 3, 4, 5, 6, 7, 8, 9, 10, 11, 12, 13, 14, 15, 16, 17, 18, 19, 20, 21, 22, 23, 24, 25, 26, 27, 28, 29, 30, 31, 32, 33, 34, 35, 36, 37, 38, 39, 40, 41, 42, 43, 44, 45, 46, 47, 48, 49, 50, 51, 52, 53, 54, 55, 56, 57, 58, 59, 60, 61, 62, 63, 64, 65, 66, 67, 68, 69, 70, 71, 72, 73, 74, 75, 76, 77, 78, 79, 80, 81, 82, 83, 84, 85, 86, 87, 88, 89, 90, 91, 92, 93, 94, 95, 96, 97, 98, 99, 100, 101, 102, 103, 104, 105, 106, 107, 108, 109, 110, 111, 112, 113, 114, 115, 116, 117, 118, 119, 120, 121, 122, 123, 124, 125, 126, 127, 128, 129, 130, 131, 132, 133, 134, 135, 136, 137, 138, 139, 140, 141, 142, 143, 144, 145, 146, 147, 148, 149, 150, 151, 152, 153, 154, 155, 156, 157, 158, 159, 160, 161, 162, 163, 164, 165, 166, 167, 168, 169, 170, 171, 172, 173, 174, 175, 176, 177, 178, 179, 180, 181, 182, 183, 184, 185, 186, 187, 188, 189, 190, 191, 192, 193, 194, 195, 196, 197, 198, 199, 200],
      "LargestImagePixelValue": [2229, 2221, 2225, 2218, 2231, 2227, 2229, 2229, 2228, 2224, 2219, 2225, 2220, 2225, 2224, 2233, 2228, 2222, 2228, 2224, 2231, 2231, 2227, 2229, 2224, 2225, 2228, 2227, 2224, 2223, 2227, 2224, 2226, 2233, 2226, 2232, 2225, 2238, 2229, 2226, 2223, 2229, 2226, 2233, 2229, 2233, 2231, 2229, 2235, 2222, 2227, 2223, 2222, 2227, 2216, 2226, 2226, 2231, 2226, 2225, 2238, 2229, 2231, 2222, 2218, 2233, 2226, 2224, 2228, 2232, 2228, 2219, 2232, 2229, 2230, 2224, 2228, 2224, 2227, 2234, 2227, 2231, 2226, 2231, 2238, 2234, 2231, 2224, 2225, 2232, 2228, 2222, 2222, 2234, 2234, 2230, 2235, 2228, 2230, 2234, 2226, 2236, 2234, 2225, 2236, 2236, 2230, 2237, 2225, 2235, 2223, 2236, 2232, 2227, 2229, 2242, 2236, 2236, 2232, 2230, 2245, 2232, 2239, 2230, 2231, 2229, 2227, 2230, 2235, 2228, 2241, 2234, 2222, 2235, 2235, 2235, 2233, 2235, 2223, 2232, 2223, 2232, 2241, 2238, 2232, 2232, 2244, 2230, 2239, 2228, 2229, 2223, 2233, 2235, 2231, 2235, 2227, 2234, 2231, 2225, 2236, 2238, 2231, 2230, 2239, 2236, 2236, 2236, 2234, 2242, 2237, 2242, 2235, 2238, 2226, 2233, 2233, 2228, 2240, 2229, 2241, 2231, 2234, 2232, 2229, 2239, 2234, 2235, 2235, 2230, 2232, 2230, 2234, 2225, 2228, 2235, 2231, 2230, 2228, 2243],
      "WindowCenter": [1002.0, 1002.0, 1002.0, 1002.0, 1002.0, 1002.0, 1002.0, 1002.0, 1002.0, 1001.0, 1002.0, 1002.0, 1002.0, 1002.0, 1002.0, 1002.0, 1002.0, 1002.0, 1002.0, 1002.0, 1002.0, 1002.0, 1002.0, 1002.0, 1002.0, 1002.0, 1002.0, 1002.0, 1002.0, 1002.0, 1002.0, 1002.0, 1002.0, 1002.0, 1002.0, 1002.0, 1002.0, 1002.0, 1002.0, 1002.0, 1002.0, 1002.0, 1003.0, 1002.0, 1002.0, 1002.0, 1002.0, 1002.0, 1002.0, 1002.0, 1002.0, 1002.0, 1002.0, 1002.0, 1002.0, 1002.0, 1002.0, 1002.0, 1002.0, 1002.0, 1002.0, 1002.0, 1002.0, 1002.0, 1002.0, 1002.0, 1002.0, 1002.0, 1003.0, 1003.0, 1002.0, 1002.0, 1002.0, 1002.0, 1002.0, 1002.0, 1002.0, 1002.0, 1002.0, 1002.0, 1002.0, 1002.0, 1002.0, 1002.0, 1002.0, 1002.0, 1002.0, 1002.0, 1002.0, 1002.0, 1002.0, 1002.0, 1002.0, 1002.0, 1002.0, 1002.0, 1002.0, 1002.0, 1002.0, 1002.0, 1002.0, 1002.0, 1002.0, 1002.0, 1002.0, 1002.0, 1002.0, 1002.0, 1002.0, 1002.0, 1002.0, 1002.0, 1002.0, 1002.0, 1002.0, 1002.0, 1002.0, 1002.0, 1002.0, 1002.0, 1002.0, 1002.0, 1002.0, 1002.0, 1002.0, 1002.0, 1002.0, 1002.0, 1002.0, 1002.0, 1002.0, 1002.0, 1002.0, 1002.0, 1002.0, 1002.0, 1002.0, 1002.0, 1002.0, 1002.0, 1002.0, 1002.0, 1002.0, 1002.0, 1002.0, 1002.0, 1003.0, 1002.0, 1002.0, 1002.0, 1002.0, 1002.0, 1002.0, 1002.0, 1002.0, 1002.0, 1002.0, 1002.0, 1002.0, 1003.0, 1002.0, 1002.0, 1002.0, 1002.0, 1002.0, 1002.0, 1002.0, 1002.0, 1002.0, 1002.0, 1002.0, 1002.0, 1002.0, 1002.0, 1002.0, 1002.0, 1002.0, 1002.0, 1002.0, 1002.0, 1003.0, 1002.0, 1002.0, 1002.0, 1002.0, 1002.0, 1002.0, 1002.0, 1002.0, 1002.0, 1002.0, 1002.0, 1002.0, 1002.0, 1002.0, 1002.0, 1002.0, 1002.0, 1002.0, 1001.0],
      "WindowWidth": [2202.0, 2201.0, 2202.0, 2202.0, 2201.0, 2201.0, 2202.0, 2201.0, 2202.0, 2202.0, 2201.0, 2201.0, 2201.0, 2202.0, 2201.0, 2201.0, 2201.0, 2201.0, 2201.0, 2202.0, 2201.0, 2202.0, 2202.0, 2202.0, 2202.0, 2202.0, 2202.0, 2202.0, 2202.0, 2202.0, 2202.0, 2202.0, 2202.0, 2202.0, 2202.0, 2202.0, 2202.0, 2202.0, 2202.0, 2202.0, 2202.0, 2202.0, 2203.0, 2202.0, 2202.0, 2202.0, 2202.0, 2202.0, 2202.0, 2202.0, 2202.0, 2202.0, 2202.0, 2202.0, 2202.0, 2202.0, 2202.0, 2202.0, 2202.0, 2202.0, 2202.0, 2202.0, 2202.0, 2202.0, 2202.0, 2202.0, 2202.0, 2202.0, 2203.0, 2203.0, 2202.0, 2202.0, 2202.0, 2202.0, 2202.0, 2202.0, 2202.0, 2202.0, 2202.0, 2202.0, 2202.0, 2202.0, 2202.0, 2202.0, 2203.0, 2202.0, 2202.0, 2202.0, 2202.0, 2202.0, 2202.0, 2202.0, 2202.0, 2202.0, 2202.0, 2203.0, 2202.0, 2202.0, 2202.0, 2202.0, 2202.0, 2202.0, 2203.0, 2202.0, 2202.0, 2202.0, 2202.0, 2202.0, 2202.0, 2202.0, 2202.0, 2203.0, 2202.0, 2202.0, 2203.0, 2202.0, 2202.0, 2202.0, 2203.0, 2203.0, 2202.0, 2202.0, 2203.0, 2202.0, 2203.0, 2203.0, 2202.0, 2202.0, 2203.0, 2203.0, 2203.0, 2203.0, 2203.0, 2203.0, 2202.0, 2203.0, 2203.0, 2202.0, 2202.0, 2203.0, 2203.0, 2203.0, 2203.0, 2203.0, 2203.0, 2202.0, 2203.0, 2203.0, 2203.0, 2202.0, 2203.0, 2202.0, 2203.0, 2203.0, 2203.0, 2202.0, 2203.0, 2203.0, 2203.0, 2203.0, 2202.0, 2203.0, 2203.0, 2203.0, 2202.0, 2203.0, 2203.0, 2202.0, 2203.0, 2202.0, 2203.0, 2203.0, 2202.0, 2203.0, 2203.0, 2202.0, 2203.0, 2203.0, 2202.0, 2203.0, 2203.0, 2203.0, 2203.0, 2203.0, 2203.0, 2203.0, 2203.0, 2203.0, 2203.0, 2203.0, 2203.0, 2203.0, 2203.0, 2203.0, 2203.0, 2203.0, 2203.0, 2203.0, 2203.0, 2203.0]
    },
    "slices": {}
  }
}