{
  "AcquisitionMatrixPE": 80,
  "AcquisitionNumber": 1,
  "AcquisitionTime": "12:16:32.182500",
  "BandwidthPerPixelPhaseEncode": 44.643,
  "BaseResolution": 80,
  "BodyPartExamined": "BRAIN",
  "CoilCombinationMethod": "Sum of Squares",
  "ConsistencyInfo": "N4_VE11C_LATEST_20160120",
  "ConversionSoftware": "dcm2niix",
  "ConversionSoftwareVersion": "v1.0.20220720",
  "DerivedVendorReportedEchoSpacing": 0.000559998,
  "DeviceSerialNumber": "66112",
  "DwellTime": 2.7e-06,
  "EchoTime": 0.035,
  "EchoTrainLength": 39,
  "EffectiveEchoSpacing": 0.000279999,
  "FlipAngle": 90,
  "HeudiconvVersion": "0.13.1",
  "ImageComments": "QA/20000101/QA/3",
  "ImageOrientationPatientDICOM": [0.98138, 0.191434, 0.01567, -0.187386, 0.936318, 0.296977],
  "ImageOrientationText": "Tra>Cor(17.1)>Sag(-2.4)",
  "ImageType": [
    "ORIGINAL",
    "PRIMARY",
    "M",
    "ND",
    "NORM",
    "MOSAIC"
],
  "ImagingFrequency": 123.252,
  "InPlanePhaseEncodingDirectionDICOM": "COL",
  "InstitutionAddress": "Maynard 3,Hanover,NH,US,03755",
  "InstitutionName": "Dartmouth College - PBS",
  "InstitutionalDepartmentName": "Department",
  "MRAcquisitionType": "2D",
  "MagneticFieldStrength": 3,
  "Manufacturer": "Siemens",
  "ManufacturersModelName": "Prisma",
  "Modality": "MR",
  "MultibandAccelerationFactor": 4,
  "NonlinearGradientCorrection": false,
  "ParallelReductionFactorInPlane": 2,
  "PartialFourier": 1,
  "PatientPosition": "HFS",
  "PercentPhaseFOV": 100,
  "PercentSampling": 100,
  "PhaseEncodingDirection": "j-",
  "PhaseEncodingSteps": 79,
  "PhaseResolution": 1,
  "PixelBandwidth": 2315,
  "ProcedureStepDescription": "dbic^QA",
  "ProtocolName": "func-bold_task-rest_acq-p2-s4-3.5mm",
  "PulseSequenceDetails": "%SiemensSeq%\\ep2d_bold",
  "ReceiveCoilActiveElements": "HEA;HEP",
  "ReceiveCoilName": "Head_32",
  "ReconMatrixPE": 80,
  "RefLinesPE": 24,
  "RepetitionTime": 2,
  "ScanOptions": "FS",
  "ScanningSequence": "EP",
  "SequenceName": "*epfid2d1_80",
  "SequenceVariant": "SK",
  "SeriesDescription": "func-bold_task-rest_acq-p2-s4-3.5mm_RR",
  "SeriesNumber": 6,
  "ShimSetting": [4158, -7700, -7527, 161, 28, -174, 1, 62],
  "SliceThickness": 3.5,
  "SliceTiming": [1.485, 0, 0.99, 0.2475, 1.2375, 0.7425, 1.7325, 0.495, 1.485, 0, 0.99, 0.2475, 1.2375, 0.7425, 1.7325, 0.495, 1.485, 0, 0.99, 0.2475, 1.2375, 0.7425, 1.7325, 0.495, 1.485, 0, 0.99, 0.2475, 1.2375, 0.7425, 1.7325, 0.495],
  "SoftwareVersions": "syngo MR E11",
  "SpacingBetweenSlices": 3.99,
  "StationName": "AWP66112",
  "TaskName": "rest",
  "TotalReadoutTime": 0.0221199,
  "TxRefAmp": 222.314,
  "dcmmeta_affine": [
    [-2.944141149520874, -0.5621575117111206, -0.1682959944009781, 138.49205017089844],
    [-0.5743022561073303, 2.808953285217285, 1.1745924949645996, -94.6830825805664],
    [0.04701012745499611, -0.8909320831298828, 3.809476137161255, -17.14925193786621],
    [0.0, 0.0, 0.0, 1.0]
],
  "dcmmeta_reorient_transform": [
    [0.0, -1.0, 0.0, 79.0],
    [1.0, 0.0, 0.0, 0.0],
    [0.0, 0.0, 1.0, 0.0],
    [0.0, 0.0, 0.0, 1.0]
],
  "dcmmeta_shape": [80, 80, 32, 200],
  "dcmmeta_slice_dim": 2,
  "dcmmeta_version": 0.6,
  "global": {
    "const": {
      "AccessionNumber": "qa",
      "AcquisitionMatrix": [80, 0, 0, 80],
      "AngioFlag": "N",
      "BitsAllocated": 16,
      "BitsStored": 12,
      "BodyPartExamined": "BRAIN",
      "Columns": 480,
      "EchoNumbers": 1,
      "EchoTime": 35.0,
      "EchoTrainLength": 39,
      "FlipAngle": 90.0,
      "HighBit": 11,
      "ImageOrientationPatient": [0.98138037484636, 0.19143408692979, 0.01567004236663, -0.1873858423161, 0.93631778593199, 0.29697735578141],
      "ImagePositionPatient": [-570.47832239017, -803.87535614328, -275.1213244205],
      "ImageType": [
        "ORIGINAL",
        "PRIMARY",
        "M",
        "ND",
        "NORM",
        "MOSAIC"
],
      "ImagedNucleus": "1H",
      "ImagingFrequency": 123.252469,
      "InPlanePhaseEncodingDirection": "COL",
      "MRAcquisitionType": "2D",
      "MagneticFieldStrength": 3.0,
      "Manufacturer": "SIEMENS",
      "ManufacturerModelName": "Prisma",
      "Modality": "MR",
      "NumberOfAverages": 1.0,
      "NumberOfPhaseEncodingSteps": 79,
      "PercentPhaseFieldOfView": 100.0,
      "PercentSampling": 100.0,
      "PerformedProcedureStepStartTime": "120656.548000",
      "PhotometricInterpretation": "MONOCHROME2",
      "PixelBandwidth": 2315.0,
      "PixelRepresentation": 0,
      "PixelSpacing": [3.0, 3.0],
      "ProtocolName": "func-bold_task-rest_acq-p2-s4-3.5mm",
      "RepetitionTime": 2000.0,
      "Rows": 480,
      "SAR": 0.0,
      "SamplesPerPixel": 1,
      "ScanOptions": "FS",
      "ScanningSequence": "EP",
      "SequenceName": "*epfid2d1_80",
      "SequenceVariant": "SK",
      "SeriesDescription": "func-bold_task-rest_acq-p2-s4-3.5mm_RR",
      "SeriesNumber": 6,
      "SeriesTime": "131136.389000",
      "SliceLocation": -50.088062151116,
      "SliceThickness": 3.5,
      "SmallestImagePixelValue": 0,
      "SoftwareVersions": "syngo MR E11",
      "SpacingBetweenSlices": 3.9899998444921,
      "SpecificCharacterSet": "ISO_IR 100",
      "StudyID": "78",
      "StudyTime": "120656.431000",
      "TransmitCoilName": "Body",
      "VariableFlipAngleFlag": "N",
      "WindowCenterWidthExplanation": "Algo1",
      "dBdt": 0.0},
    "slices": {}
  },
  "time": {
    "samples": {
      "AcquisitionNumber": [1, 2, 3, 4, 5, 6, 7, 8, 9, 10, 11, 12, 13, 14, 15, 16, 17, 18, 19, 20, 21, 22, 23, 24, 25, 26, 27, 28, 29, 30, 31, 32, 33, 34, 35, 36, 37, 38, 39, 40, 41, 42, 43, 44, 45, 46, 47, 48, 49, 50, 51, 52, 53, 54, 55, 56, 57, 58, 59, 60, 61, 62, 63, 64, 65, 66, 67, 68, 69, 70, 71, 72, 73, 74, 75, 76, 77, 78, 79, 80, 81, 82, 83, 84, 85, 86, 87, 88, 89, 90, 91, 92, 93, 94, 95, 96, 97, 98, 99, 100, 101, 102, 103, 104, 105, 106, 107, 108, 109, 110, 111, 112, 113, 114, 115, 116, 117, 118, 119, 120, 121, 122, 123, 124, 125, 126, 127, 128, 129, 130, 131, 132, 133, 134, 135, 136, 137, 138, 139, 140, 141, 142, 143, 144, 145, 146, 147, 148, 149, 150, 151, 152, 153, 154, 155, 156, 157, 158, 159, 160, 161, 162, 163, 164, 165, 166, 167, 168, 169, 170, 171, 172, 173, 174, 175, 176, 177, 178, 179, 180, 181, 182, 183, 184, 185, 186, 187, 188, 189, 190, 191, 192, 193, 194, 195, 196, 197, 198, 199, 200],
      "AcquisitionTime": ["121632.182500", "121634.182500", "121636.182500", "121638.182500", "121640.182500", "121642.182500", "121644.182500", "121646.182500", "121648.182500", "121650.182500", "121652.182500", "121654.182500", "121656.182500", "121658.182500", "121700.182500", "121702.182500", "121704.182500", "121706.182500", "121708.182500", "121710.182500", "121712.182500", "121714.182500", "121716.182500", "121718.182500", "121720.182500", "121722.182500", "121724.182500", "121726.182500", "121728.182500", "121730.182500", "121732.182500", "121734.182500", "121736.182500", "121738.182500", "121740.182500", "121742.182500", "121744.182500", "121746.182500", "121748.182500", "121750.182500", "121752.182500", "121754.182500", "121756.182500", "121758.182500", "121800.182500", "121802.182500", "121804.182500", "121806.182500", "121808.182500", "121810.182500", "121812.182500", "121814.182500", "121816.182500", "121818.182500", "121820.182500", "121822.182500", "121824.182500", "121826.182500", "121828.182500", "121830.182500", "121832.182500", "121834.182500", "121836.182500", "121838.182500", "121840.182500", "121842.182500", "121844.182500", "121846.182500", "121848.182500", "121850.182500", "121852.182500", "121854.182500", "121856.182500", "121858.182500", "121900.182500", "121902.182500", "121904.182500", "121906.182500", "121908.182500", "121910.182500", "121912.182500", "121914.182500", "121916.182500", "121918.182500", "121920.182500", "121922.182500", "121924.182500", "121926.182500", "121928.182500", "121930.182500", "121932.182500", "121934.182500", "121936.182500", "121938.182500", "121940.182500", "121942.182500", "121944.182500", "121946.182500", "121948.182500", "121950.182500", "121952.182500", "121954.182500", "121956.182500", "121958.182500", "122000.182500", "122002.182500", "122004.182500", "122006.182500", "122008.182500", "122010.182500", "122012.182500", "122014.182500", "122016.182500", "122018.182500", "122020.182500", "122022.182500", "122024.182500", "122026.182500", "122028.182500", "122030.182500", "122032.182500", "122034.182500", "122036.182500", "122038.182500", "122040.182500", "122042.182500", "122044.182500", "122046.182500", "122048.182500", "122050.182500", "122052.182500", "122054.182500", "122056.182500", "122058.182500", "122100.182500", "122102.182500", "122104.182500", "122106.182500", "122108.182500", "122110.182500", "122112.182500", "122114.182500", "122116.182500", "122118.182500", "122120.182500", "122122.182500", "122124.182500", "122126.182500", "122128.182500", "122130.182500", "122132.182500", "122134.182500", "122136.182500", "122138.182500", "122140.182500", "122142.182500", "122144.182500", "122146.182500", "122148.182500", "122150.182500", "122152.182500", "122154.182500", "122156.182500", "122158.182500", "122200.182500", "122202.182500", "122204.182500", "122206.182500", "122208.182500", "122210.182500", "122212.182500", "122214.182500", "122216.182500", "122218.182500", "122220.182500", "122222.182500", "122224.182500", "122226.182500", "122228.182500", "122230.182500", "122232.182500", "122234.182500", "122236.182500", "122238.182500", "122240.182500", "122242.182500", "122244.182500", "122246.182500", "122248.182500", "122250.182500", "122252.182500", "122254.182500", "122256.182500", "122258.182500", "122300.182500", "122302.182500", "122304.182500", "122306.182500", "122308.182500", "122310.182500"],
      "ContentTime": ["131136.404000", "131136.407000", "131136.410000", "131136.413000", "131136.415000", "131136.418000", "131136.421000", "131136.423000", "131136.426000", "131136.429000", "131136.431000", "131136.434000", "131136.437000", "131136.439000", "131136.442000", "131136.445000", "131136.447000", "131136.450000", "131136.453000", "131136.455000", "131136.458000", "131136.461000", "131136.464000", "131136.466000", "131136.469000", "131136.472000", "131136.474000", "131136.477000", "131136.479000", "131136.482000", "131136.485000", "131136.487000", "131136.490000", "131136.493000", "131136.495000", "131136.498000", "131136.500000", "131136.503000", "131136.506000", "131136.508000", "131136.511000", "131136.513000", "131136.516000", "131136.519000", "131136.522000", "131136.525000", "131136.527000", "131136.530000", "131136.532000", "131136.535000", "131136.538000", "131136.540000", "131136.543000", "131136.546000", "131136.548000", "131136.551000", "131136.553000", "131136.556000", "131136.559000", "131136.561000", "131136.564000", "131136.567000", "131136.569000", "131136.572000", "131136.575000", "131136.577000", "131136.580000", "131136.583000", "131136.585000", "131136.588000", "131136.590000", "131136.593000", "131136.596000", "131136.598000", "131136.601000", "131136.604000", "131136.606000", "131136.609000", "131136.612000", "131136.614000", "131136.617000", "131136.620000", "131136.622000", "131136.625000", "131136.628000", "131136.631000", "131136.633000", "131136.636000", "131136.638000", "131136.641000", "131136.644000", "131136.646000", "131136.649000", "131136.652000", "131136.654000", "131136.657000", "131136.660000", "131136.662000", "131136.665000", "131136.668000", "131136.670000", "131136.673000", "131136.675000", "131136.678000", "131136.681000", "131136.683000", "131136.686000", "131136.689000", "131136.691000", "131136.694000", "131136.697000", "131136.699000", "131136.702000", "131136.705000", "131136.707000", "131136.710000", "131136.713000", "131136.715000", "131136.718000", "131136.721000", "131136.723000", "131136.726000", "131136.728000", "131136.731000", "131136.734000", "131136.736000", "131136.739000", "131136.742000", "131136.745000", "131136.747000", "131136.750000", "131136.752000", "131136.755000", "131136.758000", "131136.769000", "131136.777000", "131136.780000", "131136.782000", "131136.785000", "131136.788000", "131136.790000", "131136.793000", "131136.796000", "131136.798000", "131136.801000", "131136.803000", "131136.806000", "131136.809000", "131136.812000", "131136.815000", "131136.817000", "131136.820000", "131136.823000", "131136.825000", "131136.828000", "131136.831000", "131136.833000", "131136.836000", "131136.838000", "131136.841000", "131136.844000", "131136.846000", "131136.849000", "131136.852000", "131136.854000", "131136.857000", "131136.859000", "131136.862000", "131136.865000", "131136.867000", "131136.879000", "131136.882000", "131136.884000", "131136.887000", "131136.890000", "131136.892000", "131136.895000", "131136.898000", "131136.901000", "131136.903000", "131136.906000", "131136.909000", "131136.911000", "131136.914000", "131136.917000", "131136.919000", "131136.922000", "131136.925000", "131136.927000", "131136.930000", "131136.933000", "131136.936000", "131136.938000", "131136.941000", "131136.943000", "131136.946000", "131136.949000", "131136.951000", "131136.954000", "131136.957000"],
      "InstanceCreationTime": ["131136.404000", "131136.407000", "131136.410000", "131136.413000", "131136.415000", "131136.418000", "131136.421000", "131136.423000", "131136.426000", "131136.429000", "131136.431000", "131136.434000", "131136.437000", "131136.439000", "131136.442000", "131136.445000", "131136.447000", "131136.450000", "131136.453000", "131136.455000", "131136.458000", "131136.461000", "131136.464000", "131136.466000", "131136.469000", "131136.472000", "131136.474000", "131136.477000", "131136.479000", "131136.482000", "131136.485000", "131136.487000", "131136.490000", "131136.493000", "131136.495000", "131136.498000", "131136.500000", "131136.503000", "131136.506000", "131136.508000", "131136.511000", "131136.513000", "131136.516000", "131136.519000", "131136.522000", "131136.525000", "131136.527000", "131136.530000", "131136.532000", "131136.535000", "131136.538000", "131136.540000", "131136.543000", "131136.546000", "131136.548000", "131136.551000", "131136.553000", "131136.556000", "131136.559000", "131136.561000", "131136.564000", "131136.567000", "131136.569000", "131136.572000", "131136.575000", "131136.577000", "131136.580000", "131136.583000", "131136.585000", "131136.588000", "131136.590000", "131136.593000", "131136.596000", "131136.598000", "131136.601000", "131136.604000", "131136.606000", "131136.609000", "131136.612000", "131136.614000", "131136.617000", "131136.620000", "131136.622000", "131136.625000", "131136.628000", "131136.631000", "131136.633000", "131136.636000", "131136.638000", "131136.641000", "131136.644000", "131136.646000", "131136.649000", "131136.652000", "131136.654000", "131136.657000", "131136.660000", "131136.662000", "131136.665000", "131136.668000", "131136.670000", "131136.673000", "131136.675000", "131136.678000", "131136.681000", "131136.683000", "131136.686000", "131136.689000", "131136.691000", "131136.694000", "131136.697000", "131136.699000", "131136.702000", "131136.705000", "131136.707000", "131136.710000", "131136.713000", "131136.715000", "131136.718000", "131136.721000", "131136.723000", "131136.726000", "131136.728000", "131136.731000", "131136.734000", "131136.736000", "131136.739000", "131136.742000", "131136.745000", "131136.747000", "131136.750000", "131136.752000", "131136.755000", "131136.758000", "131136.769000", "131136.777000", "131136.780000", "131136.782000", "131136.785000", "131136.788000", "131136.790000", "131136.793000", "131136.796000", "131136.798000", "131136.801000", "131136.803000", "131136.806000", "131136.809000", "131136.812000", "131136.815000", "131136.817000", "131136.820000", "131136.823000", "131136.825000", "131136.828000", "131136.831000", "131136.833000", "131136.836000", "131136.838000", "131136.841000", "131136.844000", "131136.846000", "131136.849000", "131136.852000", "131136.854000", "131136.857000", "131136.859000", "131136.862000", "131136.865000", "131136.867000", "131136.879000", "131136.882000", "131136.884000", "131136.887000", "131136.890000", "131136.892000", "131136.895000", "131136.898000", "131136.901000", "131136.903000", "131136.906000", "131136.909000", "131136.911000", "131136.914000", "131136.917000", "131136.919000", "131136.922000", "131136.925000", "131136.927000", "131136.930000", "131136.933000", "131136.936000", "131136.938000", "131136.941000", "131136.943000", "131136.946000", "131136.949000", "131136.951000", "131136.954000", "131136.957000"],
      "InstanceNumber": [1, 2, 3, 4, 5, 6, 7, 8, 9, 10, 11, 12, 13, 14, 15, 16, 17, 18, 19, 20, 21, 22, 23, 24, 25, 26, 27, 28, 29, 30, 31, 32, 33, 34, 35, 36, 37, 38, 39, 40, 41, 42, 43, 44, 45, 46, 47, 48, 49, 50, 51, 52, 53, 54, 55, 56, 57, 58, 59, 60, 61, 62, 63, 64, 65, 66, 67, 68, 69, 70, 71, 72, 73, 74, 75, 76, 77, 78, 79, 80, 81, 82, 83, 84, 85, 86, 87, 88, 89, 90, 91, 92, 93, 94, 95, 96, 97, 98, 99, 100, 101, 102, 103, 104, 105, 106, 107, 108, 109, 110, 111, 112, 113, 114, 115, 116, 117, 118, 119, 120, 121, 122, 123, 124, 125, 126, 127, 128, 129, 130, 131, 132, 133, 134, 135, 136, 137, 138, 139, 140, 141, 142, 143, 144, 145, 146, 147, 148, 149, 150, 151, 152, 153, 154, 155, 156, 157, 158, 159, 160, 161, 162, 163, 164, 165, 166, 167, 168, 169, 170, 171, 172, 173, 174, 175, 176, 177, 178, 179, 180, 181, 182, 183, 184, 185, 186, 187, 188, 189, 190, 191, 192, 193, 194, 195, 196, 197, 198, 199, 200],
      "LargestImagePixelValue": [2217, 2216, 2223, 2216, 2221, 2222, 2221, 2226, 2223, 2219, 2224, 2219, 2218, 2221, 2216, 2221, 2224, 2221, 2219, 2220, 2221, 2220, 2217, 2221, 2222, 2222, 2222, 2220, 2222, 2220, 2223, 2221, 2225, 2220, 2214, 2225, 2224, 2222, 2227, 2220, 2228, 2225, 2218, 2223, 2222, 2223, 2218, 2225, 2221, 2224, 2219, 2223, 2224, 2220, 2219, 2224, 2225, 2226, 2226, 2219, 2223, 2229, 2225, 2221, 2225, 2219, 2218, 2221, 2222, 2227, 2224, 2228, 2225, 2226, 2224, 2221, 2225, 2226, 2220, 2226, 2221, 2224, 2228, 2227, 2220, 2222, 2224, 2220, 2226, 2225, 2220, 2220, 2222, 2223, 2225, 2225, 2223, 2224, 2222, 2222, 2223, 2224, 2223, 2225, 2227, 2224, 2222, 2225, 2225, 2222, 2223, 2227, 2224, 2225, 2225, 2224, 2223, 2220, 2224, 2228, 2226, 2223, 2217, 2226, 2221, 2225, 2224, 2223, 2223, 2224, 2224, 2224, 2220, 2222, 2229, 2221, 2223, 2226, 2227, 2224, 2225, 2222, 2226, 2224, 2228, 2225, 2226, 2225, 2226, 2223, 2226, 2222, 2226, 2226, 2223, 2227, 2225, 2225, 2224, 2223, 2225, 2225, 2228, 2225, 2227, 2224, 2228, 2225, 2227, 2222, 2225, 2227, 2224, 2223, 2221, 2225, 2221, 2221, 2223, 2225, 2224, 2227, 2223, 2226, 2227, 2229, 2229, 2225, 2223, 2227, 2225, 2228, 2225, 2227, 2229, 2230, 2229, 2223, 2222, 2221],
      "WindowCenter": [948.0, 948.0, 948.0, 948.0, 949.0, 948.0, 948.0, 948.0, 948.0, 948.0, 948.0, 948.0, 948.0, 949.0, 948.0, 949.0, 949.0, 948.0, 948.0, 949.0, 948.0, 948.0, 948.0, 948.0, 948.0, 948.0, 949.0, 948.0, 948.0, 948.0, 948.0, 948.0, 948.0, 949.0, 948.0, 948.0, 949.0, 949.0, 948.0, 949.0, 949.0, 948.0, 949.0, 949.0, 948.0, 948.0, 948.0, 949.0, 948.0, 948.0, 948.0, 949.0, 948.0, 949.0, 948.0, 948.0, 948.0, 949.0, 948.0, 948.0, 948.0, 948.0, 948.0, 948.0, 948.0, 948.0, 948.0, 948.0, 948.0, 948.0, 948.0, 948.0, 948.0, 949.0, 948.0, 948.0, 948.0, 948.0, 948.0, 949.0, 948.0, 948.0, 948.0, 948.0, 948.0, 948.0, 948.0, 949.0, 948.0, 948.0, 948.0, 948.0, 949.0, 948.0, 948.0, 948.0, 949.0, 948.0, 948.0, 948.0, 948.0, 949.0, 949.0, 948.0, 948.0, 948.0, 949.0, 948.0, 948.0, 948.0, 948.0, 948.0, 949.0, 948.0, 948.0, 948.0, 948.0, 948.0, 949.0, 949.0, 948.0, 948.0, 949.0, 948.0, 949.0, 948.0, 948.0, 949.0, 949.0, 948.0, 949.0, 948.0, 948.0, 948.0, 948.0, 949.0, 948.0, 949.0, 948.0, 948.0, 948.0, 948.0, 948.0, 948.0, 949.0, 948.0, 948.0, 948.0, 948.0, 948.0, 948.0, 948.0, 948.0, 948.0, 949.0, 948.0, 948.0, 948.0, 949.0, 949.0, 948.0, 948.0, 949.0, 948.0, 948.0, 948.0, 948.0, 948.0, 949.0, 948.0, 948.0, 948.0, 949.0, 948.0, 948.0, 949.0, 948.0, 949.0, 948.0, 948.0, 948.0, 949.0, 948.0, 948.0, 949.0, 948.0, 949.0, 948.0, 948.0, 948.0, 948.0, 948.0, 948.0, 948.0, 948.0, 948.0, 948.0, 948.0, 948.0, 948.0],
      "WindowWidth": [2200.0, 2200.0, 2201.0, 2201.0, 2201.0, 2200.0, 2200.0, 2200.0, 2200.0, 2200.0, 2201.0, 2200.0, 2200.0, 2201.0, 2200.0, 2201.0, 2201.0, 2200.0, 2200.0, 2201.0, 2200.0, 2200.0, 2200.0, 2200.0, 2200.0, 2200.0, 2201.0, 2200.0, 2200.0, 2200.0, 2200.0, 2200.0, 2200.0, 2201.0, 2200.0, 2200.0, 2201.0, 2201.0, 2200.0, 2201.0, 2201.0, 2200.0, 2201.0, 2201.0, 2200.0, 2200.0, 2200.0, 2201.0, 2200.0, 2200.0, 2200.0, 2201.0, 2201.0, 2201.0, 2201.0, 2201.0, 2200.0, 2201.0, 2200.0, 2200.0, 2200.0, 2200.0, 2200.0, 2200.0, 2200.0, 2200.0, 2201.0, 2200.0, 2200.0, 2200.0, 2201.0, 2201.0, 2201.0, 2202.0, 2200.0, 2200.0, 2201.0, 2200.0, 2200.0, 2202.0, 2200.0, 2200.0, 2200.0, 2200.0, 2201.0, 2200.0, 2201.0, 2201.0, 2200.0, 2200.0, 2201.0, 2201.0, 2202.0, 2200.0, 2201.0, 2200.0, 2201.0, 2201.0, 2201.0, 2201.0, 2200.0, 2201.0, 2201.0, 2201.0, 2200.0, 2201.0, 2201.0, 2201.0, 2200.0, 2201.0, 2200.0, 2200.0, 2201.0, 2200.0, 2201.0, 2201.0, 2200.0, 2201.0, 2202.0, 2201.0, 2200.0, 2200.0, 2201.0, 2200.0, 2201.0, 2200.0, 2200.0, 2201.0, 2202.0, 2200.0, 2202.0, 2201.0, 2200.0, 2200.0, 2201.0, 2202.0, 2200.0, 2202.0, 2200.0, 2200.0, 2200.0, 2200.0, 2200.0, 2200.0, 2202.0, 2200.0, 2200.0, 2200.0, 2200.0, 2201.0, 2201.0, 2200.0, 2200.0, 2200.0, 2201.0, 2200.0, 2200.0, 2200.0, 2201.0, 2201.0, 2200.0, 2200.0, 2201.0, 2200.0, 2200.0, 2200.0, 2200.0, 2200.0, 2202.0, 2200.0, 2200.0, 2201.0, 2201.0, 2200.0, 2200.0, 2202.0, 2200.0, 2202.0, 2200.0, 2200.0, 2200.0, 2201.0, 2200.0, 2200.0, 2202.0, 2200.0, 2201.0, 2200.0, 2200.0, 2200.0, 2200.0, 2200.0, 2200.0, 2200.0, 2200.0, 2201.0, 2200.0, 2200.0, 2200.0, 2200.0]
    },
    "slices": {}
  }
}