{
  "AcquisitionMatrixPE": 80,
  "AcquisitionNumber": 1,
  "AcquisitionTime": "09:42:2.827500",
  "BandwidthPerPixelPhaseEncode": 48.077,
  "BaseResolution": 80,
  "BodyPartExamined": "BRAIN",
  "CoilCombinationMethod": "Sum of Squares",
  "ConsistencyInfo": "N4_VE11C_LATEST_20160120",
  "ConversionSoftware": "dcm2niix",
  "ConversionSoftwareVersion": "v1.0.20220720",
  "DerivedVendorReportedEchoSpacing": 0.000519999,
  "DeviceSerialNumber": "66112",
  "DwellTime": 2.7e-06,
  "EchoTime": 0.035,
  "EchoTrainLength": 39,
  "EffectiveEchoSpacing": 0.00026,
  "FlipAngle": 90,
  "HeudiconvVersion": "0.13.1",
  "ImageOrientationPatientDICOM": [0.994457, -0.10489, 0.00723879, 0.0901527, 0.886108, 0.454625],
  "ImageOrientationText": "Tra>Cor(26.9)>Sag(3.1)",
  "ImageType": [
    "ORIGINAL",
    "PRIMARY",
    "M",
    "ND",
    "NORM",
    "MOSAIC"
],
  "ImagingFrequency": 123.252,
  "InPlanePhaseEncodingDirectionDICOM": "COL",
  "InstitutionAddress": "Maynard 3,Hanover,NH,US,03755",
  "InstitutionName": "Dartmouth College - PBS",
  "InstitutionalDepartmentName": "Department",
  "MRAcquisitionType": "2D",
  "MagneticFieldStrength": 3,
  "Manufacturer": "Siemens",
  "ManufacturersModelName": "Prisma",
  "MatrixCoilMode": "GRAPPA",
  "Modality": "MR",
  "NonlinearGradientCorrection": false,
  "ParallelReductionFactorInPlane": 2,
  "PartialFourier": 1,
  "PatientPosition": "HFS",
  "PercentPhaseFOV": 100,
  "PercentSampling": 100,
  "PhaseEncodingDirection": "j-",
  "PhaseEncodingSteps": 79,
  "PhaseResolution": 1,
  "PixelBandwidth": 2315,
  "ProcedureStepDescription": "dbic^QA",
  "ProtocolName": "func-bold_task-rest_acq-p2",
  "PulseSequenceDetails": "%SiemensSeq%\\ep2d_bold",
  "ReceiveCoilActiveElements": "HEA;HEP",
  "ReceiveCoilName": "Head_32",
  "ReconMatrixPE": 80,
  "RefLinesPE": 24,
  "RepetitionTime": 2,
  "SAR": 0.055435,
  "ScanOptions": "FS",
  "ScanningSequence": "EP",
  "SequenceName": "*epfid2d1_80",
  "SequenceVariant": "SK",
  "SeriesDescription": "func-bold_task-rest_acq-p2",
  "SeriesNumber": 5,
  "ShimSetting": [4145, -7708, -7518, 212, -75, -74, -3, 57],
  "SliceThickness": 3.5,
  "SliceTiming": [0.99, 0, 1.0575, 0.0675, 1.1225, 0.1325, 1.1875, 0.2, 1.255, 0.265, 1.32, 0.33, 1.3875, 0.3975, 1.4525, 0.4625, 1.5175, 0.53, 1.585, 0.595, 1.65, 0.66, 1.7175, 0.7275, 1.7825, 0.7925, 1.8475, 0.86, 1.915, 0.925],
  "SoftwareVersions": "syngo MR E11",
  "SpacingBetweenSlices": 3.99,
  "StationName": "AWP66112",
  "TaskName": "rest",
  "TotalReadoutTime": 0.02054,
  "TxRefAmp": 231.078,
  "dcmmeta_affine": [
    [-2.983372449874878, 0.27045825123786926, 0.21585923433303833, 106.98702239990234],
    [0.3146703243255615, 2.658325433731079, 1.801297664642334, -136.45404052734375],
    [0.021716369315981865, -1.363876223564148, 3.553706645965576, 18.425376892089844],
    [0.0, 0.0, 0.0, 1.0]
],
  "dcmmeta_reorient_transform": [
    [0.0, -1.0, 0.0, 79.0],
    [1.0, 0.0, 0.0, 0.0],
    [0.0, 0.0, 1.0, 0.0],
    [0.0, 0.0, 0.0, 1.0]
],
  "dcmmeta_shape": [80, 80, 30, 200],
  "dcmmeta_slice_dim": 2,
  "dcmmeta_version": 0.6,
  "global": {
    "const": {
      "AccessionNumber": "qa",
      "AcquisitionMatrix": [80, 0, 0, 80],
      "AngioFlag": "N",
      "BitsAllocated": 16,
      "BitsStored": 12,
      "BodyPartExamined": "BRAIN",
      "Columns": 480,
      "EchoNumbers": 1,
      "EchoTime": 35.0,
      "EchoTrainLength": 39,
      "FlipAngle": 90.0,
      "HighBit": 11,
      "ImageOrientationPatient": [0.99445747309799, -0.1048901049956, 0.00723878950976, 0.09015274690802, 0.886108470518, 0.45462540701241],
      "ImagePositionPatient": [-779.11935892885, -542.28468014633, -366.43936199889],
      "ImageType": [
        "ORIGINAL",
        "PRIMARY",
        "M",
        "ND",
        "NORM",
        "MOSAIC"
],
      "ImagedNucleus": "1H",
      "ImagingFrequency": 123.252365,
      "InPlanePhaseEncodingDirection": "COL",
      "MRAcquisitionType": "2D",
      "MagneticFieldStrength": 3.0,
      "Manufacturer": "SIEMENS",
      "ManufacturerModelName": "Prisma",
      "Modality": "MR",
      "NumberOfAverages": 1.0,
      "NumberOfPhaseEncodingSteps": 79,
      "PercentPhaseFieldOfView": 100.0,
      "PercentSampling": 100.0,
      "PerformedProcedureStepStartTime": "093748.141000",
      "PhotometricInterpretation": "MONOCHROME2",
      "PixelBandwidth": 2315.0,
      "PixelRepresentation": 0,
      "PixelSpacing": [3.0, 3.0],
      "ProtocolName": "func-bold_task-rest_acq-p2",
      "RepetitionTime": 2000.0,
      "Rows": 480,
      "SAR": 0.05543504155335,
      "SamplesPerPixel": 1,
      "ScanOptions": "FS",
      "ScanningSequence": "EP",
      "SequenceName": "*epfid2d1_80",
      "SequenceVariant": "SK",
      "SeriesDescription": "func-bold_task-rest_acq-p2",
      "SeriesNumber": 5,
      "SeriesTime": "094254.969000",
      "SliceLocation": -39.403965728785,
      "SliceThickness": 3.5,
      "SmallestImagePixelValue": 0,
      "SoftwareVersions": "syngo MR E11",
      "SpacingBetweenSlices": 3.9900000054258,
      "SpecificCharacterSet": "ISO_IR 100",
      "StudyID": "4",
      "StudyTime": "093748.092000",
      "TransmitCoilName": "Body",
      "VariableFlipAngleFlag": "N",
      "WindowCenterWidthExplanation": "Algo1",
      "dBdt": 0.0},
    "slices": {}
  },
  "time": {
    "samples": {
      "AcquisitionNumber": [1, 2, 3, 4, 5, 6, 7, 8, 9, 10, 11, 12, 13, 14, 15, 16, 17, 18, 19, 20, 21, 22, 23, 24, 25, 26, 27, 28, 29, 30, 31, 32, 33, 34, 35, 36, 37, 38, 39, 40, 41, 42, 43, 44, 45, 46, 47, 48, 49, 50, 51, 52, 53, 54, 55, 56, 57, 58, 59, 60, 61, 62, 63, 64, 65, 66, 67, 68, 69, 70, 71, 72, 73, 74, 75, 76, 77, 78, 79, 80, 81, 82, 83, 84, 85, 86, 87, 88, 89, 90, 91, 92, 93, 94, 95, 96, 97, 98, 99, 100, 101, 102, 103, 104, 105, 106, 107, 108, 109, 110, 111, 112, 113, 114, 115, 116, 117, 118, 119, 120, 121, 122, 123, 124, 125, 126, 127, 128, 129, 130, 131, 132, 133, 134, 135, 136, 137, 138, 139, 140, 141, 142, 143, 144, 145, 146, 147, 148, 149, 150, 151, 152, 153, 154, 155, 156, 157, 158, 159, 160, 161, 162, 163, 164, 165, 166, 167, 168, 169, 170, 171, 172, 173, 174, 175, 176, 177, 178, 179, 180, 181, 182, 183, 184, 185, 186, 187, 188, 189, 190, 191, 192, 193, 194, 195, 196, 197, 198, 199, 200],
      "AcquisitionTime": ["094202.827500", "094204.827500", "094206.827500", "094208.827500", "094210.827500", "094212.827500", "094214.827500", "094216.827500", "094218.827500", "094220.827500", "094222.827500", "094224.827500", "094226.827500", "094228.827500", "094230.827500", "094232.827500", "094234.827500", "094236.827500", "094238.827500", "094240.827500", "094242.827500", "094244.827500", "094246.827500", "094248.827500", "094250.827500", "094252.827500", "094254.827500", "094256.827500", "094258.827500", "094300.827500", "094302.827500", "094304.827500", "094306.827500", "094308.827500", "094310.827500", "094312.827500", "094314.827500", "094316.827500", "094318.827500", "094320.827500", "094322.827500", "094324.827500", "094326.827500", "094328.827500", "094330.827500", "094332.827500", "094334.827500", "094336.827500", "094338.827500", "094340.827500", "094342.827500", "094344.827500", "094346.827500", "094348.827500", "094350.827500", "094352.827500", "094354.827500", "094356.827500", "094358.827500", "094400.827500", "094402.827500", "094404.827500", "094406.827500", "094408.827500", "094410.827500", "094412.827500", "094414.827500", "094416.827500", "094418.827500", "094420.827500", "094422.827500", "094424.827500", "094426.827500", "094428.827500", "094430.827500", "094432.827500", "094434.827500", "094436.827500", "094438.827500", "094440.827500", "094442.827500", "094444.827500", "094446.827500", "094448.827500", "094450.827500", "094452.827500", "094454.827500", "094456.827500", "094458.827500", "094500.827500", "094502.827500", "094504.827500", "094506.827500", "094508.827500", "094510.827500", "094512.827500", "094514.827500", "094516.827500", "094518.827500", "094520.827500", "094522.827500", "094524.827500", "094526.827500", "094528.827500", "094530.827500", "094532.827500", "094534.827500", "094536.827500", "094538.827500", "094540.827500", "094542.827500", "094544.827500", "094546.827500", "094548.827500", "094550.827500", "094552.827500", "094554.827500", "094556.827500", "094558.827500", "094600.827500", "094602.827500", "094604.827500", "094606.827500", "094608.827500", "094610.827500", "094612.827500", "094614.827500", "094616.827500", "094618.827500", "094620.827500", "094622.827500", "094624.827500", "094626.827500", "094628.827500", "094630.827500", "094632.827500", "094634.827500", "094636.827500", "094638.827500", "094640.827500", "094642.827500", "094644.827500", "094646.827500", "094648.827500", "094650.827500", "094652.827500", "094654.827500", "094656.827500", "094658.827500", "094700.827500", "094702.827500", "094704.827500", "094706.827500", "094708.827500", "094710.827500", "094712.827500", "094714.827500", "094716.827500", "094718.827500", "094720.827500", "094722.827500", "094724.827500", "094726.827500", "094728.827500", "094730.827500", "094732.827500", "094734.827500", "094736.827500", "094738.827500", "094740.827500", "094742.827500", "094744.827500", "094746.827500", "094748.827500", "094750.827500", "094752.827500", "094754.827500", "094756.827500", "094758.827500", "094800.827500", "094802.827500", "094804.827500", "094806.827500", "094808.827500", "094810.827500", "094812.827500", "094814.827500", "094816.827500", "094818.827500", "094820.827500", "094822.827500", "094824.827500", "094826.827500", "094828.827500", "094830.827500", "094832.827500", "094834.827500", "094836.827500", "094838.827500", "094840.827500"],
      "ContentTime": ["094254.972000", "094254.976000", "094254.978000", "094254.981000", "094254.983000", "094254.986000", "094254.989000", "094254.991000", "094254.994000", "094254.996000", "094254.999000", "094255.002000", "094255.004000", "094255.007000", "094255.009000", "094255.012000", "094255.015000", "094255.017000", "094255.020000", "094255.022000", "094255.025000", "094255.028000", "094255.030000", "094255.033000", "094255.035000", "094255.038000", "094334.967000", "094334.970000", "094334.973000", "094334.975000", "094334.978000", "094334.981000", "094334.983000", "094334.986000", "094334.988000", "094334.991000", "094334.994000", "094334.997000", "094334.999000", "094335.002000", "094335.004000", "094335.007000", "094335.009000", "094335.012000", "094335.014000", "094335.017000", "094414.966000", "094414.969000", "094414.972000", "094414.974000", "094414.977000", "094414.980000", "094414.982000", "094414.985000", "094414.987000", "094414.990000", "094414.992000", "094414.995000", "094414.998000", "094415.001000", "094415.004000", "094415.006000", "094415.009000", "094415.012000", "094415.014000", "094415.017000", "094434.967000", "094434.969000", "094434.972000", "094434.974000", "094434.977000", "094434.980000", "094434.982000", "094434.985000", "094434.987000", "094434.990000", "094514.967000", "094514.970000", "094514.973000", "094514.976000", "094514.978000", "094514.981000", "094514.983000", "094514.986000", "094514.988000", "094514.991000", "094514.994000", "094514.996000", "094514.999000", "094515.001000", "094515.004000", "094515.006000", "094515.009000", "094515.012000", "094515.014000", "094515.017000", "094554.967000", "094554.970000", "094554.973000", "094554.975000", "094554.978000", "094554.981000", "094554.983000", "094554.986000", "094554.988000", "094554.991000", "094554.994000", "094554.996000", "094554.999000", "094555.001000", "094555.004000", "094555.006000", "094555.009000", "094555.012000", "094555.014000", "094555.017000", "094634.966000", "094634.969000", "094634.972000", "094634.974000", "094634.977000", "094634.980000", "094634.982000", "094634.985000", "094634.988000", "094634.990000", "094634.993000", "094634.995000", "094634.998000", "094635.001000", "094635.003000", "094635.006000", "094635.008000", "094635.011000", "094635.014000", "094635.016000", "094714.967000", "094714.969000", "094714.972000", "094714.974000", "094714.977000", "094714.980000", "094714.982000", "094714.985000", "094714.987000", "094714.990000", "094714.993000", "094714.995000", "094714.998000", "094715.002000", "094715.004000", "094715.007000", "094715.009000", "094715.012000", "094715.015000", "094715.017000", "094754.968000", "094754.970000", "094754.973000", "094754.976000", "094754.978000", "094754.981000", "094754.983000", "094754.986000", "094754.989000", "094754.991000", "094754.994000", "094754.996000", "094754.999000", "094755.002000", "094755.004000", "094755.007000", "094755.009000", "094755.012000", "094755.015000", "094755.017000", "094834.966000", "094834.969000", "094834.972000", "094834.974000", "094834.977000", "094834.980000", "094834.982000", "094834.985000", "094834.987000", "094835.006000", "094835.008000", "094835.011000", "094835.013000", "094835.016000", "094835.019000", "094835.021000", "094835.024000", "094835.026000", "094835.029000", "094835.032000", "094842.228000", "094842.231000", "094842.234000", "094842.236000"],
      "InstanceCreationTime": ["094254.972000", "094254.976000", "094254.978000", "094254.981000", "094254.983000", "094254.986000", "094254.989000", "094254.991000", "094254.994000", "094254.996000", "094254.999000", "094255.002000", "094255.004000", "094255.007000", "094255.009000", "094255.012000", "094255.015000", "094255.017000", "094255.020000", "094255.022000", "094255.025000", "094255.028000", "094255.030000", "094255.033000", "094255.035000", "094255.038000", "094334.967000", "094334.970000", "094334.973000", "094334.975000", "094334.978000", "094334.981000", "094334.983000", "094334.986000", "094334.988000", "094334.991000", "094334.994000", "094334.997000", "094334.999000", "094335.002000", "094335.004000", "094335.007000", "094335.009000", "094335.012000", "094335.014000", "094335.017000", "094414.966000", "094414.969000", "094414.972000", "094414.974000", "094414.977000", "094414.980000", "094414.982000", "094414.985000", "094414.987000", "094414.990000", "094414.992000", "094414.995000", "094414.998000", "094415.001000", "094415.004000", "094415.006000", "094415.009000", "094415.012000", "094415.014000", "094415.017000", "094434.967000", "094434.969000", "094434.972000", "094434.974000", "094434.977000", "094434.980000", "094434.982000", "094434.985000", "094434.987000", "094434.990000", "094514.967000", "094514.970000", "094514.973000", "094514.976000", "094514.978000", "094514.981000", "094514.983000", "094514.986000", "094514.988000", "094514.991000", "094514.994000", "094514.996000", "094514.999000", "094515.001000", "094515.004000", "094515.006000", "094515.009000", "094515.012000", "094515.014000", "094515.017000", "094554.967000", "094554.970000", "094554.973000", "094554.975000", "094554.978000", "094554.981000", "094554.983000", "094554.986000", "094554.988000", "094554.991000", "094554.994000", "094554.996000", "094554.999000", "094555.001000", "094555.004000", "094555.006000", "094555.009000", "094555.012000", "094555.014000", "094555.017000", "094634.966000", "094634.969000", "094634.972000", "094634.974000", "094634.977000", "094634.980000", "094634.982000", "094634.985000", "094634.988000", "094634.990000", "094634.993000", "094634.995000", "094634.998000", "094635.001000", "094635.003000", "094635.006000", "094635.008000", "094635.011000", "094635.014000", "094635.016000", "094714.967000", "094714.969000", "094714.972000", "094714.974000", "094714.977000", "094714.980000", "094714.982000", "094714.985000", "094714.987000", "094714.990000", "094714.993000", "094714.995000", "094714.998000", "094715.002000", "094715.004000", "094715.007000", "094715.009000", "094715.012000", "094715.015000", "094715.017000", "094754.968000", "094754.970000", "094754.973000", "094754.976000", "094754.978000", "094754.981000", "094754.983000", "094754.986000", "094754.989000", "094754.991000", "094754.994000", "094754.996000", "094754.999000", "094755.002000", "094755.004000", "094755.007000", "094755.009000", "094755.012000", "094755.015000", "094755.017000", "094834.966000", "094834.969000", "094834.972000", "094834.974000", "094834.977000", "094834.980000", "094834.982000", "094834.985000", "094834.987000", "094835.006000", "094835.008000", "094835.011000", "094835.013000", "094835.016000", "094835.019000", "094835.021000", "094835.024000", "094835.026000", "094835.029000", "094835.032000", "094842.228000", "094842.231000", "094842.234000", "094842.236000"],
      "InstanceNumber": [1, 2, 3, 4, 5, 6, 7, 8, 9, 10, 11, 12, 13, 14, 15, 16, 17, 18, 19, 20, 21, 22, 23, 24, 25, 26, 27, 28, 29, 30, 31, 32, 33, 34, 35, 36, 37, 38, 39, 40, 41, 42, 43, 44, 45, 46, 47, 48, 49, 50, 51, 52, 53, 54, 55, 56, 57, 58, 59, 60, 61, 62, 63, 64, 65, 66, 67, 68, 69, 70, 71, 72, 73, 74, 75, 76, 77, 78, 79, 80, 81, 82, 83, 84, 85, 86, 87, 88, 89, 90, 91, 92, 93, 94, 95, 96, 97, 98, 99, 100, 101, 102, 103, 104, 105, 106, 107, 108, 109, 110, 111, 112, 113, 114, 115, 116, 117, 118, 119, 120, 121, 122, 123, 124, 125, 126, 127, 128, 129, 130, 131, 132, 133, 134, 135, 136, 137, 138, 139, 140, 141, 142, 143, 144, 145, 146, 147, 148, 149, 150, 151, 152, 153, 154, 155, 156, 157, 158, 159, 160, 161, 162, 163, 164, 165, 166, 167, 168, 169, 170, 171, 172, 173, 174, 175, 176, 177, 178, 179, 180, 181, 182, 183, 184, 185, 186, 187, 188, 189, 190, 191, 192, 193, 194, 195, 196, 197, 198, 199, 200],
      "LargestImagePixelValue": [2038, 2037, 2038, 2041, 2038, 2039, 2036, 2035, 2037, 2033, 2033, 2034, 2039, 2034, 2034, 2030, 2034, 2032, 2037, 2034, 2033, 2034, 2033, 2033, 2034, 2034, 2031, 2034, 2035, 2037, 2034, 2034, 2039, 2040, 2038, 2035, 2034, 2037, 2039, 2036, 2036, 2034, 2035, 2034, 2033, 2035, 2035, 2035, 2038, 2033, 2033, 2033, 2034, 2035, 2040, 2038, 2035, 2037, 2035, 2032, 2030, 2034, 2035, 2032, 2034, 2032, 2031, 2032, 2033, 2032, 2030, 2030, 2034, 2036, 2034, 2035, 2035, 2035, 2034, 2031, 2033, 2033, 2035, 2032, 2034, 2033, 2032, 2036, 2036, 2033, 2032, 2034, 2031, 2033, 2032, 2034, 2032, 2034, 2037, 2033, 2039, 2038, 2034, 2034, 2036, 2034, 2033, 2033, 2034, 2031, 2031, 2030, 2032, 2029, 2029, 2030, 2031, 2029, 2036, 2035, 2031, 2029, 2033, 2031, 2034, 2031, 2032, 2032, 2036, 2034, 2033, 2033, 2034, 2035, 2030, 2036, 2033, 2032, 2031, 2034, 2035, 2033, 2033, 2034, 2034, 2033, 2034, 2031, 2030, 2031, 2031, 2029, 2028, 2034, 2032, 2033, 2033, 2033, 2031, 2029, 2030, 2036, 2041, 2032, 2033, 2027, 2034, 2035, 2034, 2033, 2032, 2033, 2029, 2031, 2031, 2035, 2034, 2033, 2033, 2033, 2034, 2030, 2031, 2027, 2030, 2029, 2029, 2028, 2035, 2031, 2030, 2033, 2033, 2034, 2031, 2030, 2028, 2028, 2031, 2031],
      "WindowCenter": [991.0, 991.0, 991.0, 991.0, 992.0, 991.0, 993.0, 992.0, 991.0, 992.0, 992.0, 992.0, 992.0, 992.0, 991.0, 991.0, 992.0, 991.0, 991.0, 991.0, 991.0, 991.0, 991.0, 991.0, 991.0, 991.0, 991.0, 991.0, 991.0, 991.0, 990.0, 991.0, 991.0, 991.0, 990.0, 991.0, 991.0, 990.0, 991.0, 991.0, 991.0, 990.0, 991.0, 990.0, 990.0, 990.0, 990.0, 991.0, 992.0, 990.0, 990.0, 991.0, 990.0, 990.0, 990.0, 990.0, 990.0, 990.0, 990.0, 990.0, 991.0, 991.0, 990.0, 991.0, 991.0, 991.0, 990.0, 990.0, 990.0, 990.0, 991.0, 992.0, 991.0, 990.0, 990.0, 990.0, 991.0, 990.0, 991.0, 990.0, 990.0, 990.0, 991.0, 990.0, 990.0, 991.0, 990.0, 991.0, 990.0, 990.0, 990.0, 990.0, 991.0, 990.0, 990.0, 990.0, 990.0, 991.0, 991.0, 990.0, 990.0, 990.0, 990.0, 990.0, 992.0, 990.0, 991.0, 990.0, 990.0, 990.0, 990.0, 991.0, 990.0, 990.0, 990.0, 990.0, 990.0, 990.0, 990.0, 991.0, 990.0, 991.0, 990.0, 990.0, 990.0, 990.0, 990.0, 991.0, 990.0, 990.0, 990.0, 990.0, 990.0, 990.0, 990.0, 990.0, 990.0, 990.0, 990.0, 990.0, 990.0, 990.0, 991.0, 991.0, 989.0, 990.0, 990.0, 990.0, 990.0, 989.0, 989.0, 989.0, 989.0, 989.0, 990.0, 990.0, 990.0, 990.0, 989.0, 989.0, 989.0, 989.0, 990.0, 989.0, 990.0, 989.0, 989.0, 989.0, 990.0, 989.0, 990.0, 989.0, 990.0, 990.0, 990.0, 990.0, 990.0, 989.0, 989.0, 990.0, 990.0, 990.0, 990.0, 989.0, 989.0, 989.0, 989.0, 990.0, 990.0, 990.0, 990.0, 989.0, 989.0, 989.0, 990.0, 989.0, 989.0, 989.0, 989.0, 990.0],
      "WindowWidth": [2170.0, 2169.0, 2170.0, 2169.0, 2169.0, 2169.0, 2170.0, 2169.0, 2169.0, 2170.0, 2169.0, 2169.0, 2169.0, 2169.0, 2169.0, 2169.0, 2169.0, 2168.0, 2169.0, 2169.0, 2168.0, 2168.0, 2168.0, 2168.0, 2168.0, 2168.0, 2168.0, 2168.0, 2168.0, 2168.0, 2168.0, 2168.0, 2168.0, 2169.0, 2168.0, 2168.0, 2168.0, 2168.0, 2168.0, 2168.0, 2168.0, 2167.0, 2168.0, 2167.0, 2167.0, 2167.0, 2167.0, 2168.0, 2169.0, 2167.0, 2167.0, 2167.0, 2167.0, 2167.0, 2167.0, 2167.0, 2167.0, 2167.0, 2167.0, 2167.0, 2168.0, 2167.0, 2167.0, 2168.0, 2167.0, 2167.0, 2167.0, 2167.0, 2166.0, 2166.0, 2167.0, 2168.0, 2167.0, 2166.0, 2166.0, 2166.0, 2167.0, 2166.0, 2167.0, 2166.0, 2166.0, 2166.0, 2167.0, 2166.0, 2166.0, 2167.0, 2166.0, 2167.0, 2167.0, 2167.0, 2166.0, 2166.0, 2167.0, 2167.0, 2167.0, 2166.0, 2166.0, 2167.0, 2167.0, 2166.0, 2166.0, 2166.0, 2166.0, 2166.0, 2167.0, 2165.0, 2166.0, 2166.0, 2165.0, 2166.0, 2165.0, 2166.0, 2165.0, 2166.0, 2165.0, 2165.0, 2165.0, 2165.0, 2165.0, 2166.0, 2166.0, 2167.0, 2166.0, 2165.0, 2166.0, 2165.0, 2165.0, 2166.0, 2166.0, 2165.0, 2165.0, 2165.0, 2166.0, 2165.0, 2165.0, 2165.0, 2165.0, 2165.0, 2165.0, 2165.0, 2165.0, 2165.0, 2166.0, 2166.0, 2165.0, 2165.0, 2165.0, 2165.0, 2165.0, 2165.0, 2165.0, 2164.0, 2164.0, 2165.0, 2165.0, 2165.0, 2165.0, 2165.0, 2165.0, 2164.0, 2164.0, 2164.0, 2165.0, 2164.0, 2165.0, 2164.0, 2164.0, 2164.0, 2165.0, 2164.0, 2165.0, 2164.0, 2165.0, 2165.0, 2165.0, 2165.0, 2165.0, 2164.0, 2164.0, 2165.0, 2165.0, 2165.0, 2164.0, 2164.0, 2164.0, 2164.0, 2164.0, 2165.0, 2165.0, 2165.0, 2164.0, 2164.0, 2164.0, 2164.0, 2164.0, 2163.0, 2163.0, 2163.0, 2163.0, 2164.0]
    },
    "slices": {}
  }
}