{
  "AcquisitionMatrixPE": 80,
  "AcquisitionNumber": 1,
  "AcquisitionTime": "10:02:33.530000",
  "BandwidthPerPixelPhaseEncode": 25,
  "BaseResolution": 80,
  "BodyPartExamined": "BRAIN",
  "CoilCombinationMethod": "Sum of Squares",
  "ConsistencyInfo": "N4_VE11C_LATEST_20160120",
  "ConversionSoftware": "dcm2niix",
  "ConversionSoftwareVersion": "v1.0.20220720",
  "DerivedVendorReportedEchoSpacing": 0.0005,
  "DeviceSerialNumber": "66112",
  "DwellTime": 2.7e-06,
  "EchoTime": 0.03,
  "EchoTrainLength": 80,
  "EffectiveEchoSpacing": 0.0005,
  "FlipAngle": 10,
  "HeudiconvVersion": "0.13.1",
  "ImageOrientationPatientDICOM": [0.994442, -0.105045, 0.00715943, 0.0903263, 0.88609, 0.454627],
  "ImageOrientationText": "Tra>Cor(26.9)>Sag(3.1)",
  "ImageType": [
    "ORIGINAL",
    "PRIMARY",
    "M",
    "ND",
    "NORM",
    "MOSAIC"
],
  "ImagingFrequency": 123.252,
  "InPlanePhaseEncodingDirectionDICOM": "COL",
  "InstitutionAddress": "Maynard 3,Hanover,NH,US,03755",
  "InstitutionName": "Dartmouth College - PBS",
  "InstitutionalDepartmentName": "Department",
  "MRAcquisitionType": "2D",
  "MagneticFieldStrength": 3,
  "Manufacturer": "Siemens",
  "ManufacturersModelName": "Prisma",
  "MatrixCoilMode": "SENSE",
  "Modality": "MR",
  "NonlinearGradientCorrection": false,
  "PartialFourier": 1,
  "PatientPosition": "HFS",
  "PercentPhaseFOV": 100,
  "PercentSampling": 100,
  "PhaseEncodingDirection": "j-",
  "PhaseEncodingSteps": 80,
  "PhaseResolution": 1,
  "PixelBandwidth": 2315,
  "ProcedureStepDescription": "dbic^QA",
  "ProtocolName": "func-bold_fa-10",
  "PulseSequenceDetails": "%SiemensSeq%\\ep2d_bold",
  "ReceiveCoilActiveElements": "HEA;HEP",
  "ReceiveCoilName": "Head_32",
  "ReconMatrixPE": 80,
  "RepetitionTime": 2,
  "SAR": 0.0116859,
  "ScanOptions": "FS",
  "ScanningSequence": "EP",
  "SequenceName": "*epfid2d1_80",
  "SequenceVariant": "SK",
  "SeriesDescription": "func-bold_fa-10",
  "SeriesNumber": 10,
  "ShimSetting": [4145, -7708, -7518, 212, -75, -71, -2, 57],
  "SliceThickness": 3.5,
  "SliceTiming": [0.99, 0, 1.055, 0.065, 1.1225, 0.1325, 1.1875, 0.1975, 1.2525, 0.2625, 1.32, 0.33, 1.385, 0.395, 1.4525, 0.4625, 1.5175, 0.5275, 1.5825, 0.5925, 1.65, 0.66, 1.715, 0.725, 1.78, 0.7925, 1.8475, 0.8575, 1.9125, 0.9225],
  "SoftwareVersions": "syngo MR E11",
  "SpacingBetweenSlices": 3.99,
  "StationName": "AWP66112",
  "TotalReadoutTime": 0.0395,
  "TxRefAmp": 231.078,
  "dcmmeta_affine": [
    [-2.983325242996216, 0.2709788382053375, 0.21585913002490997, 107.49603271484375],
    [0.3151341676712036, 2.6582703590393066, 1.8012975454330444, -131.35557556152344],
    [0.02147829905152321, -1.3638800382614136, 3.553706645965576, 17.250762939453125],
    [0.0, 0.0, 0.0, 1.0]
],
  "dcmmeta_reorient_transform": [
    [0.0, -1.0, 0.0, 79.0],
    [1.0, 0.0, 0.0, 0.0],
    [0.0, 0.0, 1.0, 0.0],
    [0.0, 0.0, 0.0, 1.0]
],
  "dcmmeta_shape": [80, 80, 30, 200],
  "dcmmeta_slice_dim": 2,
  "dcmmeta_version": 0.6,
  "global": {
    "const": {
      "AccessionNumber": "qa",
      "AcquisitionMatrix": [80, 0, 0, 80],
      "AngioFlag": "N",
      "BitsAllocated": 16,
      "BitsStored": 12,
      "BodyPartExamined": "BRAIN",
      "Columns": 480,
      "EchoNumbers": 1,
      "EchoTime": 30.0,
      "EchoTrainLength": 80,
      "FlipAngle": 10.0,
      "HighBit": 11,
      "ImageOrientationPatient": [0.99444172769995, -0.1050447177422, 0.00715943319036, 0.09032627868799, 0.88609015174514, 0.45462666701223],
      "ImagePositionPatient": [-779.76416219491, -547.2750481068, -367.567416859],
      "ImageType": [
        "ORIGINAL",
        "PRIMARY",
        "M",
        "ND",
        "NORM",
        "MOSAIC"
],
      "ImagedNucleus": "1H",
      "ImagingFrequency": 123.252363,
      "InPlanePhaseEncodingDirection": "COL",
      "MRAcquisitionType": "2D",
      "MagneticFieldStrength": 3.0,
      "Manufacturer": "SIEMENS",
      "ManufacturerModelName": "Prisma",
      "Modality": "MR",
      "NumberOfAverages": 1.0,
      "NumberOfPhaseEncodingSteps": 80,
      "PercentPhaseFieldOfView": 100.0,
      "PercentSampling": 100.0,
      "PerformedProcedureStepStartTime": "093748.141000",
      "PhotometricInterpretation": "MONOCHROME2",
      "PixelBandwidth": 2315.0,
      "PixelRepresentation": 0,
      "PixelSpacing": [3.0, 3.0],
      "ProtocolName": "func-bold_fa-10",
      "RepetitionTime": 2000.0,
      "Rows": 480,
      "SAR": 0.01168590320864,
      "SamplesPerPixel": 1,
      "ScanOptions": "FS",
      "ScanningSequence": "EP",
      "SequenceName": "*epfid2d1_80",
      "SequenceVariant": "SK",
      "SeriesDescription": "func-bold_fa-10",
      "SeriesNumber": 10,
      "SeriesTime": "100314.968000",
      "SliceLocation": -38.120887105178,
      "SliceThickness": 3.5,
      "SmallestImagePixelValue": 0,
      "SoftwareVersions": "syngo MR E11",
      "SpacingBetweenSlices": 3.9899998437296,
      "SpecificCharacterSet": "ISO_IR 100",
      "StudyID": "4",
      "StudyTime": "093748.092000",
      "TransmitCoilName": "Body",
      "VariableFlipAngleFlag": "N",
      "WindowCenterWidthExplanation": "Algo1",
      "dBdt": 0.0},
    "slices": {}
  },
  "time": {
    "samples": {
      "AcquisitionNumber": [1, 2, 3, 4, 5, 6, 7, 8, 9, 10, 11, 12, 13, 14, 15, 16, 17, 18, 19, 20, 21, 22, 23, 24, 25, 26, 27, 28, 29, 30, 31, 32, 33, 34, 35, 36, 37, 38, 39, 40, 41, 42, 43, 44, 45, 46, 47, 48, 49, 50, 51, 52, 53, 54, 55, 56, 57, 58, 59, 60, 61, 62, 63, 64, 65, 66, 67, 68, 69, 70, 71, 72, 73, 74, 75, 76, 77, 78, 79, 80, 81, 82, 83, 84, 85, 86, 87, 88, 89, 90, 91, 92, 93, 94, 95, 96, 97, 98, 99, 100, 101, 102, 103, 104, 105, 106, 107, 108, 109, 110, 111, 112, 113, 114, 115, 116, 117, 118, 119, 120, 121, 122, 123, 124, 125, 126, 127, 128, 129, 130, 131, 132, 133, 134, 135, 136, 137, 138, 139, 140, 141, 142, 143, 144, 145, 146, 147, 148, 149, 150, 151, 152, 153, 154, 155, 156, 157, 158, 159, 160, 161, 162, 163, 164, 165, 166, 167, 168, 169, 170, 171, 172, 173, 174, 175, 176, 177, 178, 179, 180, 181, 182, 183, 184, 185, 186, 187, 188, 189, 190, 191, 192, 193, 194, 195, 196, 197, 198, 199, 200],
      "AcquisitionTime": ["100233.530000", "100235.530000", "100237.530000", "100239.530000", "100241.530000", "100243.530000", "100245.530000", "100247.530000", "100249.530000", "100251.530000", "100253.530000", "100255.530000", "100257.530000", "100259.530000", "100301.530000", "100303.530000", "100305.530000", "100307.530000", "100309.530000", "100311.530000", "100313.530000", "100315.530000", "100317.530000", "100319.530000", "100321.530000", "100323.530000", "100325.530000", "100327.530000", "100329.530000", "100331.530000", "100333.530000", "100335.530000", "100337.530000", "100339.530000", "100341.530000", "100343.530000", "100345.530000", "100347.530000", "100349.530000", "100351.530000", "100353.530000", "100355.530000", "100357.530000", "100359.530000", "100401.530000", "100403.530000", "100405.530000", "100407.530000", "100409.530000", "100411.530000", "100413.530000", "100415.530000", "100417.530000", "100419.530000", "100421.530000", "100423.530000", "100425.530000", "100427.530000", "100429.530000", "100431.530000", "100433.530000", "100435.530000", "100437.530000", "100439.530000", "100441.530000", "100443.530000", "100445.530000", "100447.530000", "100449.530000", "100451.530000", "100453.530000", "100455.530000", "100457.530000", "100459.530000", "100501.530000", "100503.530000", "100505.530000", "100507.530000", "100509.530000", "100511.530000", "100513.530000", "100515.530000", "100517.530000", "100519.530000", "100521.530000", "100523.530000", "100525.530000", "100527.530000", "100529.530000", "100531.530000", "100533.530000", "100535.530000", "100537.530000", "100539.530000", "100541.530000", "100543.530000", "100545.530000", "100547.530000", "100549.530000", "100551.530000", "100553.530000", "100555.530000", "100557.530000", "100559.530000", "100601.530000", "100603.530000", "100605.530000", "100607.530000", "100609.530000", "100611.530000", "100613.530000", "100615.530000", "100617.530000", "100619.530000", "100621.530000", "100623.530000", "100625.530000", "100627.530000", "100629.530000", "100631.530000", "100633.530000", "100635.530000", "100637.530000", "100639.530000", "100641.530000", "100643.530000", "100645.530000", "100647.530000", "100649.530000", "100651.530000", "100653.530000", "100655.530000", "100657.530000", "100659.530000", "100701.530000", "100703.530000", "100705.530000", "100707.530000", "100709.530000", "100711.530000", "100713.530000", "100715.530000", "100717.530000", "100719.530000", "100721.530000", "100723.530000", "100725.530000", "100727.530000", "100729.530000", "100731.530000", "100733.530000", "100735.530000", "100737.530000", "100739.530000", "100741.530000", "100743.530000", "100745.530000", "100747.530000", "100749.530000", "100751.530000", "100753.530000", "100755.530000", "100757.530000", "100759.530000", "100801.530000", "100803.530000", "100805.530000", "100807.530000", "100809.530000", "100811.530000", "100813.530000", "100815.530000", "100817.530000", "100819.530000", "100821.530000", "100823.530000", "100825.530000", "100827.530000", "100829.530000", "100831.530000", "100833.530000", "100835.530000", "100837.530000", "100839.530000", "100841.530000", "100843.530000", "100845.530000", "100847.530000", "100849.530000", "100851.530000", "100853.530000", "100855.530000", "100857.530000", "100859.530000", "100901.530000", "100903.530000", "100905.530000", "100907.530000", "100909.530000", "100911.530000"],
      "ContentTime": ["100314.971000", "100314.975000", "100314.977000", "100314.980000", "100314.982000", "100314.985000", "100314.992000", "100314.995000", "100314.997000", "100315.000000", "100315.002000", "100315.005000", "100315.007000", "100315.010000", "100315.013000", "100315.015000", "100315.018000", "100315.020000", "100315.023000", "100315.025000", "100354.967000", "100354.970000", "100354.973000", "100354.975000", "100354.978000", "100354.981000", "100354.983000", "100354.986000", "100354.988000", "100354.991000", "100354.993000", "100354.996000", "100354.999000", "100355.001000", "100355.004000", "100355.006000", "100355.009000", "100355.012000", "100355.014000", "100355.017000", "100434.967000", "100434.969000", "100434.972000", "100434.974000", "100434.977000", "100434.980000", "100434.982000", "100434.985000", "100434.987000", "100434.990000", "100434.992000", "100434.995000", "100434.998000", "100435.000000", "100435.003000", "100435.005000", "100435.008000", "100435.010000", "100435.013000", "100435.015000", "100514.966000", "100514.969000", "100514.972000", "100514.974000", "100514.977000", "100514.980000", "100514.982000", "100514.985000", "100514.987000", "100514.990000", "100514.992000", "100514.995000", "100514.998000", "100515.001000", "100515.004000", "100515.006000", "100515.009000", "100515.012000", "100515.014000", "100515.017000", "100554.966000", "100554.969000", "100554.972000", "100554.974000", "100554.977000", "100554.980000", "100554.982000", "100554.985000", "100554.987000", "100554.990000", "100554.992000", "100554.995000", "100554.998000", "100555.000000", "100555.003000", "100555.005000", "100555.008000", "100555.011000", "100555.013000", "100555.016000", "100634.968000", "100634.971000", "100634.973000", "100634.976000", "100634.979000", "100634.981000", "100634.984000", "100634.987000", "100634.989000", "100634.992000", "100634.994000", "100634.997000", "100635.000000", "100635.002000", "100635.005000", "100635.008000", "100635.011000", "100635.013000", "100635.016000", "100635.018000", "100714.967000", "100714.969000", "100714.972000", "100714.975000", "100714.977000", "100714.980000", "100714.983000", "100714.985000", "100714.988000", "100714.990000", "100714.993000", "100714.995000", "100714.998000", "100715.001000", "100715.003000", "100715.006000", "100715.008000", "100715.011000", "100715.013000", "100715.016000", "100754.966000", "100754.969000", "100754.972000", "100754.974000", "100754.977000", "100754.980000", "100754.982000", "100754.985000", "100755.004000", "100755.007000", "100755.009000", "100755.012000", "100755.015000", "100755.017000", "100755.020000", "100755.022000", "100755.025000", "100755.028000", "100755.030000", "100755.033000", "100834.967000", "100834.970000", "100834.973000", "100834.976000", "100834.978000", "100834.981000", "100834.983000", "100834.986000", "100834.989000", "100834.991000", "100834.994000", "100834.996000", "100834.999000", "100835.002000", "100835.004000", "100835.007000", "100835.009000", "100835.012000", "100835.014000", "100835.017000", "100913.117000", "100913.120000", "100913.122000", "100913.125000", "100913.137000", "100913.139000", "100913.142000", "100913.144000", "100913.147000", "100913.153000", "100913.156000", "100913.160000", "100913.165000", "100913.171000", "100913.175000", "100913.178000", "100913.181000", "100913.185000", "100913.188000", "100913.191000"],
      "InstanceCreationTime": ["100314.971000", "100314.975000", "100314.977000", "100314.980000", "100314.982000", "100314.985000", "100314.992000", "100314.995000", "100314.997000", "100315.000000", "100315.002000", "100315.005000", "100315.007000", "100315.010000", "100315.013000", "100315.015000", "100315.018000", "100315.020000", "100315.023000", "100315.025000", "100354.967000", "100354.970000", "100354.973000", "100354.975000", "100354.978000", "100354.981000", "100354.983000", "100354.986000", "100354.988000", "100354.991000", "100354.993000", "100354.996000", "100354.999000", "100355.001000", "100355.004000", "100355.006000", "100355.009000", "100355.012000", "100355.014000", "100355.017000", "100434.967000", "100434.969000", "100434.972000", "100434.974000", "100434.977000", "100434.980000", "100434.982000", "100434.985000", "100434.987000", "100434.990000", "100434.992000", "100434.995000", "100434.998000", "100435.000000", "100435.003000", "100435.005000", "100435.008000", "100435.010000", "100435.013000", "100435.015000", "100514.966000", "100514.969000", "100514.972000", "100514.974000", "100514.977000", "100514.980000", "100514.982000", "100514.985000", "100514.987000", "100514.990000", "100514.992000", "100514.995000", "100514.998000", "100515.001000", "100515.004000", "100515.006000", "100515.009000", "100515.012000", "100515.014000", "100515.017000", "100554.966000", "100554.969000", "100554.972000", "100554.974000", "100554.977000", "100554.980000", "100554.982000", "100554.985000", "100554.987000", "100554.990000", "100554.992000", "100554.995000", "100554.998000", "100555.000000", "100555.003000", "100555.005000", "100555.008000", "100555.011000", "100555.013000", "100555.016000", "100634.968000", "100634.971000", "100634.973000", "100634.976000", "100634.979000", "100634.981000", "100634.984000", "100634.987000", "100634.989000", "100634.992000", "100634.994000", "100634.997000", "100635.000000", "100635.002000", "100635.005000", "100635.008000", "100635.011000", "100635.013000", "100635.016000", "100635.018000", "100714.967000", "100714.969000", "100714.972000", "100714.975000", "100714.977000", "100714.980000", "100714.983000", "100714.985000", "100714.988000", "100714.990000", "100714.993000", "100714.995000", "100714.998000", "100715.001000", "100715.003000", "100715.006000", "100715.008000", "100715.011000", "100715.013000", "100715.016000", "100754.966000", "100754.969000", "100754.972000", "100754.974000", "100754.977000", "100754.980000", "100754.982000", "100754.985000", "100755.004000", "100755.007000", "100755.009000", "100755.012000", "100755.015000", "100755.017000", "100755.020000", "100755.022000", "100755.025000", "100755.028000", "100755.030000", "100755.033000", "100834.967000", "100834.970000", "100834.973000", "100834.976000", "100834.978000", "100834.981000", "100834.983000", "100834.986000", "100834.989000", "100834.991000", "100834.994000", "100834.996000", "100834.999000", "100835.002000", "100835.004000", "100835.007000", "100835.009000", "100835.012000", "100835.014000", "100835.017000", "100913.117000", "100913.120000", "100913.122000", "100913.125000", "100913.137000", "100913.139000", "100913.142000", "100913.144000", "100913.147000", "100913.153000", "100913.156000", "100913.160000", "100913.165000", "100913.171000", "100913.175000", "100913.178000", "100913.181000", "100913.185000", "100913.188000", "100913.191000"],
      "InstanceNumber": [1, 2, 3, 4, 5, 6, 7, 8, 9, 10, 11, 12, 13, 14, 15, 16, 17, 18, 19, 20, 21, 22, 23, 24, 25, 26, 27, 28, 29, 30, 31, 32, 33, 34, 35, 36, 37, 38, 39, 40, 41, 42, 43, 44, 45, 46, 47, 48, 49, 50, 51, 52, 53, 54, 55, 56, 57, 58, 59, 60, 61, 62, 63, 64, 65, 66, 67, 68, 69, 70, 71, 72, 73, 74, 75, 76, 77, 78, 79, 80, 81, 82, 83, 84, 85, 86, 87, 88, 89, 90, 91, 92, 93, 94, 95, 96, 97, 98, 99, 100, 101, 102, 103, 104, 105, 106, 107, 108, 109, 110, 111, 112, 113, 114, 115, 116, 117, 118, 119, 120, 121, 122, 123, 124, 125, 126, 127, 128, 129, 130, 131, 132, 133, 134, 135, 136, 137, 138, 139, 140, 141, 142, 143, 144, 145, 146, 147, 148, 149, 150, 151, 152, 153, 154, 155, 156, 157, 158, 159, 160, 161, 162, 163, 164, 165, 166, 167, 168, 169, 170, 171, 172, 173, 174, 175, 176, 177, 178, 179, 180, 181, 182, 183, 184, 185, 186, 187, 188, 189, 190, 191, 192, 193, 194, 195, 196, 197, 198, 199, 200],
      "LargestImagePixelValue": [356, 357, 357, 357, 356, 356, 355, 356, 356, 356, 356, 357, 356, 357, 357, 356, 357, 358, 357, 360, 356, 357, 358, 359, 359, 357, 359, 358, 357, 357, 358, 359, 359, 357, 358, 357, 357, 359, 356, 357, 358, 357, 358, 358, 358, 358, 358, 358, 357, 357, 358, 358, 358, 357, 355, 358, 359, 359, 358, 356, 359, 357, 358, 356, 356, 358, 357, 357, 357, 356, 359, 357, 357, 358, 357, 355, 360, 357, 356, 358, 358, 358, 359, 356, 357, 359, 357, 357, 357, 355, 358, 356, 357, 356, 359, 356, 357, 355, 356, 356, 358, 358, 358, 358, 357, 357, 358, 355, 357, 357, 357, 357, 358, 357, 356, 359, 357, 358, 359, 357, 357, 357, 359, 357, 357, 358, 357, 358, 356, 356, 358, 357, 355, 357, 358, 358, 357, 357, 358, 357, 357, 359, 357, 358, 356, 359, 358, 356, 356, 357, 356, 355, 356, 358, 357, 357, 359, 357, 355, 357, 359, 359, 356, 358, 358, 358, 356, 356, 356, 357, 358, 358, 358, 360, 357, 357, 357, 356, 360, 357, 357, 359, 357, 357, 357, 357, 358, 358, 356, 360, 356, 357, 357, 356, 357, 355, 356, 358, 355, 357],
      "WindowCenter": [285.0, 285.0, 285.0, 285.0, 285.0, 285.0, 285.0, 285.0, 284.0, 285.0, 285.0, 285.0, 285.0, 285.0, 285.0, 285.0, 285.0, 284.0, 285.0, 284.0, 285.0, 284.0, 285.0, 284.0, 285.0, 285.0, 285.0, 285.0, 284.0, 285.0, 285.0, 285.0, 285.0, 285.0, 285.0, 285.0, 285.0, 285.0, 285.0, 285.0, 285.0, 285.0, 285.0, 285.0, 284.0, 285.0, 285.0, 285.0, 284.0, 285.0, 285.0, 285.0, 285.0, 285.0, 285.0, 285.0, 285.0, 285.0, 285.0, 285.0, 285.0, 285.0, 285.0, 285.0, 285.0, 284.0, 284.0, 285.0, 285.0, 285.0, 285.0, 284.0, 285.0, 285.0, 284.0, 285.0, 285.0, 284.0, 284.0, 285.0, 285.0, 285.0, 285.0, 284.0, 284.0, 284.0, 285.0, 285.0, 285.0, 285.0, 285.0, 284.0, 285.0, 285.0, 285.0, 285.0, 285.0, 284.0, 285.0, 284.0, 285.0, 285.0, 285.0, 285.0, 285.0, 284.0, 284.0, 285.0, 284.0, 285.0, 284.0, 285.0, 285.0, 284.0, 285.0, 285.0, 285.0, 285.0, 285.0, 285.0, 285.0, 285.0, 284.0, 285.0, 285.0, 285.0, 285.0, 284.0, 284.0, 284.0, 285.0, 284.0, 284.0, 284.0, 285.0, 285.0, 284.0, 285.0, 284.0, 285.0, 284.0, 285.0, 284.0, 284.0, 284.0, 284.0, 284.0, 284.0, 284.0, 284.0, 285.0, 284.0, 285.0, 284.0, 284.0, 285.0, 284.0, 284.0, 284.0, 284.0, 284.0, 284.0, 284.0, 285.0, 284.0, 284.0, 284.0, 284.0, 284.0, 284.0, 284.0, 285.0, 284.0, 284.0, 284.0, 285.0, 285.0, 284.0, 284.0, 284.0, 284.0, 284.0, 284.0, 284.0, 284.0, 284.0, 284.0, 284.0, 284.0, 284.0, 284.0, 284.0, 284.0, 284.0, 284.0, 284.0, 284.0, 284.0, 284.0, 285.0],
      "WindowWidth": [621.0, 621.0, 621.0, 621.0, 622.0, 621.0, 621.0, 621.0, 621.0, 621.0, 621.0, 621.0, 621.0, 621.0, 621.0, 621.0, 621.0, 621.0, 621.0, 621.0, 621.0, 621.0, 621.0, 621.0, 621.0, 621.0, 621.0, 621.0, 621.0, 621.0, 621.0, 621.0, 621.0, 621.0, 621.0, 621.0, 621.0, 622.0, 622.0, 621.0, 621.0, 622.0, 622.0, 621.0, 621.0, 621.0, 621.0, 621.0, 621.0, 621.0, 621.0, 621.0, 621.0, 621.0, 621.0, 621.0, 621.0, 621.0, 621.0, 621.0, 621.0, 621.0, 621.0, 621.0, 621.0, 621.0, 621.0, 621.0, 621.0, 621.0, 621.0, 621.0, 621.0, 621.0, 621.0, 621.0, 621.0, 621.0, 621.0, 621.0, 621.0, 621.0, 621.0, 621.0, 621.0, 621.0, 621.0, 621.0, 621.0, 621.0, 621.0, 621.0, 621.0, 621.0, 621.0, 621.0, 621.0, 621.0, 621.0, 621.0, 621.0, 621.0, 621.0, 621.0, 621.0, 621.0, 621.0, 621.0, 621.0, 621.0, 621.0, 621.0, 621.0, 621.0, 621.0, 621.0, 621.0, 621.0, 621.0, 621.0, 621.0, 621.0, 621.0, 621.0, 621.0, 621.0, 621.0, 621.0, 621.0, 621.0, 621.0, 621.0, 621.0, 621.0, 621.0, 621.0, 621.0, 621.0, 621.0, 621.0, 621.0, 621.0, 621.0, 621.0, 621.0, 621.0, 621.0, 621.0, 621.0, 621.0, 621.0, 621.0, 621.0, 620.0, 621.0, 621.0, 620.0, 621.0, 621.0, 621.0, 621.0, 621.0, 621.0, 621.0, 621.0, 620.0, 621.0, 621.0, 621.0, 621.0, 621.0, 621.0, 621.0, 621.0, 621.0, 621.0, 621.0, 620.0, 621.0, 621.0, 621.0, 621.0, 621.0, 621.0, 621.0, 621.0, 621.0, 621.0, 621.0, 621.0, 621.0, 621.0, 621.0, 620.0, 621.0, 621.0, 621.0, 621.0, 621.0, 621.0]
    },
    "slices": {}
  }
}