{
  "AcquisitionMatrixPE": 80,
  "AcquisitionNumber": 1,
  "AcquisitionTime": "09:48:57.230000",
  "BandwidthPerPixelPhaseEncode": 44.643,
  "BaseResolution": 80,
  "BodyPartExamined": "BRAIN",
  "CoilCombinationMethod": "Sum of Squares",
  "ConsistencyInfo": "N4_VE11C_LATEST_20160120",
  "ConversionSoftware": "dcm2niix",
  "ConversionSoftwareVersion": "v1.0.20220720",
  "DerivedVendorReportedEchoSpacing": 0.000559998,
  "DeviceSerialNumber": "66112",
  "DwellTime": 2.7e-06,
  "EchoTime": 0.035,
  "EchoTrainLength": 39,
  "EffectiveEchoSpacing": 0.000279999,
  "FlipAngle": 90,
  "HeudiconvVersion": "0.13.1",
  "ImageOrientationPatientDICOM": [0.994457, -0.10489, 0.00723879, 0.0901527, 0.886108, 0.454625],
  "ImageOrientationText": "Tra>Cor(26.9)>Sag(3.1)",
  "ImageType": [
    "ORIGINAL",
    "PRIMARY",
    "M",
    "ND",
    "NORM",
    "MOSAIC"
],
  "ImagingFrequency": 123.252,
  "InPlanePhaseEncodingDirectionDICOM": "COL",
  "InstitutionAddress": "Maynard 3,Hanover,NH,US,03755",
  "InstitutionName": "Dartmouth College - PBS",
  "InstitutionalDepartmentName": "Department",
  "MRAcquisitionType": "2D",
  "MagneticFieldStrength": 3,
  "Manufacturer": "Siemens",
  "ManufacturersModelName": "Prisma",
  "Modality": "MR",
  "MultibandAccelerationFactor": 4,
  "NonlinearGradientCorrection": false,
  "ParallelReductionFactorInPlane": 2,
  "PartialFourier": 1,
  "PatientPosition": "HFS",
  "PercentPhaseFOV": 100,
  "PercentSampling": 100,
  "PhaseEncodingDirection": "j-",
  "PhaseEncodingSteps": 79,
  "PhaseResolution": 1,
  "PixelBandwidth": 2315,
  "ProcedureStepDescription": "dbic^QA",
  "ProtocolName": "func-bold_task-rest_acq-p2-s4-3.5mm",
  "PulseSequenceDetails": "%SiemensSeq%\\ep2d_bold",
  "ReceiveCoilActiveElements": "HEA;HEP",
  "ReceiveCoilName": "Head_32",
  "ReconMatrixPE": 80,
  "RefLinesPE": 24,
  "RepetitionTime": 2,
  "SAR": 0.0208452,
  "ScanOptions": "FS",
  "ScanningSequence": "EP",
  "SequenceName": "*epfid2d1_80",
  "SequenceVariant": "SK",
  "SeriesDescription": "func-bold_task-rest_acq-p2-s4-3.5mm",
  "SeriesNumber": 7,
  "ShimSetting": [4145, -7708, -7518, 214, -76, -73, -2, 58],
  "SliceThickness": 3.5,
  "SliceTiming": [1.485, 0, 0.99, 0.2475, 1.2375, 0.7425, 1.7325, 0.495, 1.485, 0, 0.99, 0.2475, 1.2375, 0.7425, 1.7325, 0.495, 1.485, 0, 0.99, 0.2475, 1.2375, 0.7425, 1.7325, 0.495, 1.485, 0, 0.99, 0.2475, 1.2375, 0.7425, 1.7325, 0.495],
  "SoftwareVersions": "syngo MR E11",
  "SpacingBetweenSlices": 3.99,
  "StationName": "AWP66112",
  "TaskName": "rest",
  "TotalReadoutTime": 0.0221199,
  "TxRefAmp": 231.078,
  "dcmmeta_affine": [
    [-2.983372449874878, 0.27045825123786926, 0.21585923433303833, 106.77116394042969],
    [0.3146703243255615, 2.658325433731079, 1.8012975454330444, -138.25534057617188],
    [0.021716369315981865, -1.363876223564148, 3.553706645965576, 14.871670722961426],
    [0.0, 0.0, 0.0, 1.0]
],
  "dcmmeta_reorient_transform": [
    [0.0, -1.0, 0.0, 79.0],
    [1.0, 0.0, 0.0, 0.0],
    [0.0, 0.0, 1.0, 0.0],
    [0.0, 0.0, 0.0, 1.0]
],
  "dcmmeta_shape": [80, 80, 32, 200],
  "dcmmeta_slice_dim": 2,
  "dcmmeta_version": 0.6,
  "global": {
    "const": {
      "AccessionNumber": "qa",
      "AcquisitionMatrix": [80, 0, 0, 80],
      "AngioFlag": "N",
      "BitsAllocated": 16,
      "BitsStored": 12,
      "BodyPartExamined": "BRAIN",
      "Columns": 480,
      "EchoNumbers": 1,
      "EchoTime": 35.0,
      "EchoTrainLength": 39,
      "FlipAngle": 90.0,
      "HighBit": 11,
      "ImageOrientationPatient": [0.99445747309799, -0.1048901049956, 0.00723878950976, 0.09015274690802, 0.886108470518, 0.45462540701241],
      "ImagePositionPatient": [-778.90349975412, -540.48338200485, -369.99306912169],
      "ImageType": [
        "ORIGINAL",
        "PRIMARY",
        "M",
        "ND",
        "NORM",
        "MOSAIC"
],
      "ImagedNucleus": "1H",
      "ImagingFrequency": 123.252365,
      "InPlanePhaseEncodingDirection": "COL",
      "MRAcquisitionType": "2D",
      "MagneticFieldStrength": 3.0,
      "Manufacturer": "SIEMENS",
      "ManufacturerModelName": "Prisma",
      "Modality": "MR",
      "NumberOfAverages": 1.0,
      "NumberOfPhaseEncodingSteps": 79,
      "PercentPhaseFieldOfView": 100.0,
      "PercentSampling": 100.0,
      "PerformedProcedureStepStartTime": "093748.141000",
      "PhotometricInterpretation": "MONOCHROME2",
      "PixelBandwidth": 2315.0,
      "PixelRepresentation": 0,
      "PixelSpacing": [3.0, 3.0],
      "ProtocolName": "func-bold_task-rest_acq-p2-s4-3.5mm",
      "RepetitionTime": 2000.0,
      "Rows": 480,
      "SAR": 0.0208451909705,
      "SamplesPerPixel": 1,
      "ScanOptions": "FS",
      "ScanningSequence": "EP",
      "SequenceName": "*epfid2d1_80",
      "SequenceVariant": "SK",
      "SeriesDescription": "func-bold_task-rest_acq-p2-s4-3.5mm",
      "SeriesNumber": 7,
      "SeriesTime": "094954.827000",
      "SliceLocation": -43.393966291751,
      "SliceThickness": 3.5,
      "SmallestImagePixelValue": 0,
      "SoftwareVersions": "syngo MR E11",
      "SpacingBetweenSlices": 3.9899999044364,
      "SpecificCharacterSet": "ISO_IR 100",
      "StudyID": "4",
      "StudyTime": "093748.092000",
      "TransmitCoilName": "Body",
      "VariableFlipAngleFlag": "N",
      "WindowCenter": 924.0,
      "WindowCenterWidthExplanation": "Algo1",
      "dBdt": 0.0},
    "slices": {}
  },
  "time": {
    "samples": {
      "AcquisitionNumber": [1, 2, 3, 4, 5, 6, 7, 8, 9, 10, 11, 12, 13, 14, 15, 16, 17, 18, 19, 20, 21, 22, 23, 24, 25, 26, 27, 28, 29, 30, 31, 32, 33, 34, 35, 36, 37, 38, 39, 40, 41, 42, 43, 44, 45, 46, 47, 48, 49, 50, 51, 52, 53, 54, 55, 56, 57, 58, 59, 60, 61, 62, 63, 64, 65, 66, 67, 68, 69, 70, 71, 72, 73, 74, 75, 76, 77, 78, 79, 80, 81, 82, 83, 84, 85, 86, 87, 88, 89, 90, 91, 92, 93, 94, 95, 96, 97, 98, 99, 100, 101, 102, 103, 104, 105, 106, 107, 108, 109, 110, 111, 112, 113, 114, 115, 116, 117, 118, 119, 120, 121, 122, 123, 124, 125, 126, 127, 128, 129, 130, 131, 132, 133, 134, 135, 136, 137, 138, 139, 140, 141, 142, 143, 144, 145, 146, 147, 148, 149, 150, 151, 152, 153, 154, 155, 156, 157, 158, 159, 160, 161, 162, 163, 164, 165, 166, 167, 168, 169, 170, 171, 172, 173, 174, 175, 176, 177, 178, 179, 180, 181, 182, 183, 184, 185, 186, 187, 188, 189, 190, 191, 192, 193, 194, 195, 196, 197, 198, 199, 200],
      "AcquisitionTime": ["094857.230000", "094859.230000", "094901.230000", "094903.230000", "094905.230000", "094907.230000", "094909.230000", "094911.230000", "094913.230000", "094915.230000", "094917.230000", "094919.230000", "094921.230000", "094923.230000", "094925.230000", "094927.230000", "094929.230000", "094931.230000", "094933.230000", "094935.230000", "094937.230000", "094939.230000", "094941.230000", "094943.230000", "094945.230000", "094947.230000", "094949.230000", "094951.230000", "094953.230000", "094955.230000", "094957.230000", "094959.230000", "095001.230000", "095003.230000", "095005.230000", "095007.230000", "095009.230000", "095011.230000", "095013.230000", "095015.230000", "095017.230000", "095019.230000", "095021.230000", "095023.230000", "095025.230000", "095027.230000", "095029.230000", "095031.230000", "095033.230000", "095035.230000", "095037.230000", "095039.230000", "095041.230000", "095043.230000", "095045.230000", "095047.230000", "095049.230000", "095051.230000", "095053.230000", "095055.230000", "095057.230000", "095059.230000", "095101.230000", "095103.230000", "095105.230000", "095107.230000", "095109.230000", "095111.230000", "095113.230000", "095115.230000", "095117.230000", "095119.230000", "095121.230000", "095123.230000", "095125.230000", "095127.230000", "095129.230000", "095131.230000", "095133.230000", "095135.230000", "095137.230000", "095139.230000", "095141.230000", "095143.230000", "095145.230000", "095147.230000", "095149.230000", "095151.230000", "095153.230000", "095155.230000", "095157.230000", "095159.230000", "095201.230000", "095203.230000", "095205.230000", "095207.230000", "095209.230000", "095211.230000", "095213.230000", "095215.230000", "095217.230000", "095219.230000", "095221.230000", "095223.230000", "095225.230000", "095227.230000", "095229.230000", "095231.230000", "095233.230000", "095235.230000", "095237.230000", "095239.230000", "095241.230000", "095243.230000", "095245.230000", "095247.230000", "095249.230000", "095251.230000", "095253.230000", "095255.230000", "095257.230000", "095259.230000", "095301.230000", "095303.230000", "095305.230000", "095307.230000", "095309.230000", "095311.230000", "095313.230000", "095315.230000", "095317.230000", "095319.230000", "095321.230000", "095323.230000", "095325.230000", "095327.230000", "095329.230000", "095331.230000", "095333.230000", "095335.230000", "095337.230000", "095339.230000", "095341.230000", "095343.230000", "095345.230000", "095347.230000", "095349.230000", "095351.230000", "095353.230000", "095355.230000", "095357.230000", "095359.230000", "095401.230000", "095403.230000", "095405.230000", "095407.230000", "095409.230000", "095411.230000", "095413.230000", "095415.230000", "095417.230000", "095419.230000", "095421.230000", "095423.230000", "095425.230000", "095427.230000", "095429.230000", "095431.230000", "095433.230000", "095435.230000", "095437.230000", "095439.230000", "095441.230000", "095443.230000", "095445.230000", "095447.230000", "095449.230000", "095451.230000", "095453.230000", "095455.230000", "095457.230000", "095459.230000", "095501.230000", "095503.230000", "095505.230000", "095507.230000", "095509.230000", "095511.230000", "095513.230000", "095515.230000", "095517.230000", "095519.230000", "095521.230000", "095523.230000", "095525.230000", "095527.230000", "095529.230000", "095531.230000", "095533.230000", "095535.230000"],
      "ContentTime": ["094954.831000", "094954.834000", "094954.843000", "094954.845000", "094954.848000", "094954.850000", "094954.859000", "094954.862000", "094954.864000", "094954.867000", "094954.869000", "094954.872000", "094954.875000", "094954.877000", "094954.880000", "094954.882000", "094954.885000", "094954.888000", "094954.890000", "094954.893000", "094954.895000", "094954.898000", "094954.901000", "094954.903000", "094954.910000", "094954.913000", "094954.915000", "094954.918000", "094954.920000", "095034.825000", "095034.828000", "095034.831000", "095034.834000", "095034.836000", "095034.839000", "095034.841000", "095034.844000", "095034.857000", "095034.859000", "095034.862000", "095034.865000", "095034.867000", "095034.870000", "095034.873000", "095034.875000", "095034.878000", "095034.880000", "095034.883000", "095034.885000", "095114.824000", "095114.827000", "095114.830000", "095114.833000", "095114.835000", "095114.838000", "095114.840000", "095114.843000", "095114.845000", "095114.848000", "095114.854000", "095114.857000", "095114.859000", "095114.862000", "095114.865000", "095114.867000", "095114.870000", "095114.872000", "095114.875000", "095114.878000", "095154.824000", "095154.827000", "095154.830000", "095154.833000", "095154.835000", "095154.838000", "095154.840000", "095154.843000", "095154.845000", "095154.848000", "095154.851000", "095154.853000", "095154.856000", "095154.858000", "095154.871000", "095154.874000", "095154.878000", "095154.880000", "095154.883000", "095154.885000", "095234.826000", "095234.828000", "095234.831000", "095234.834000", "095234.836000", "095234.839000", "095234.841000", "095234.844000", "095234.846000", "095234.849000", "095234.852000", "095234.854000", "095234.857000", "095234.859000", "095234.862000", "095234.864000", "095234.867000", "095234.870000", "095234.872000", "095234.875000", "095314.824000", "095314.827000", "095314.830000", "095314.833000", "095314.835000", "095314.838000", "095314.840000", "095314.843000", "095314.846000", "095314.848000", "095314.851000", "095314.853000", "095314.856000", "095314.858000", "095314.861000", "095314.864000", "095314.866000", "095314.869000", "095314.872000", "095314.875000", "095354.825000", "095354.827000", "095354.830000", "095354.833000", "095354.835000", "095354.838000", "095354.840000", "095354.843000", "095354.846000", "095354.848000", "095354.851000", "095354.854000", "095354.856000", "095354.859000", "095354.861000", "095354.864000", "095354.867000", "095354.869000", "095354.872000", "095354.875000", "095414.825000", "095414.828000", "095414.830000", "095414.833000", "095414.836000", "095414.838000", "095414.841000", "095414.844000", "095414.846000", "095414.849000", "095454.825000", "095454.828000", "095454.831000", "095454.834000", "095454.836000", "095454.839000", "095454.841000", "095454.844000", "095454.847000", "095454.849000", "095454.852000", "095454.871000", "095454.873000", "095454.876000", "095454.879000", "095454.881000", "095454.884000", "095454.886000", "095454.895000", "095454.898000", "095534.824000", "095534.827000", "095534.830000", "095534.833000", "095534.835000", "095534.838000", "095534.840000", "095534.843000", "095534.846000", "095534.848000", "095534.851000", "095534.853000", "095534.856000", "095534.859000", "095534.861000", "095534.864000", "095534.866000", "095534.870000", "095534.873000", "095534.876000", "095536.293000"],
      "InstanceCreationTime": ["094954.831000", "094954.834000", "094954.843000", "094954.845000", "094954.848000", "094954.850000", "094954.859000", "094954.862000", "094954.864000", "094954.867000", "094954.869000", "094954.872000", "094954.875000", "094954.877000", "094954.880000", "094954.882000", "094954.885000", "094954.888000", "094954.890000", "094954.893000", "094954.895000", "094954.898000", "094954.901000", "094954.903000", "094954.910000", "094954.913000", "094954.915000", "094954.918000", "094954.920000", "095034.825000", "095034.828000", "095034.831000", "095034.834000", "095034.836000", "095034.839000", "095034.841000", "095034.844000", "095034.857000", "095034.859000", "095034.862000", "095034.865000", "095034.867000", "095034.870000", "095034.873000", "095034.875000", "095034.878000", "095034.880000", "095034.883000", "095034.885000", "095114.824000", "095114.827000", "095114.830000", "095114.833000", "095114.835000", "095114.838000", "095114.840000", "095114.843000", "095114.845000", "095114.848000", "095114.854000", "095114.857000", "095114.859000", "095114.862000", "095114.865000", "095114.867000", "095114.870000", "095114.872000", "095114.875000", "095114.878000", "095154.824000", "095154.827000", "095154.830000", "095154.833000", "095154.835000", "095154.838000", "095154.840000", "095154.843000", "095154.845000", "095154.848000", "095154.851000", "095154.853000", "095154.856000", "095154.858000", "095154.871000", "095154.874000", "095154.878000", "095154.880000", "095154.883000", "095154.885000", "095234.826000", "095234.828000", "095234.831000", "095234.834000", "095234.836000", "095234.839000", "095234.841000", "095234.844000", "095234.846000", "095234.849000", "095234.852000", "095234.854000", "095234.857000", "095234.859000", "095234.862000", "095234.864000", "095234.867000", "095234.870000", "095234.872000", "095234.875000", "095314.824000", "095314.827000", "095314.830000", "095314.833000", "095314.835000", "095314.838000", "095314.840000", "095314.843000", "095314.846000", "095314.848000", "095314.851000", "095314.853000", "095314.856000", "095314.858000", "095314.861000", "095314.864000", "095314.866000", "095314.869000", "095314.872000", "095314.875000", "095354.825000", "095354.827000", "095354.830000", "095354.833000", "095354.835000", "095354.838000", "095354.840000", "095354.843000", "095354.846000", "095354.848000", "095354.851000", "095354.854000", "095354.856000", "095354.859000", "095354.861000", "095354.864000", "095354.867000", "095354.869000", "095354.872000", "095354.875000", "095414.825000", "095414.828000", "095414.830000", "095414.833000", "095414.836000", "095414.838000", "095414.841000", "095414.844000", "095414.846000", "095414.849000", "095454.825000", "095454.828000", "095454.831000", "095454.834000", "095454.836000", "095454.839000", "095454.841000", "095454.844000", "095454.847000", "095454.849000", "095454.852000", "095454.871000", "095454.873000", "095454.876000", "095454.879000", "095454.881000", "095454.884000", "095454.886000", "095454.895000", "095454.898000", "095534.824000", "095534.827000", "095534.830000", "095534.833000", "095534.835000", "095534.838000", "095534.840000", "095534.843000", "095534.846000", "095534.848000", "095534.851000", "095534.853000", "095534.856000", "095534.859000", "095534.861000", "095534.864000", "095534.866000", "095534.870000", "095534.873000", "095534.876000", "095536.293000"],
      "InstanceNumber": [1, 2, 3, 4, 5, 6, 7, 8, 9, 10, 11, 12, 13, 14, 15, 16, 17, 18, 19, 20, 21, 22, 23, 24, 25, 26, 27, 28, 29, 30, 31, 32, 33, 34, 35, 36, 37, 38, 39, 40, 41, 42, 43, 44, 45, 46, 47, 48, 49, 50, 51, 52, 53, 54, 55, 56, 57, 58, 59, 60, 61, 62, 63, 64, 65, 66, 67, 68, 69, 70, 71, 72, 73, 74, 75, 76, 77, 78, 79, 80, 81, 82, 83, 84, 85, 86, 87, 88, 89, 90, 91, 92, 93, 94, 95, 96, 97, 98, 99, 100, 101, 102, 103, 104, 105, 106, 107, 108, 109, 110, 111, 112, 113, 114, 115, 116, 117, 118, 119, 120, 121, 122, 123, 124, 125, 126, 127, 128, 129, 130, 131, 132, 133, 134, 135, 136, 137, 138, 139, 140, 141, 142, 143, 144, 145, 146, 147, 148, 149, 150, 151, 152, 153, 154, 155, 156, 157, 158, 159, 160, 161, 162, 163, 164, 165, 166, 167, 168, 169, 170, 171, 172, 173, 174, 175, 176, 177, 178, 179, 180, 181, 182, 183, 184, 185, 186, 187, 188, 189, 190, 191, 192, 193, 194, 195, 196, 197, 198, 199, 200],
      "LargestImagePixelValue": [2023, 2028, 2027, 2032, 2028, 2032, 2030, 2028, 2028, 2023, 2028, 2029, 2027, 2029, 2031, 2031, 2032, 2029, 2033, 2023, 2024, 2027, 2027, 2029, 2028, 2027, 2029, 2026, 2023, 2031, 2030, 2022, 2027, 2026, 2022, 2026, 2021, 2027, 2023, 2024, 2027, 2023, 2023, 2023, 2021, 2018, 2020, 2023, 2025, 2026, 2019, 2019, 2022, 2018, 2025, 2024, 2028, 2025, 2026, 2022, 2025, 2027, 2020, 2027, 2024, 2023, 2027, 2028, 2027, 2034, 2032, 2031, 2024, 2026, 2026, 2023, 2030, 2032, 2029, 2027, 2027, 2023, 2021, 2026, 2029, 2027, 2028, 2026, 2021, 2026, 2029, 2027, 2033, 2023, 2031, 2026, 2026, 2026, 2026, 2030, 2029, 2025, 2024, 2023, 2022, 2026, 2021, 2024, 2026, 2027, 2030, 2024, 2026, 2024, 2023, 2029, 2024, 2029, 2026, 2024, 2023, 2028, 2025, 2026, 2029, 2024, 2021, 2026, 2022, 2028, 2024, 2023, 2019, 2024, 2025, 2024, 2020, 2017, 2017, 2030, 2030, 2025, 2025, 2024, 2025, 2025, 2024, 2020, 2030, 2025, 2023, 2023, 2022, 2024, 2020, 2026, 2026, 2023, 2020, 2022, 2024, 2020, 2027, 2024, 2020, 2024, 2023, 2024, 2029, 2021, 2026, 2029, 2027, 2023, 2022, 2022, 2031, 2021, 2026, 2023, 2024, 2030, 2027, 2022, 2019, 2024, 2024, 2024, 2022, 2024, 2016, 2018, 2015, 2020, 2015, 2027, 2019, 2022, 2021, 2022],
      "WindowWidth": [2100.0, 2100.0, 2100.0, 2100.0, 2100.0, 2100.0, 2100.0, 2100.0, 2100.0, 2100.0, 2100.0, 2100.0, 2100.0, 2100.0, 2100.0, 2100.0, 2100.0, 2100.0, 2100.0, 2100.0, 2100.0, 2099.0, 2099.0, 2100.0, 2100.0, 2099.0, 2100.0, 2100.0, 2099.0, 2100.0, 2100.0, 2100.0, 2100.0, 2100.0, 2100.0, 2100.0, 2100.0, 2099.0, 2100.0, 2100.0, 2100.0, 2100.0, 2100.0, 2100.0, 2100.0, 2100.0, 2100.0, 2100.0, 2100.0, 2100.0, 2100.0, 2100.0, 2100.0, 2100.0, 2100.0, 2100.0, 2100.0, 2100.0, 2100.0, 2100.0, 2100.0, 2100.0, 2100.0, 2100.0, 2100.0, 2100.0, 2100.0, 2100.0, 2100.0, 2100.0, 2100.0, 2100.0, 2100.0, 2100.0, 2100.0, 2100.0, 2100.0, 2100.0, 2100.0, 2100.0, 2100.0, 2100.0, 2100.0, 2100.0, 2100.0, 2100.0, 2100.0, 2100.0, 2100.0, 2100.0, 2100.0, 2100.0, 2100.0, 2100.0, 2100.0, 2100.0, 2100.0, 2100.0, 2100.0, 2100.0, 2099.0, 2100.0, 2100.0, 2100.0, 2100.0, 2100.0, 2100.0, 2100.0, 2100.0, 2100.0, 2100.0, 2100.0, 2100.0, 2100.0, 2100.0, 2100.0, 2100.0, 2100.0, 2100.0, 2100.0, 2100.0, 2100.0, 2100.0, 2100.0, 2100.0, 2100.0, 2100.0, 2100.0, 2100.0, 2100.0, 2100.0, 2100.0, 2100.0, 2100.0, 2100.0, 2100.0, 2100.0, 2100.0, 2100.0, 2099.0, 2100.0, 2100.0, 2100.0, 2100.0, 2100.0, 2099.0, 2100.0, 2099.0, 2099.0, 2100.0, 2100.0, 2100.0, 2100.0, 2100.0, 2099.0, 2100.0, 2099.0, 2099.0, 2099.0, 2100.0, 2100.0, 2100.0, 2100.0, 2099.0, 2099.0, 2100.0, 2099.0, 2100.0, 2100.0, 2100.0, 2099.0, 2100.0, 2100.0, 2100.0, 2100.0, 2099.0, 2100.0, 2100.0, 2099.0, 2100.0, 2099.0, 2099.0, 2100.0, 2099.0, 2100.0, 2099.0, 2100.0, 2099.0, 2100.0, 2099.0, 2100.0, 2099.0, 2099.0, 2099.0, 2100.0, 2099.0, 2100.0, 2100.0, 2099.0, 2099.0]
    },
    "slices": {}
  }
}