{
  "AcquisitionMatrixPE": 80,
  "AcquisitionNumber": 1,
  "AcquisitionTime": "09:55:47.515000",
  "BandwidthPerPixelPhaseEncode": 25,
  "BaseResolution": 80,
  "BodyPartExamined": "BRAIN",
  "CoilCombinationMethod": "Sum of Squares",
  "ConsistencyInfo": "N4_VE11C_LATEST_20160120",
  "ConversionSoftware": "dcm2niix",
  "ConversionSoftwareVersion": "v1.0.20220720",
  "DerivedVendorReportedEchoSpacing": 0.0005,
  "DeviceSerialNumber": "66112",
  "DwellTime": 2.7e-06,
  "EchoTime": 0.03,
  "EchoTrainLength": 80,
  "EffectiveEchoSpacing": 0.0005,
  "FlipAngle": 77,
  "HeudiconvVersion": "0.13.1",
  "ImageOrientationPatientDICOM": [0.994442, -0.105045, 0.00715943, 0.0903263, 0.88609, 0.454627],
  "ImageOrientationText": "Tra>Cor(26.9)>Sag(3.1)",
  "ImageType": [
    "ORIGINAL",
    "PRIMARY",
    "M",
    "ND",
    "NORM",
    "MOSAIC"
],
  "ImagingFrequency": 123.252,
  "InPlanePhaseEncodingDirectionDICOM": "COL",
  "InstitutionAddress": "Maynard 3,Hanover,NH,US,03755",
  "InstitutionName": "Dartmouth College - PBS",
  "InstitutionalDepartmentName": "Department",
  "MRAcquisitionType": "2D",
  "MagneticFieldStrength": 3,
  "Manufacturer": "Siemens",
  "ManufacturersModelName": "Prisma",
  "MatrixCoilMode": "SENSE",
  "Modality": "MR",
  "NonlinearGradientCorrection": false,
  "PartialFourier": 1,
  "PatientPosition": "HFS",
  "PercentPhaseFOV": 100,
  "PercentSampling": 100,
  "PhaseEncodingDirection": "j-",
  "PhaseEncodingSteps": 80,
  "PhaseResolution": 1,
  "PixelBandwidth": 2315,
  "ProcedureStepDescription": "dbic^QA",
  "ProtocolName": "func-bold_fa-77",
  "PulseSequenceDetails": "%SiemensSeq%\\ep2d_bold",
  "ReceiveCoilActiveElements": "HEA;HEP",
  "ReceiveCoilName": "Head_32",
  "ReconMatrixPE": 80,
  "RepetitionTime": 2,
  "SAR": 0.0435636,
  "ScanOptions": "FS",
  "ScanningSequence": "EP",
  "SequenceName": "*epfid2d1_80",
  "SequenceVariant": "SK",
  "SeriesDescription": "func-bold_fa-77",
  "SeriesNumber": 8,
  "ShimSetting": [4145, -7708, -7518, 212, -75, -71, -2, 57],
  "SliceThickness": 3.5,
  "SliceTiming": [0.99, 0, 1.0575, 0.0675, 1.1225, 0.1325, 1.19, 0.2, 1.255, 0.265, 1.32, 0.33, 1.3875, 0.3975, 1.4525, 0.4625, 1.52, 0.53, 1.585, 0.595, 1.65, 0.66, 1.7175, 0.7275, 1.7825, 0.7925, 1.85, 0.86, 1.915, 0.925],
  "SoftwareVersions": "syngo MR E11",
  "SpacingBetweenSlices": 3.99,
  "StationName": "AWP66112",
  "TotalReadoutTime": 0.0395,
  "TxRefAmp": 231.078,
  "dcmmeta_affine": [
    [-2.983325242996216, 0.2709788382053375, 0.21585913002490997, 107.49603271484375],
    [0.3151341676712036, 2.6582703590393066, 1.8012975454330444, -131.35557556152344],
    [0.02147829905152321, -1.3638800382614136, 3.553706645965576, 17.250762939453125],
    [0.0, 0.0, 0.0, 1.0]
],
  "dcmmeta_reorient_transform": [
    [0.0, -1.0, 0.0, 79.0],
    [1.0, 0.0, 0.0, 0.0],
    [0.0, 0.0, 1.0, 0.0],
    [0.0, 0.0, 0.0, 1.0]
],
  "dcmmeta_shape": [80, 80, 30, 200],
  "dcmmeta_slice_dim": 2,
  "dcmmeta_version": 0.6,
  "global": {
    "const": {
      "AccessionNumber": "qa",
      "AcquisitionMatrix": [80, 0, 0, 80],
      "AngioFlag": "N",
      "BitsAllocated": 16,
      "BitsStored": 12,
      "BodyPartExamined": "BRAIN",
      "Columns": 480,
      "EchoNumbers": 1,
      "EchoTime": 30.0,
      "EchoTrainLength": 80,
      "FlipAngle": 77.0,
      "HighBit": 11,
      "ImageOrientationPatient": [0.99444172769995, -0.1050447177422, 0.00715943319036, 0.09032627868799, 0.88609015174514, 0.45462666701223],
      "ImagePositionPatient": [-779.76416219491, -547.2750481068, -367.567416859],
      "ImageType": [
        "ORIGINAL",
        "PRIMARY",
        "M",
        "ND",
        "NORM",
        "MOSAIC"
],
      "ImagedNucleus": "1H",
      "ImagingFrequency": 123.252363,
      "InPlanePhaseEncodingDirection": "COL",
      "MRAcquisitionType": "2D",
      "MagneticFieldStrength": 3.0,
      "Manufacturer": "SIEMENS",
      "ManufacturerModelName": "Prisma",
      "Modality": "MR",
      "NumberOfAverages": 1.0,
      "NumberOfPhaseEncodingSteps": 80,
      "PercentPhaseFieldOfView": 100.0,
      "PercentSampling": 100.0,
      "PerformedProcedureStepStartTime": "093748.141000",
      "PhotometricInterpretation": "MONOCHROME2",
      "PixelBandwidth": 2315.0,
      "PixelRepresentation": 0,
      "PixelSpacing": [3.0, 3.0],
      "ProtocolName": "func-bold_fa-77",
      "RepetitionTime": 2000.0,
      "Rows": 480,
      "SAR": 0.04356362426103,
      "SamplesPerPixel": 1,
      "ScanOptions": "FS",
      "ScanningSequence": "EP",
      "SequenceName": "*epfid2d1_80",
      "SequenceVariant": "SK",
      "SeriesDescription": "func-bold_fa-77",
      "SeriesNumber": 8,
      "SeriesTime": "095634.897000",
      "SliceLocation": -38.120887105178,
      "SliceThickness": 3.5,
      "SmallestImagePixelValue": 0,
      "SoftwareVersions": "syngo MR E11",
      "SpacingBetweenSlices": 3.9899998437296,
      "SpecificCharacterSet": "ISO_IR 100",
      "StudyID": "4",
      "StudyTime": "093748.092000",
      "TransmitCoilName": "Body",
      "VariableFlipAngleFlag": "N",
      "WindowCenterWidthExplanation": "Algo1",
      "dBdt": 0.0},
    "slices": {}
  },
  "time": {
    "samples": {
      "AcquisitionNumber": [1, 2, 3, 4, 5, 6, 7, 8, 9, 10, 11, 12, 13, 14, 15, 16, 17, 18, 19, 20, 21, 22, 23, 24, 25, 26, 27, 28, 29, 30, 31, 32, 33, 34, 35, 36, 37, 38, 39, 40, 41, 42, 43, 44, 45, 46, 47, 48, 49, 50, 51, 52, 53, 54, 55, 56, 57, 58, 59, 60, 61, 62, 63, 64, 65, 66, 67, 68, 69, 70, 71, 72, 73, 74, 75, 76, 77, 78, 79, 80, 81, 82, 83, 84, 85, 86, 87, 88, 89, 90, 91, 92, 93, 94, 95, 96, 97, 98, 99, 100, 101, 102, 103, 104, 105, 106, 107, 108, 109, 110, 111, 112, 113, 114, 115, 116, 117, 118, 119, 120, 121, 122, 123, 124, 125, 126, 127, 128, 129, 130, 131, 132, 133, 134, 135, 136, 137, 138, 139, 140, 141, 142, 143, 144, 145, 146, 147, 148, 149, 150, 151, 152, 153, 154, 155, 156, 157, 158, 159, 160, 161, 162, 163, 164, 165, 166, 167, 168, 169, 170, 171, 172, 173, 174, 175, 176, 177, 178, 179, 180, 181, 182, 183, 184, 185, 186, 187, 188, 189, 190, 191, 192, 193, 194, 195, 196, 197, 198, 199, 200],
      "AcquisitionTime": ["095547.515000", "095549.515000", "095551.515000", "095553.515000", "095555.515000", "095557.515000", "095559.515000", "095601.515000", "095603.515000", "095605.515000", "095607.515000", "095609.515000", "095611.515000", "095613.515000", "095615.515000", "095617.515000", "095619.515000", "095621.515000", "095623.515000", "095625.515000", "095627.515000", "095629.515000", "095631.515000", "095633.515000", "095635.515000", "095637.515000", "095639.515000", "095641.515000", "095643.515000", "095645.515000", "095647.515000", "095649.515000", "095651.515000", "095653.515000", "095655.515000", "095657.515000", "095659.515000", "095701.515000", "095703.515000", "095705.515000", "095707.515000", "095709.515000", "095711.515000", "095713.515000", "095715.515000", "095717.515000", "095719.515000", "095721.515000", "095723.515000", "095725.515000", "095727.515000", "095729.515000", "095731.515000", "095733.515000", "095735.515000", "095737.515000", "095739.515000", "095741.515000", "095743.515000", "095745.515000", "095747.515000", "095749.515000", "095751.515000", "095753.515000", "095755.515000", "095757.515000", "095759.515000", "095801.515000", "095803.515000", "095805.515000", "095807.515000", "095809.515000", "095811.515000", "095813.515000", "095815.515000", "095817.515000", "095819.515000", "095821.515000", "095823.515000", "095825.515000", "095827.515000", "095829.515000", "095831.515000", "095833.515000", "095835.515000", "095837.515000", "095839.515000", "095841.515000", "095843.515000", "095845.515000", "095847.515000", "095849.515000", "095851.515000", "095853.515000", "095855.515000", "095857.515000", "095859.515000", "095901.515000", "095903.515000", "095905.515000", "095907.515000", "095909.515000", "095911.515000", "095913.515000", "095915.515000", "095917.515000", "095919.515000", "095921.515000", "095923.515000", "095925.515000", "095927.515000", "095929.515000", "095931.515000", "095933.515000", "095935.515000", "095937.515000", "095939.515000", "095941.515000", "095943.515000", "095945.515000", "095947.515000", "095949.515000", "095951.515000", "095953.515000", "095955.515000", "095957.515000", "095959.515000", "100001.515000", "100003.515000", "100005.515000", "100007.515000", "100009.515000", "100011.515000", "100013.515000", "100015.515000", "100017.515000", "100019.515000", "100021.515000", "100023.515000", "100025.515000", "100027.515000", "100029.515000", "100031.515000", "100033.515000", "100035.515000", "100037.515000", "100039.515000", "100041.515000", "100043.515000", "100045.515000", "100047.515000", "100049.515000", "100051.515000", "100053.515000", "100055.515000", "100057.515000", "100059.515000", "100101.515000", "100103.515000", "100105.515000", "100107.515000", "100109.515000", "100111.515000", "100113.515000", "100115.515000", "100117.515000", "100119.515000", "100121.515000", "100123.515000", "100125.515000", "100127.515000", "100129.515000", "100131.515000", "100133.515000", "100135.515000", "100137.515000", "100139.515000", "100141.515000", "100143.515000", "100145.515000", "100147.515000", "100149.515000", "100151.515000", "100153.515000", "100155.515000", "100157.515000", "100159.515000", "100201.515000", "100203.515000", "100205.515000", "100207.515000", "100209.515000", "100211.515000", "100213.515000", "100215.515000", "100217.515000", "100219.515000", "100221.515000", "100223.515000", "100225.515000"],
      "ContentTime": ["095634.900000", "095634.904000", "095634.906000", "095634.909000", "095634.912000", "095634.914000", "095634.917000", "095634.920000", "095634.922000", "095634.925000", "095634.927000", "095634.931000", "095634.934000", "095634.937000", "095634.939000", "095634.942000", "095634.944000", "095634.947000", "095634.950000", "095634.952000", "095634.955000", "095634.958000", "095634.960000", "095634.963000", "095714.896000", "095714.899000", "095714.902000", "095714.905000", "095714.907000", "095714.910000", "095714.912000", "095714.915000", "095714.918000", "095714.920000", "095714.923000", "095714.925000", "095714.928000", "095714.930000", "095714.933000", "095714.935000", "095714.938000", "095714.941000", "095714.943000", "095714.946000", "095754.895000", "095754.898000", "095754.901000", "095754.904000", "095754.906000", "095754.909000", "095754.911000", "095754.914000", "095754.917000", "095754.919000", "095754.922000", "095754.924000", "095754.927000", "095754.929000", "095754.932000", "095754.935000", "095754.937000", "095754.940000", "095754.942000", "095754.945000", "095834.895000", "095834.898000", "095834.901000", "095834.904000", "095834.906000", "095834.909000", "095834.911000", "095834.914000", "095834.917000", "095834.919000", "095834.922000", "095834.924000", "095834.927000", "095834.929000", "095834.932000", "095834.935000", "095834.937000", "095834.940000", "095834.942000", "095834.945000", "095914.897000", "095914.899000", "095914.902000", "095914.905000", "095914.907000", "095914.910000", "095914.912000", "095914.915000", "095914.918000", "095914.920000", "095914.923000", "095914.925000", "095914.928000", "095914.931000", "095914.933000", "095914.936000", "095914.938000", "095914.941000", "095914.943000", "095914.946000", "095954.897000", "095954.899000", "095954.902000", "095954.905000", "095954.907000", "095954.910000", "095954.912000", "095954.915000", "095954.918000", "095954.920000", "095954.923000", "095954.926000", "095954.928000", "095954.931000", "095954.933000", "095954.936000", "095954.938000", "095954.941000", "095954.943000", "095954.946000", "100034.895000", "100034.898000", "100034.901000", "100034.904000", "100034.906000", "100034.909000", "100034.912000", "100034.914000", "100034.917000", "100034.919000", "100034.922000", "100034.925000", "100034.927000", "100034.930000", "100034.932000", "100034.935000", "100034.937000", "100034.940000", "100034.942000", "100034.945000", "100114.895000", "100114.898000", "100114.901000", "100114.904000", "100114.906000", "100114.909000", "100114.911000", "100114.914000", "100114.917000", "100114.919000", "100114.922000", "100114.925000", "100114.927000", "100114.930000", "100114.932000", "100114.935000", "100114.938000", "100114.940000", "100114.943000", "100114.945000", "100154.897000", "100154.899000", "100154.902000", "100154.905000", "100154.907000", "100154.910000", "100154.912000", "100154.915000", "100154.918000", "100154.920000", "100154.923000", "100154.925000", "100154.928000", "100154.931000", "100154.933000", "100154.936000", "100154.938000", "100154.941000", "100154.943000", "100154.946000", "100226.701000", "100226.704000", "100226.707000", "100226.710000", "100226.712000", "100226.715000", "100226.717000", "100226.720000", "100226.723000", "100226.725000", "100226.728000", "100226.731000", "100226.741000", "100226.744000", "100226.756000", "100226.760000"],
      "InstanceCreationTime": ["095634.900000", "095634.904000", "095634.906000", "095634.909000", "095634.912000", "095634.914000", "095634.917000", "095634.920000", "095634.922000", "095634.925000", "095634.927000", "095634.931000", "095634.934000", "095634.937000", "095634.939000", "095634.942000", "095634.944000", "095634.947000", "095634.950000", "095634.952000", "095634.955000", "095634.958000", "095634.960000", "095634.963000", "095714.896000", "095714.899000", "095714.902000", "095714.905000", "095714.907000", "095714.910000", "095714.912000", "095714.915000", "095714.918000", "095714.920000", "095714.923000", "095714.925000", "095714.928000", "095714.930000", "095714.933000", "095714.935000", "095714.938000", "095714.941000", "095714.943000", "095714.946000", "095754.895000", "095754.898000", "095754.901000", "095754.904000", "095754.906000", "095754.909000", "095754.911000", "095754.914000", "095754.917000", "095754.919000", "095754.922000", "095754.924000", "095754.927000", "095754.929000", "095754.932000", "095754.935000", "095754.937000", "095754.940000", "095754.942000", "095754.945000", "095834.895000", "095834.898000", "095834.901000", "095834.904000", "095834.906000", "095834.909000", "095834.911000", "095834.914000", "095834.917000", "095834.919000", "095834.922000", "095834.924000", "095834.927000", "095834.929000", "095834.932000", "095834.935000", "095834.937000", "095834.940000", "095834.942000", "095834.945000", "095914.897000", "095914.899000", "095914.902000", "095914.905000", "095914.907000", "095914.910000", "095914.912000", "095914.915000", "095914.918000", "095914.920000", "095914.923000", "095914.925000", "095914.928000", "095914.931000", "095914.933000", "095914.936000", "095914.938000", "095914.941000", "095914.943000", "095914.946000", "095954.897000", "095954.899000", "095954.902000", "095954.905000", "095954.907000", "095954.910000", "095954.912000", "095954.915000", "095954.918000", "095954.920000", "095954.923000", "095954.926000", "095954.928000", "095954.931000", "095954.933000", "095954.936000", "095954.938000", "095954.941000", "095954.943000", "095954.946000", "100034.895000", "100034.898000", "100034.901000", "100034.904000", "100034.906000", "100034.909000", "100034.912000", "100034.914000", "100034.917000", "100034.919000", "100034.922000", "100034.925000", "100034.927000", "100034.930000", "100034.932000", "100034.935000", "100034.937000", "100034.940000", "100034.942000", "100034.945000", "100114.895000", "100114.898000", "100114.901000", "100114.904000", "100114.906000", "100114.909000", "100114.911000", "100114.914000", "100114.917000", "100114.919000", "100114.922000", "100114.925000", "100114.927000", "100114.930000", "100114.932000", "100114.935000", "100114.938000", "100114.940000", "100114.943000", "100114.945000", "100154.897000", "100154.899000", "100154.902000", "100154.905000", "100154.907000", "100154.910000", "100154.912000", "100154.915000", "100154.918000", "100154.920000", "100154.923000", "100154.925000", "100154.928000", "100154.931000", "100154.933000", "100154.936000", "100154.938000", "100154.941000", "100154.943000", "100154.946000", "100226.701000", "100226.704000", "100226.707000", "100226.710000", "100226.712000", "100226.715000", "100226.717000", "100226.720000", "100226.723000", "100226.725000", "100226.728000", "100226.731000", "100226.741000", "100226.744000", "100226.756000", "100226.760000"],
      "InstanceNumber": [1, 2, 3, 4, 5, 6, 7, 8, 9, 10, 11, 12, 13, 14, 15, 16, 17, 18, 19, 20, 21, 22, 23, 24, 25, 26, 27, 28, 29, 30, 31, 32, 33, 34, 35, 36, 37, 38, 39, 40, 41, 42, 43, 44, 45, 46, 47, 48, 49, 50, 51, 52, 53, 54, 55, 56, 57, 58, 59, 60, 61, 62, 63, 64, 65, 66, 67, 68, 69, 70, 71, 72, 73, 74, 75, 76, 77, 78, 79, 80, 81, 82, 83, 84, 85, 86, 87, 88, 89, 90, 91, 92, 93, 94, 95, 96, 97, 98, 99, 100, 101, 102, 103, 104, 105, 106, 107, 108, 109, 110, 111, 112, 113, 114, 115, 116, 117, 118, 119, 120, 121, 122, 123, 124, 125, 126, 127, 128, 129, 130, 131, 132, 133, 134, 135, 136, 137, 138, 139, 140, 141, 142, 143, 144, 145, 146, 147, 148, 149, 150, 151, 152, 153, 154, 155, 156, 157, 158, 159, 160, 161, 162, 163, 164, 165, 166, 167, 168, 169, 170, 171, 172, 173, 174, 175, 176, 177, 178, 179, 180, 181, 182, 183, 184, 185, 186, 187, 188, 189, 190, 191, 192, 193, 194, 195, 196, 197, 198, 199, 200],
      "LargestImagePixelValue": [2101, 2100, 2102, 2101, 2100, 2099, 2099, 2097, 2100, 2100, 2099, 2100, 2101, 2101, 2101, 2100, 2101, 2100, 2102, 2098, 2099, 2099, 2098, 2100, 2099, 2099, 2098, 2096, 2099, 2098, 2100, 2100, 2101, 2101, 2100, 2102, 2101, 2099, 2099, 2096, 2096, 2096, 2097, 2099, 2098, 2097, 2101, 2099, 2099, 2100, 2101, 2100, 2099, 2099, 2099, 2097, 2097, 2100, 2102, 2101, 2100, 2098, 2102, 2101, 2102, 2101, 2103, 2102, 2101, 2099, 2100, 2097, 2094, 2091, 2093, 2092, 2095, 2095, 2097, 2096, 2098, 2098, 2094, 2098, 2097, 2096, 2095, 2095, 2096, 2096, 2095, 2095, 2099, 2097, 2097, 2096, 2098, 2096, 2096, 2098, 2094, 2094, 2091, 2091, 2090, 2092, 2094, 2095, 2097, 2099, 2101, 2100, 2100, 2098, 2097, 2097, 2096, 2095, 2096, 2096, 2095, 2097, 2096, 2097, 2098, 2096, 2097, 2098, 2097, 2097, 2097, 2096, 2097, 2095, 2094, 2095, 2096, 2096, 2096, 2094, 2095, 2096, 2093, 2093, 2092, 2096, 2095, 2092, 2094, 2095, 2094, 2095, 2097, 2096, 2098, 2099, 2099, 2095, 2099, 2099, 2100, 2098, 2100, 2101, 2097, 2099, 2094, 2097, 2094, 2093, 2093, 2093, 2095, 2096, 2099, 2098, 2100, 2103, 2102, 2102, 2102, 2100, 2100, 2098, 2096, 2094, 2094, 2095, 2094, 2093, 2094, 2092, 2094, 2094, 2094, 2095, 2092, 2096, 2093, 2093],
      "WindowCenter": [981.0, 981.0, 982.0, 982.0, 982.0, 981.0, 982.0, 982.0, 982.0, 981.0, 982.0, 981.0, 981.0, 981.0, 982.0, 981.0, 981.0, 981.0, 981.0, 981.0, 980.0, 981.0, 982.0, 981.0, 981.0, 981.0, 981.0, 981.0, 981.0, 981.0, 981.0, 981.0, 982.0, 981.0, 980.0, 980.0, 981.0, 982.0, 982.0, 981.0, 980.0, 981.0, 982.0, 980.0, 982.0, 980.0, 981.0, 981.0, 980.0, 982.0, 980.0, 980.0, 980.0, 981.0, 981.0, 981.0, 981.0, 982.0, 980.0, 981.0, 982.0, 980.0, 982.0, 981.0, 982.0, 981.0, 980.0, 981.0, 982.0, 980.0, 982.0, 981.0, 981.0, 980.0, 981.0, 980.0, 980.0, 981.0, 981.0, 982.0, 982.0, 982.0, 982.0, 981.0, 981.0, 981.0, 980.0, 982.0, 981.0, 981.0, 981.0, 982.0, 982.0, 981.0, 981.0, 981.0, 980.0, 982.0, 981.0, 980.0, 980.0, 980.0, 980.0, 982.0, 980.0, 981.0, 980.0, 981.0, 980.0, 981.0, 981.0, 981.0, 982.0, 981.0, 980.0, 981.0, 980.0, 981.0, 982.0, 981.0, 981.0, 981.0, 981.0, 981.0, 981.0, 981.0, 981.0, 981.0, 981.0, 981.0, 981.0, 981.0, 981.0, 981.0, 981.0, 981.0, 981.0, 981.0, 980.0, 980.0, 981.0, 980.0, 980.0, 980.0, 980.0, 981.0, 980.0, 980.0, 980.0, 980.0, 980.0, 980.0, 980.0, 979.0, 980.0, 980.0, 980.0, 980.0, 980.0, 981.0, 981.0, 980.0, 980.0, 980.0, 980.0, 980.0, 981.0, 981.0, 980.0, 981.0, 980.0, 981.0, 980.0, 981.0, 980.0, 980.0, 980.0, 979.0, 980.0, 981.0, 980.0, 981.0, 980.0, 980.0, 980.0, 981.0, 980.0, 980.0, 980.0, 980.0, 980.0, 980.0, 981.0, 980.0, 979.0, 981.0, 979.0, 980.0, 980.0, 979.0],
      "WindowWidth": [2153.0, 2153.0, 2154.0, 2155.0, 2154.0, 2154.0, 2155.0, 2155.0, 2155.0, 2154.0, 2155.0, 2154.0, 2154.0, 2154.0, 2154.0, 2154.0, 2154.0, 2154.0, 2154.0, 2153.0, 2153.0, 2153.0, 2154.0, 2154.0, 2154.0, 2154.0, 2154.0, 2153.0, 2154.0, 2154.0, 2153.0, 2154.0, 2154.0, 2154.0, 2153.0, 2153.0, 2154.0, 2155.0, 2154.0, 2153.0, 2153.0, 2153.0, 2154.0, 2153.0, 2154.0, 2152.0, 2153.0, 2153.0, 2153.0, 2154.0, 2153.0, 2152.0, 2153.0, 2154.0, 2153.0, 2153.0, 2153.0, 2154.0, 2152.0, 2153.0, 2154.0, 2152.0, 2154.0, 2153.0, 2154.0, 2153.0, 2152.0, 2153.0, 2154.0, 2152.0, 2154.0, 2153.0, 2153.0, 2152.0, 2153.0, 2152.0, 2152.0, 2153.0, 2153.0, 2153.0, 2153.0, 2153.0, 2153.0, 2153.0, 2153.0, 2153.0, 2152.0, 2153.0, 2152.0, 2153.0, 2153.0, 2153.0, 2153.0, 2153.0, 2153.0, 2153.0, 2152.0, 2154.0, 2153.0, 2152.0, 2152.0, 2152.0, 2152.0, 2153.0, 2152.0, 2153.0, 2152.0, 2153.0, 2152.0, 2153.0, 2153.0, 2153.0, 2153.0, 2153.0, 2152.0, 2153.0, 2152.0, 2153.0, 2153.0, 2153.0, 2153.0, 2153.0, 2153.0, 2153.0, 2152.0, 2152.0, 2153.0, 2153.0, 2152.0, 2152.0, 2152.0, 2153.0, 2152.0, 2152.0, 2153.0, 2152.0, 2153.0, 2152.0, 2152.0, 2151.0, 2152.0, 2151.0, 2152.0, 2151.0, 2151.0, 2152.0, 2151.0, 2152.0, 2152.0, 2152.0, 2152.0, 2152.0, 2152.0, 2150.0, 2152.0, 2152.0, 2152.0, 2152.0, 2152.0, 2153.0, 2153.0, 2152.0, 2152.0, 2152.0, 2152.0, 2151.0, 2152.0, 2152.0, 2151.0, 2152.0, 2152.0, 2152.0, 2152.0, 2152.0, 2151.0, 2152.0, 2152.0, 2151.0, 2152.0, 2152.0, 2152.0, 2152.0, 2152.0, 2152.0, 2151.0, 2152.0, 2152.0, 2152.0, 2151.0, 2151.0, 2152.0, 2152.0, 2152.0, 2152.0, 2151.0, 2152.0, 2151.0, 2152.0, 2152.0, 2151.0]
    },
    "slices": {}
  }
}