{
  "AcquisitionMatrixPE": 80,
  "AcquisitionNumber": 1,
  "AcquisitionTime": "09:53:18.750000",
  "BandwidthPerPixelPhaseEncode": 48.077,
  "BaseResolution": 80,
  "BodyPartExamined": "BRAIN",
  "CoilCombinationMethod": "Sum of Squares",
  "ConsistencyInfo": "N4_VE11E_LATEST_20181129",
  "ConversionSoftware": "dcm2niix",
  "ConversionSoftwareVersion": "v1.0.20220720",
  "DerivedVendorReportedEchoSpacing": 0.000519999,
  "DeviceSerialNumber": "66112",
  "DwellTime": 2.7e-06,
  "EchoTime": 0.035,
  "EchoTrainLength": 39,
  "EffectiveEchoSpacing": 0.00026,
  "FlipAngle": 90,
  "HeudiconvVersion": "0.13.1",
  "ImageOrientationPatientDICOM": [0.999972, 0.00745239, 0.000110809, -0.00715578, 0.955803, 0.29392],
  "ImageOrientationText": "Tra>Cor(17.1)>Sag(-0.1)",
  "ImageType": [
    "ORIGINAL",
    "PRIMARY",
    "M",
    "ND",
    "NORM",
    "MOSAIC"
],
  "ImagingFrequency": 123.259,
  "InPlanePhaseEncodingDirectionDICOM": "COL",
  "InstitutionAddress": "Maynard 3,Hanover,NH,US,03755",
  "InstitutionName": "Dartmouth College - PBS",
  "InstitutionalDepartmentName": "Department",
  "MRAcquisitionType": "2D",
  "MagneticFieldStrength": 3,
  "Manufacturer": "Siemens",
  "ManufacturersModelName": "Prisma",
  "MatrixCoilMode": "GRAPPA",
  "Modality": "MR",
  "NonlinearGradientCorrection": false,
  "ParallelReductionFactorInPlane": 2,
  "PartialFourier": 1,
  "PatientPosition": "HFS",
  "PercentPhaseFOV": 100,
  "PercentSampling": 100,
  "PhaseEncodingDirection": "j-",
  "PhaseEncodingSteps": 79,
  "PhaseResolution": 1,
  "PixelBandwidth": 2315,
  "ProcedureStepDescription": "dbic^QA",
  "ProtocolName": "func-bold_task-rest_acq-p2",
  "PulseSequenceDetails": "%SiemensSeq%\\ep2d_bold",
  "ReceiveCoilActiveElements": "HEA;HEP",
  "ReceiveCoilName": "Head_32",
  "ReconMatrixPE": 80,
  "RefLinesPE": 24,
  "RepetitionTime": 2,
  "SAR": 0.0513381,
  "ScanOptions": "FS",
  "ScanningSequence": "EP",
  "SequenceName": "*epfid2d1_80",
  "SequenceVariant": "SK",
  "SeriesDescription": "func-bold_task-rest_acq-p2",
  "SeriesNumber": 5,
  "ShimSetting": [4219, -7735, -7491, -9, -147, -52, 18, 64],
  "SliceThickness": 3.5,
  "SliceTiming": [0.99, 0, 1.0575, 0.0675, 1.1225, 0.1325, 1.1875, 0.1975, 1.255, 0.265, 1.32, 0.33, 1.3875, 0.3975, 1.4525, 0.4625, 1.5175, 0.5275, 1.585, 0.595, 1.65, 0.66, 1.7175, 0.7275, 1.7825, 0.7925, 1.8475, 0.8575, 1.915, 0.925],
  "SoftwareVersions": "syngo MR E11",
  "SpacingBetweenSlices": 3.99,
  "StationName": "AWP66112",
  "TaskName": "rest",
  "TotalReadoutTime": 0.02054,
  "TxRefAmp": 229.283,
  "dcmmeta_affine": [
    [-2.9999167919158936, -0.021467342972755432, -0.008317142724990845, 119.91996002197266],
    [-0.0223571565002203, 2.8674092292785645, 1.1727131605148315, -126.87694549560547],
    [0.00033242692006751895, -0.8817613124847412, 3.8137612342834473, -12.667608261108398],
    [0.0, 0.0, 0.0, 1.0]
],
  "dcmmeta_reorient_transform": [
    [0.0, -1.0, 0.0, 79.0],
    [1.0, 0.0, 0.0, 0.0],
    [0.0, 0.0, 1.0, 0.0],
    [0.0, 0.0, 0.0, 1.0]
],
  "dcmmeta_shape": [80, 80, 30, 200],
  "dcmmeta_slice_dim": 2,
  "dcmmeta_version": 0.6,
  "global": {
    "const": {
      "AccessionNumber": "qa",
      "AcquisitionMatrix": [80, 0, 0, 80],
      "AngioFlag": "N",
      "BitsAllocated": 16,
      "BitsStored": 12,
      "BodyPartExamined": "BRAIN",
      "Columns": 480,
      "EchoNumbers": 1,
      "EchoTime": 35.0,
      "EchoTrainLength": 39,
      "FlipAngle": 90.0,
      "HighBit": 11,
      "ImageOrientationPatient": [0.9999722244516, 0.00745238530195, 0.00011080897046, -0.0071557807567, 0.95580310069635, 0.29392044416987],
      "ImagePositionPatient": [-713.91390260689, -677.60168250087, -258.74550534331],
      "ImageType": [
        "ORIGINAL",
        "PRIMARY",
        "M",
        "ND",
        "NORM",
        "MOSAIC"
],
      "ImagedNucleus": "1H",
      "ImagingFrequency": 123.259272,
      "InPlanePhaseEncodingDirection": "COL",
      "MRAcquisitionType": "2D",
      "MagneticFieldStrength": 3.0,
      "Manufacturer": "SIEMENS",
      "ManufacturerModelName": "Prisma",
      "Modality": "MR",
      "NumberOfAverages": 1.0,
      "NumberOfPhaseEncodingSteps": 79,
      "PercentPhaseFieldOfView": 100.0,
      "PercentSampling": 100.0,
      "PerformedProcedureStepStartTime": "094909.396000",
      "PhotometricInterpretation": "MONOCHROME2",
      "PixelBandwidth": 2315.0,
      "PixelRepresentation": 0,
      "PixelSpacing": [3.0, 3.0],
      "ProtocolName": "func-bold_task-rest_acq-p2",
      "RepetitionTime": 2000.0,
      "Rows": 480,
      "SAR": 0.0513380976317,
      "SamplesPerPixel": 1,
      "ScanOptions": "FS",
      "ScanningSequence": "EP",
      "SequenceName": "*epfid2d1_80",
      "SequenceVariant": "SK",
      "SeriesDescription": "func-bold_task-rest_acq-p2",
      "SeriesNumber": 5,
      "SeriesTime": "095406.071000",
      "SliceLocation": -49.648843722251,
      "SliceThickness": 3.5,
      "SmallestImagePixelValue": 0,
      "SoftwareVersions": "syngo MR E11",
      "SpacingBetweenSlices": 3.989999991085,
      "SpecificCharacterSet": "ISO_IR 100",
      "StudyID": "17",
      "StudyTime": "094909.308000",
      "TransmitCoilName": "Body",
      "VariableFlipAngleFlag": "N",
      "WindowCenterWidthExplanation": "Algo1"
    },
    "slices": {}
  },
  "time": {
    "samples": {
      "AcquisitionNumber": [1, 2, 3, 4, 5, 6, 7, 8, 9, 10, 11, 12, 13, 14, 15, 16, 17, 18, 19, 20, 21, 22, 23, 24, 25, 26, 27, 28, 29, 30, 31, 32, 33, 34, 35, 36, 37, 38, 39, 40, 41, 42, 43, 44, 45, 46, 47, 48, 49, 50, 51, 52, 53, 54, 55, 56, 57, 58, 59, 60, 61, 62, 63, 64, 65, 66, 67, 68, 69, 70, 71, 72, 73, 74, 75, 76, 77, 78, 79, 80, 81, 82, 83, 84, 85, 86, 87, 88, 89, 90, 91, 92, 93, 94, 95, 96, 97, 98, 99, 100, 101, 102, 103, 104, 105, 106, 107, 108, 109, 110, 111, 112, 113, 114, 115, 116, 117, 118, 119, 120, 121, 122, 123, 124, 125, 126, 127, 128, 129, 130, 131, 132, 133, 134, 135, 136, 137, 138, 139, 140, 141, 142, 143, 144, 145, 146, 147, 148, 149, 150, 151, 152, 153, 154, 155, 156, 157, 158, 159, 160, 161, 162, 163, 164, 165, 166, 167, 168, 169, 170, 171, 172, 173, 174, 175, 176, 177, 178, 179, 180, 181, 182, 183, 184, 185, 186, 187, 188, 189, 190, 191, 192, 193, 194, 195, 196, 197, 198, 199, 200],
      "AcquisitionTime": ["095318.750000", "095320.750000", "095322.750000", "095324.750000", "095326.750000", "095328.750000", "095330.750000", "095332.750000", "095334.750000", "095336.750000", "095338.750000", "095340.750000", "095342.750000", "095344.750000", "095346.750000", "095348.750000", "095350.750000", "095352.750000", "095354.750000", "095356.750000", "095358.750000", "095400.750000", "095402.750000", "095404.750000", "095406.750000", "095408.750000", "095410.750000", "095412.750000", "095414.750000", "095416.750000", "095418.750000", "095420.750000", "095422.750000", "095424.750000", "095426.750000", "095428.750000", "095430.750000", "095432.750000", "095434.750000", "095436.750000", "095438.750000", "095440.750000", "095442.750000", "095444.750000", "095446.750000", "095448.750000", "095450.750000", "095452.750000", "095454.750000", "095456.750000", "095458.750000", "095500.750000", "095502.750000", "095504.750000", "095506.750000", "095508.750000", "095510.750000", "095512.750000", "095514.750000", "095516.750000", "095518.750000", "095520.750000", "095522.750000", "095524.750000", "095526.750000", "095528.750000", "095530.750000", "095532.750000", "095534.750000", "095536.750000", "095538.750000", "095540.750000", "095542.750000", "095544.750000", "095546.750000", "095548.750000", "095550.750000", "095552.750000", "095554.750000", "095556.750000", "095558.750000", "095600.750000", "095602.750000", "095604.750000", "095606.750000", "095608.750000", "095610.750000", "095612.750000", "095614.750000", "095616.750000", "095618.750000", "095620.750000", "095622.750000", "095624.750000", "095626.750000", "095628.750000", "095630.750000", "095632.750000", "095634.750000", "095636.750000", "095638.750000", "095640.750000", "095642.750000", "095644.750000", "095646.750000", "095648.750000", "095650.750000", "095652.750000", "095654.750000", "095656.750000", "095658.750000", "095700.750000", "095702.750000", "095704.750000", "095706.750000", "095708.750000", "095710.750000", "095712.750000", "095714.750000", "095716.750000", "095718.750000", "095720.750000", "095722.750000", "095724.750000", "095726.750000", "095728.750000", "095730.750000", "095732.750000", "095734.750000", "095736.750000", "095738.750000", "095740.750000", "095742.750000", "095744.750000", "095746.750000", "095748.750000", "095750.750000", "095752.750000", "095754.750000", "095756.750000", "095758.750000", "095800.750000", "095802.750000", "095804.750000", "095806.750000", "095808.750000", "095810.750000", "095812.750000", "095814.750000", "095816.750000", "095818.750000", "095820.750000", "095822.750000", "095824.750000", "095826.750000", "095828.750000", "095830.750000", "095832.750000", "095834.750000", "095836.750000", "095838.750000", "095840.750000", "095842.750000", "095844.750000", "095846.750000", "095848.750000", "095850.750000", "095852.750000", "095854.750000", "095856.750000", "095858.750000", "095900.750000", "095902.750000", "095904.750000", "095906.750000", "095908.750000", "095910.750000", "095912.750000", "095914.750000", "095916.750000", "095918.750000", "095920.750000", "095922.750000", "095924.750000", "095926.750000", "095928.750000", "095930.750000", "095932.750000", "095934.750000", "095936.750000", "095938.750000", "095940.750000", "095942.750000", "095944.750000", "095946.750000", "095948.750000", "095950.750000", "095952.750000", "095954.750000", "095956.750000"],
      "ContentTime": ["095406.074000", "095406.077000", "095406.080000", "095406.082000", "095406.095000", "095406.097000", "095406.100000", "095406.102000", "095406.104000", "095406.107000", "095406.109000", "095406.111000", "095406.114000", "095406.116000", "095406.118000", "095406.120000", "095406.123000", "095406.125000", "095406.127000", "095406.130000", "095406.132000", "095406.134000", "095406.137000", "095446.069000", "095446.072000", "095446.074000", "095446.076000", "095446.079000", "095446.081000", "095446.083000", "095446.086000", "095446.088000", "095446.090000", "095446.092000", "095446.095000", "095446.097000", "095446.099000", "095446.102000", "095446.104000", "095446.106000", "095446.109000", "095446.111000", "095446.113000", "095526.070000", "095526.073000", "095526.075000", "095526.077000", "095526.080000", "095526.082000", "095526.084000", "095526.087000", "095526.089000", "095526.091000", "095526.094000", "095526.096000", "095526.098000", "095526.101000", "095526.112000", "095526.114000", "095526.116000", "095526.119000", "095526.121000", "095526.123000", "095606.069000", "095606.080000", "095606.083000", "095606.085000", "095606.087000", "095606.090000", "095606.092000", "095606.094000", "095606.097000", "095606.099000", "095606.101000", "095606.103000", "095606.106000", "095606.108000", "095606.110000", "095606.113000", "095606.115000", "095606.117000", "095606.120000", "095606.122000", "095646.069000", "095646.072000", "095646.074000", "095646.076000", "095646.079000", "095646.081000", "095646.083000", "095646.086000", "095646.088000", "095646.090000", "095646.092000", "095646.095000", "095646.097000", "095646.099000", "095646.102000", "095646.104000", "095646.106000", "095646.109000", "095646.111000", "095646.113000", "095706.069000", "095706.072000", "095706.074000", "095706.076000", "095706.079000", "095706.081000", "095706.083000", "095706.086000", "095706.088000", "095706.090000", "095746.070000", "095746.073000", "095746.075000", "095746.077000", "095746.080000", "095746.082000", "095746.084000", "095746.087000", "095746.089000", "095746.091000", "095746.094000", "095746.096000", "095746.098000", "095746.101000", "095746.103000", "095746.105000", "095746.107000", "095746.110000", "095746.112000", "095746.114000", "095826.069000", "095826.072000", "095826.074000", "095826.076000", "095826.079000", "095826.081000", "095826.083000", "095826.086000", "095826.088000", "095826.090000", "095826.092000", "095826.095000", "095826.097000", "095826.099000", "095826.102000", "095826.104000", "095826.106000", "095826.109000", "095826.111000", "095826.113000", "095906.069000", "095906.072000", "095906.074000", "095906.076000", "095906.078000", "095906.081000", "095906.083000", "095906.085000", "095906.088000", "095906.090000", "095906.092000", "095906.095000", "095906.097000", "095906.099000", "095906.102000", "095906.104000", "095906.106000", "095906.108000", "095906.111000", "095906.113000", "095946.069000", "095946.072000", "095946.074000", "095946.076000", "095946.079000", "095946.081000", "095946.083000", "095946.086000", "095946.088000", "095946.090000", "095946.093000", "095946.095000", "095946.097000", "095946.100000", "095946.102000", "095946.104000", "095946.107000", "095946.109000", "095946.111000", "095946.114000", "095958.751000", "095958.760000", "095958.763000", "095958.765000", "095958.770000", "095958.774000", "095958.776000"],
      "InstanceCreationTime": ["095406.074000", "095406.077000", "095406.080000", "095406.082000", "095406.095000", "095406.097000", "095406.100000", "095406.102000", "095406.104000", "095406.107000", "095406.109000", "095406.111000", "095406.114000", "095406.116000", "095406.118000", "095406.120000", "095406.123000", "095406.125000", "095406.127000", "095406.130000", "095406.132000", "095406.134000", "095406.137000", "095446.069000", "095446.072000", "095446.074000", "095446.076000", "095446.079000", "095446.081000", "095446.083000", "095446.086000", "095446.088000", "095446.090000", "095446.092000", "095446.095000", "095446.097000", "095446.099000", "095446.102000", "095446.104000", "095446.106000", "095446.109000", "095446.111000", "095446.113000", "095526.070000", "095526.073000", "095526.075000", "095526.077000", "095526.080000", "095526.082000", "095526.084000", "095526.087000", "095526.089000", "095526.091000", "095526.094000", "095526.096000", "095526.098000", "095526.101000", "095526.112000", "095526.114000", "095526.116000", "095526.119000", "095526.121000", "095526.123000", "095606.069000", "095606.080000", "095606.083000", "095606.085000", "095606.087000", "095606.090000", "095606.092000", "095606.094000", "095606.097000", "095606.099000", "095606.101000", "095606.103000", "095606.106000", "095606.108000", "095606.110000", "095606.113000", "095606.115000", "095606.117000", "095606.120000", "095606.122000", "095646.069000", "095646.072000", "095646.074000", "095646.076000", "095646.079000", "095646.081000", "095646.083000", "095646.086000", "095646.088000", "095646.090000", "095646.092000", "095646.095000", "095646.097000", "095646.099000", "095646.102000", "095646.104000", "095646.106000", "095646.109000", "095646.111000", "095646.113000", "095706.069000", "095706.072000", "095706.074000", "095706.076000", "095706.079000", "095706.081000", "095706.083000", "095706.086000", "095706.088000", "095706.090000", "095746.070000", "095746.073000", "095746.075000", "095746.077000", "095746.080000", "095746.082000", "095746.084000", "095746.087000", "095746.089000", "095746.091000", "095746.094000", "095746.096000", "095746.098000", "095746.101000", "095746.103000", "095746.105000", "095746.107000", "095746.110000", "095746.112000", "095746.114000", "095826.069000", "095826.072000", "095826.074000", "095826.076000", "095826.079000", "095826.081000", "095826.083000", "095826.086000", "095826.088000", "095826.090000", "095826.092000", "095826.095000", "095826.097000", "095826.099000", "095826.102000", "095826.104000", "095826.106000", "095826.109000", "095826.111000", "095826.113000", "095906.069000", "095906.072000", "095906.074000", "095906.076000", "095906.078000", "095906.081000", "095906.083000", "095906.085000", "095906.088000", "095906.090000", "095906.092000", "095906.095000", "095906.097000", "095906.099000", "095906.102000", "095906.104000", "095906.106000", "095906.108000", "095906.111000", "095906.113000", "095946.069000", "095946.072000", "095946.074000", "095946.076000", "095946.079000", "095946.081000", "095946.083000", "095946.086000", "095946.088000", "095946.090000", "095946.093000", "095946.095000", "095946.097000", "095946.100000", "095946.102000", "095946.104000", "095946.107000", "095946.109000", "095946.111000", "095946.114000", "095958.751000", "095958.760000", "095958.763000", "095958.765000", "095958.770000", "095958.774000", "095958.776000"],
      "InstanceNumber": [1, 2, 3, 4, 5, 6, 7, 8, 9, 10, 11, 12, 13, 14, 15, 16, 17, 18, 19, 20, 21, 22, 23, 24, 25, 26, 27, 28, 29, 30, 31, 32, 33, 34, 35, 36, 37, 38, 39, 40, 41, 42, 43, 44, 45, 46, 47, 48, 49, 50, 51, 52, 53, 54, 55, 56, 57, 58, 59, 60, 61, 62, 63, 64, 65, 66, 67, 68, 69, 70, 71, 72, 73, 74, 75, 76, 77, 78, 79, 80, 81, 82, 83, 84, 85, 86, 87, 88, 89, 90, 91, 92, 93, 94, 95, 96, 97, 98, 99, 100, 101, 102, 103, 104, 105, 106, 107, 108, 109, 110, 111, 112, 113, 114, 115, 116, 117, 118, 119, 120, 121, 122, 123, 124, 125, 126, 127, 128, 129, 130, 131, 132, 133, 134, 135, 136, 137, 138, 139, 140, 141, 142, 143, 144, 145, 146, 147, 148, 149, 150, 151, 152, 153, 154, 155, 156, 157, 158, 159, 160, 161, 162, 163, 164, 165, 166, 167, 168, 169, 170, 171, 172, 173, 174, 175, 176, 177, 178, 179, 180, 181, 182, 183, 184, 185, 186, 187, 188, 189, 190, 191, 192, 193, 194, 195, 196, 197, 198, 199, 200],
      "LargestImagePixelValue": [2361, 2365, 2368, 2357, 2367, 2362, 2367, 2365, 2361, 2363, 2369, 2367, 2369, 2366, 2364, 2364, 2367, 2367, 2368, 2368, 2365, 2366, 2365, 2362, 2363, 2362, 2366, 2364, 2360, 2363, 2368, 2362, 2365, 2365, 2371, 2368, 2367, 2368, 2365, 2366, 2362, 2371, 2369, 2363, 2369, 2366, 2366, 2368, 2375, 2365, 2367, 2370, 2364, 2368, 2373, 2369, 2365, 2369, 2369, 2365, 2370, 2370, 2363, 2371, 2365, 2365, 2366, 2371, 2374, 2365, 2364, 2372, 2365, 2362, 2370, 2366, 2366, 2368, 2366, 2366, 2372, 2366, 2366, 2365, 2374, 2368, 2366, 2360, 2368, 2367, 2370, 2366, 2366, 2366, 2369, 2371, 2371, 2364, 2362, 2368, 2370, 2371, 2375, 2372, 2371, 2367, 2369, 2368, 2368, 2370, 2365, 2368, 2364, 2369, 2361, 2367, 2370, 2369, 2367, 2374, 2368, 2367, 2364, 2369, 2375, 2367, 2367, 2372, 2377, 2368, 2367, 2373, 2375, 2370, 2367, 2370, 2358, 2370, 2369, 2371, 2370, 2373, 2369, 2367, 2369, 2371, 2369, 2367, 2367, 2373, 2372, 2370, 2373, 2373, 2373, 2370, 2367, 2366, 2370, 2367, 2370, 2370, 2373, 2369, 2370, 2370, 2374, 2371, 2364, 2369, 2371, 2366, 2378, 2374, 2369, 2372, 2369, 2365, 2371, 2375, 2374, 2372, 2374, 2372, 2374, 2376, 2371, 2372, 2368, 2371, 2374, 2372, 2372, 2378, 2370, 2374, 2374, 2371, 2371, 2374],
      "WindowCenter": [1071.0, 1070.0, 1070.0, 1070.0, 1070.0, 1070.0, 1070.0, 1070.0, 1070.0, 1070.0, 1070.0, 1070.0, 1070.0, 1070.0, 1070.0, 1070.0, 1070.0, 1070.0, 1070.0, 1070.0, 1070.0, 1070.0, 1070.0, 1070.0, 1070.0, 1070.0, 1070.0, 1070.0, 1071.0, 1071.0, 1070.0, 1071.0, 1070.0, 1070.0, 1070.0, 1070.0, 1070.0, 1070.0, 1070.0, 1070.0, 1070.0, 1070.0, 1070.0, 1070.0, 1070.0, 1070.0, 1070.0, 1070.0, 1070.0, 1070.0, 1070.0, 1070.0, 1070.0, 1070.0, 1070.0, 1070.0, 1070.0, 1070.0, 1070.0, 1070.0, 1070.0, 1070.0, 1070.0, 1070.0, 1070.0, 1070.0, 1070.0, 1070.0, 1070.0, 1070.0, 1070.0, 1070.0, 1070.0, 1070.0, 1070.0, 1070.0, 1070.0, 1070.0, 1070.0, 1070.0, 1070.0, 1070.0, 1070.0, 1070.0, 1070.0, 1070.0, 1070.0, 1070.0, 1070.0, 1070.0, 1070.0, 1070.0, 1070.0, 1070.0, 1070.0, 1070.0, 1070.0, 1070.0, 1069.0, 1070.0, 1069.0, 1069.0, 1069.0, 1069.0, 1069.0, 1069.0, 1070.0, 1070.0, 1069.0, 1070.0, 1070.0, 1070.0, 1069.0, 1070.0, 1069.0, 1069.0, 1070.0, 1070.0, 1070.0, 1069.0, 1070.0, 1070.0, 1070.0, 1070.0, 1069.0, 1069.0, 1069.0, 1069.0, 1070.0, 1069.0, 1069.0, 1070.0, 1069.0, 1069.0, 1070.0, 1069.0, 1069.0, 1069.0, 1069.0, 1069.0, 1069.0, 1069.0, 1069.0, 1069.0, 1069.0, 1069.0, 1069.0, 1069.0, 1069.0, 1069.0, 1069.0, 1069.0, 1069.0, 1070.0, 1069.0, 1069.0, 1069.0, 1069.0, 1069.0, 1069.0, 1069.0, 1069.0, 1069.0, 1069.0, 1069.0, 1069.0, 1069.0, 1069.0, 1069.0, 1069.0, 1069.0, 1069.0, 1069.0, 1069.0, 1069.0, 1069.0, 1069.0, 1069.0, 1069.0, 1069.0, 1069.0, 1069.0, 1069.0, 1069.0, 1069.0, 1069.0, 1069.0, 1069.0, 1069.0, 1069.0, 1069.0, 1069.0, 1069.0, 1069.0, 1069.0, 1069.0, 1069.0, 1069.0, 1069.0, 1069.0],
      "WindowWidth": [2415.0, 2414.0, 2414.0, 2414.0, 2414.0, 2414.0, 2414.0, 2414.0, 2414.0, 2414.0, 2414.0, 2414.0, 2414.0, 2414.0, 2414.0, 2414.0, 2414.0, 2414.0, 2414.0, 2414.0, 2414.0, 2414.0, 2414.0, 2413.0, 2413.0, 2413.0, 2413.0, 2413.0, 2414.0, 2414.0, 2413.0, 2414.0, 2413.0, 2413.0, 2413.0, 2413.0, 2413.0, 2413.0, 2413.0, 2413.0, 2413.0, 2413.0, 2413.0, 2413.0, 2413.0, 2413.0, 2413.0, 2413.0, 2413.0, 2413.0, 2413.0, 2413.0, 2413.0, 2413.0, 2413.0, 2413.0, 2413.0, 2413.0, 2413.0, 2413.0, 2413.0, 2413.0, 2413.0, 2413.0, 2413.0, 2413.0, 2413.0, 2413.0, 2413.0, 2413.0, 2412.0, 2413.0, 2413.0, 2412.0, 2412.0, 2413.0, 2413.0, 2412.0, 2412.0, 2412.0, 2412.0, 2412.0, 2412.0, 2412.0, 2412.0, 2412.0, 2412.0, 2412.0, 2412.0, 2412.0, 2412.0, 2412.0, 2412.0, 2412.0, 2412.0, 2412.0, 2412.0, 2412.0, 2412.0, 2412.0, 2412.0, 2412.0, 2412.0, 2412.0, 2412.0, 2412.0, 2412.0, 2412.0, 2412.0, 2412.0, 2412.0, 2412.0, 2412.0, 2412.0, 2412.0, 2412.0, 2412.0, 2412.0, 2412.0, 2412.0, 2412.0, 2412.0, 2412.0, 2413.0, 2412.0, 2411.0, 2411.0, 2411.0, 2412.0, 2412.0, 2412.0, 2412.0, 2412.0, 2411.0, 2412.0, 2412.0, 2412.0, 2412.0, 2412.0, 2412.0, 2412.0, 2411.0, 2412.0, 2411.0, 2411.0, 2412.0, 2411.0, 2411.0, 2411.0, 2411.0, 2411.0, 2411.0, 2411.0, 2412.0, 2411.0, 2411.0, 2411.0, 2411.0, 2411.0, 2411.0, 2412.0, 2411.0, 2411.0, 2411.0, 2411.0, 2411.0, 2412.0, 2411.0, 2411.0, 2411.0, 2411.0, 2411.0, 2411.0, 2411.0, 2411.0, 2411.0, 2411.0, 2411.0, 2411.0, 2411.0, 2411.0, 2411.0, 2411.0, 2411.0, 2411.0, 2411.0, 2411.0, 2411.0, 2411.0, 2411.0, 2411.0, 2411.0, 2411.0, 2411.0, 2411.0, 2411.0, 2411.0, 2411.0, 2411.0, 2411.0]
    },
    "slices": {}
  }
}