{
  "AcquisitionMatrixPE": 80,
  "AcquisitionNumber": 1,
  "AcquisitionTime": "10:07:2.400000",
  "BandwidthPerPixelPhaseEncode": 25,
  "BaseResolution": 80,
  "BodyPartExamined": "BRAIN",
  "CoilCombinationMethod": "Sum of Squares",
  "ConsistencyInfo": "N4_VE11E_LATEST_20181129",
  "ConversionSoftware": "dcm2niix",
  "ConversionSoftwareVersion": "v1.0.20220720",
  "DerivedVendorReportedEchoSpacing": 0.0005,
  "DeviceSerialNumber": "66112",
  "DwellTime": 2.7e-06,
  "EchoTime": 0.03,
  "EchoTrainLength": 80,
  "EffectiveEchoSpacing": 0.0005,
  "FlipAngle": 77,
  "HeudiconvVersion": "0.13.1",
  "ImageOrientationPatientDICOM": [0.999972, 0.00745239, 0.000110809, -0.00715578, 0.955803, 0.29392],
  "ImageOrientationText": "Tra>Cor(17.1)>Sag(-0.1)",
  "ImageType": [
    "ORIGINAL",
    "PRIMARY",
    "M",
    "ND",
    "NORM",
    "MOSAIC"
],
  "ImagingFrequency": 123.259,
  "InPlanePhaseEncodingDirectionDICOM": "COL",
  "InstitutionAddress": "Maynard 3,Hanover,NH,US,03755",
  "InstitutionName": "Dartmouth College - PBS",
  "InstitutionalDepartmentName": "Department",
  "MRAcquisitionType": "2D",
  "MagneticFieldStrength": 3,
  "Manufacturer": "Siemens",
  "ManufacturersModelName": "Prisma",
  "MatrixCoilMode": "SENSE",
  "Modality": "MR",
  "NonlinearGradientCorrection": false,
  "PartialFourier": 1,
  "PatientPosition": "HFS",
  "PercentPhaseFOV": 100,
  "PercentSampling": 100,
  "PhaseEncodingDirection": "j-",
  "PhaseEncodingSteps": 80,
  "PhaseResolution": 1,
  "PixelBandwidth": 2315,
  "ProcedureStepDescription": "dbic^QA",
  "ProtocolName": "func-bold_fa-77",
  "PulseSequenceDetails": "%SiemensSeq%\\ep2d_bold",
  "ReceiveCoilActiveElements": "HEA;HEP",
  "ReceiveCoilName": "Head_32",
  "ReconMatrixPE": 80,
  "RepetitionTime": 2,
  "SAR": 0.040344,
  "ScanOptions": "FS",
  "ScanningSequence": "EP",
  "SequenceName": "*epfid2d1_80",
  "SequenceVariant": "SK",
  "SeriesDescription": "func-bold_fa-77",
  "SeriesNumber": 8,
  "ShimSetting": [4219, -7735, -7491, -9, -147, -55, 17, 64],
  "SliceThickness": 3.5,
  "SliceTiming": [0.99, 0, 1.055, 0.065, 1.12, 0.1325, 1.1875, 0.1975, 1.2525, 0.2625, 1.32, 0.33, 1.385, 0.395, 1.45, 0.46, 1.5175, 0.5275, 1.5825, 0.5925, 1.65, 0.66, 1.715, 0.725, 1.78, 0.79, 1.8475, 0.8575, 1.9125, 0.9225],
  "SoftwareVersions": "syngo MR E11",
  "SpacingBetweenSlices": 3.99,
  "StationName": "AWP66112",
  "TotalReadoutTime": 0.0395,
  "TxRefAmp": 229.283,
  "dcmmeta_affine": [
    [-2.9999167919158936, -0.021467342972755432, -0.008317142724990845, 119.92720794677734],
    [-0.0223571565002203, 2.8674092292785645, 1.1727131605148315, -127.86573791503906],
    [0.00033242692006751895, -0.8817613124847412, 3.8137612342834473, -13.695760726928711],
    [0.0, 0.0, 0.0, 1.0]
],
  "dcmmeta_reorient_transform": [
    [0.0, -1.0, 0.0, 79.0],
    [1.0, 0.0, 0.0, 0.0],
    [0.0, 0.0, 1.0, 0.0],
    [0.0, 0.0, 0.0, 1.0]
],
  "dcmmeta_shape": [80, 80, 30, 200],
  "dcmmeta_slice_dim": 2,
  "dcmmeta_version": 0.6,
  "global": {
    "const": {
      "AccessionNumber": "qa",
      "AcquisitionMatrix": [80, 0, 0, 80],
      "AngioFlag": "N",
      "BitsAllocated": 16,
      "BitsStored": 12,
      "BodyPartExamined": "BRAIN",
      "Columns": 480,
      "EchoNumbers": 1,
      "EchoTime": 30.0,
      "EchoTrainLength": 80,
      "FlipAngle": 77.0,
      "HighBit": 11,
      "ImageOrientationPatient": [0.9999722244516, 0.00745238530195, 0.00011080897046, -0.0071557807567, 0.95580310069635, 0.29392044416987],
      "ImagePositionPatient": [-713.92115786307, -676.61289103511, -259.77365780913],
      "ImageType": [
        "ORIGINAL",
        "PRIMARY",
        "M",
        "ND",
        "NORM",
        "MOSAIC"
],
      "ImagedNucleus": "1H",
      "ImagingFrequency": 123.259272,
      "InPlanePhaseEncodingDirection": "COL",
      "MRAcquisitionType": "2D",
      "MagneticFieldStrength": 3.0,
      "Manufacturer": "SIEMENS",
      "ManufacturerModelName": "Prisma",
      "Modality": "MR",
      "NumberOfAverages": 1.0,
      "NumberOfPhaseEncodingSteps": 80,
      "PercentPhaseFieldOfView": 100.0,
      "PercentSampling": 100.0,
      "PerformedProcedureStepStartTime": "094909.396000",
      "PhotometricInterpretation": "MONOCHROME2",
      "PixelBandwidth": 2315.0,
      "PixelRepresentation": 0,
      "PixelSpacing": [3.0, 3.0],
      "ProtocolName": "func-bold_fa-77",
      "RepetitionTime": 2000.0,
      "Rows": 480,
      "SAR": 0.04034403655969,
      "SamplesPerPixel": 1,
      "ScanOptions": "FS",
      "ScanningSequence": "EP",
      "SequenceName": "*epfid2d1_80",
      "SequenceVariant": "SK",
      "SeriesDescription": "func-bold_fa-77",
      "SeriesNumber": 8,
      "SeriesTime": "100725.985000",
      "SliceLocation": -50.922216432771,
      "SliceThickness": 3.5,
      "SmallestImagePixelValue": 0,
      "SoftwareVersions": "syngo MR E11",
      "SpacingBetweenSlices": 3.9900000007547,
      "SpecificCharacterSet": "ISO_IR 100",
      "StudyID": "17",
      "StudyTime": "094909.308000",
      "TransmitCoilName": "Body",
      "VariableFlipAngleFlag": "N",
      "WindowCenterWidthExplanation": "Algo1"
    },
    "slices": {}
  },
  "time": {
    "samples": {
      "AcquisitionNumber": [1, 2, 3, 4, 5, 6, 7, 8, 9, 10, 11, 12, 13, 14, 15, 16, 17, 18, 19, 20, 21, 22, 23, 24, 25, 26, 27, 28, 29, 30, 31, 32, 33, 34, 35, 36, 37, 38, 39, 40, 41, 42, 43, 44, 45, 46, 47, 48, 49, 50, 51, 52, 53, 54, 55, 56, 57, 58, 59, 60, 61, 62, 63, 64, 65, 66, 67, 68, 69, 70, 71, 72, 73, 74, 75, 76, 77, 78, 79, 80, 81, 82, 83, 84, 85, 86, 87, 88, 89, 90, 91, 92, 93, 94, 95, 96, 97, 98, 99, 100, 101, 102, 103, 104, 105, 106, 107, 108, 109, 110, 111, 112, 113, 114, 115, 116, 117, 118, 119, 120, 121, 122, 123, 124, 125, 126, 127, 128, 129, 130, 131, 132, 133, 134, 135, 136, 137, 138, 139, 140, 141, 142, 143, 144, 145, 146, 147, 148, 149, 150, 151, 152, 153, 154, 155, 156, 157, 158, 159, 160, 161, 162, 163, 164, 165, 166, 167, 168, 169, 170, 171, 172, 173, 174, 175, 176, 177, 178, 179, 180, 181, 182, 183, 184, 185, 186, 187, 188, 189, 190, 191, 192, 193, 194, 195, 196, 197, 198, 199, 200],
      "AcquisitionTime": ["100702.400000", "100704.400000", "100706.400000", "100708.400000", "100710.400000", "100712.400000", "100714.400000", "100716.400000", "100718.400000", "100720.400000", "100722.400000", "100724.400000", "100726.400000", "100728.400000", "100730.400000", "100732.400000", "100734.400000", "100736.400000", "100738.400000", "100740.400000", "100742.400000", "100744.400000", "100746.400000", "100748.400000", "100750.400000", "100752.400000", "100754.400000", "100756.400000", "100758.400000", "100800.400000", "100802.400000", "100804.400000", "100806.400000", "100808.400000", "100810.400000", "100812.400000", "100814.400000", "100816.400000", "100818.400000", "100820.400000", "100822.400000", "100824.400000", "100826.400000", "100828.400000", "100830.400000", "100832.400000", "100834.400000", "100836.400000", "100838.400000", "100840.400000", "100842.400000", "100844.400000", "100846.400000", "100848.400000", "100850.400000", "100852.400000", "100854.400000", "100856.400000", "100858.400000", "100900.400000", "100902.400000", "100904.400000", "100906.400000", "100908.400000", "100910.400000", "100912.400000", "100914.400000", "100916.400000", "100918.400000", "100920.400000", "100922.400000", "100924.400000", "100926.400000", "100928.400000", "100930.400000", "100932.400000", "100934.400000", "100936.400000", "100938.400000", "100940.400000", "100942.400000", "100944.400000", "100946.400000", "100948.400000", "100950.400000", "100952.400000", "100954.400000", "100956.400000", "100958.400000", "101000.400000", "101002.400000", "101004.400000", "101006.400000", "101008.400000", "101010.400000", "101012.400000", "101014.400000", "101016.400000", "101018.400000", "101020.400000", "101022.400000", "101024.400000", "101026.400000", "101028.400000", "101030.400000", "101032.400000", "101034.400000", "101036.400000", "101038.400000", "101040.400000", "101042.400000", "101044.400000", "101046.400000", "101048.400000", "101050.400000", "101052.400000", "101054.400000", "101056.400000", "101058.400000", "101100.400000", "101102.400000", "101104.400000", "101106.400000", "101108.400000", "101110.400000", "101112.400000", "101114.400000", "101116.400000", "101118.400000", "101120.400000", "101122.400000", "101124.400000", "101126.400000", "101128.400000", "101130.400000", "101132.400000", "101134.400000", "101136.400000", "101138.400000", "101140.400000", "101142.400000", "101144.400000", "101146.400000", "101148.400000", "101150.400000", "101152.400000", "101154.400000", "101156.400000", "101158.400000", "101200.400000", "101202.400000", "101204.400000", "101206.400000", "101208.400000", "101210.400000", "101212.400000", "101214.400000", "101216.400000", "101218.400000", "101220.400000", "101222.400000", "101224.400000", "101226.400000", "101228.400000", "101230.400000", "101232.400000", "101234.400000", "101236.400000", "101238.400000", "101240.400000", "101242.400000", "101244.400000", "101246.400000", "101248.400000", "101250.400000", "101252.400000", "101254.400000", "101256.400000", "101258.400000", "101300.400000", "101302.400000", "101304.400000", "101306.400000", "101308.400000", "101310.400000", "101312.400000", "101314.400000", "101316.400000", "101318.400000", "101320.400000", "101322.400000", "101324.400000", "101326.400000", "101328.400000", "101330.400000", "101332.400000", "101334.400000", "101336.400000", "101338.400000", "101340.400000"],
      "ContentTime": ["100725.988000", "100725.991000", "100726.002000", "100726.004000", "100726.007000", "100726.009000", "100726.011000", "100726.014000", "100726.016000", "100726.018000", "100726.024000", "100805.982000", "100805.985000", "100805.987000", "100805.990000", "100805.992000", "100805.995000", "100805.997000", "100806.000000", "100806.002000", "100806.005000", "100806.007000", "100806.009000", "100806.012000", "100806.014000", "100806.016000", "100806.019000", "100806.021000", "100806.023000", "100806.026000", "100806.028000", "100845.982000", "100845.985000", "100845.987000", "100845.989000", "100845.992000", "100845.994000", "100845.996000", "100846.000000", "100846.002000", "100846.004000", "100846.011000", "100846.014000", "100846.016000", "100846.018000", "100846.021000", "100846.023000", "100846.025000", "100846.027000", "100846.030000", "100846.032000", "100925.983000", "100925.986000", "100925.988000", "100925.991000", "100925.993000", "100925.996000", "100925.998000", "100926.001000", "100926.004000", "100926.006000", "100926.008000", "100926.010000", "100926.013000", "100926.015000", "100926.017000", "100926.020000", "100926.022000", "100926.024000", "100926.026000", "100926.029000", "101005.982000", "101005.985000", "101005.987000", "101005.990000", "101005.992000", "101005.994000", "101005.997000", "101006.000000", "101006.002000", "101006.005000", "101006.007000", "101006.009000", "101006.012000", "101006.014000", "101006.016000", "101006.019000", "101006.021000", "101006.023000", "101006.036000", "101006.038000", "101045.982000", "101045.985000", "101045.987000", "101045.990000", "101045.992000", "101045.994000", "101045.997000", "101046.000000", "101046.002000", "101046.005000", "101046.007000", "101046.009000", "101046.012000", "101046.014000", "101046.016000", "101046.019000", "101046.021000", "101046.023000", "101046.026000", "101046.028000", "101125.982000", "101125.985000", "101125.987000", "101125.990000", "101125.992000", "101125.994000", "101125.997000", "101126.000000", "101126.002000", "101126.005000", "101126.007000", "101126.009000", "101126.012000", "101126.014000", "101126.016000", "101126.019000", "101126.021000", "101126.023000", "101126.026000", "101126.028000", "101205.982000", "101205.985000", "101205.987000", "101205.990000", "101205.992000", "101205.994000", "101205.996000", "101206.000000", "101206.002000", "101206.005000", "101206.007000", "101206.009000", "101206.012000", "101206.014000", "101206.016000", "101206.019000", "101206.021000", "101206.023000", "101206.025000", "101206.028000", "101245.982000", "101245.985000", "101245.987000", "101245.990000", "101245.992000", "101245.994000", "101245.997000", "101246.000000", "101246.002000", "101246.005000", "101246.007000", "101246.009000", "101246.012000", "101246.014000", "101246.016000", "101246.019000", "101246.021000", "101246.024000", "101246.026000", "101246.028000", "101325.982000", "101325.985000", "101325.987000", "101325.990000", "101325.992000", "101325.994000", "101325.997000", "101326.000000", "101326.002000", "101326.005000", "101326.007000", "101326.009000", "101326.012000", "101326.014000", "101326.016000", "101326.018000", "101326.021000", "101326.023000", "101326.025000", "101326.028000", "101342.411000", "101342.413000", "101342.415000", "101342.418000", "101342.420000", "101342.423000", "101342.425000", "101342.428000", "101342.430000"],
      "InstanceCreationTime": ["100725.988000", "100725.991000", "100726.002000", "100726.004000", "100726.007000", "100726.009000", "100726.011000", "100726.014000", "100726.016000", "100726.018000", "100726.024000", "100805.982000", "100805.985000", "100805.987000", "100805.990000", "100805.992000", "100805.995000", "100805.997000", "100806.000000", "100806.002000", "100806.005000", "100806.007000", "100806.009000", "100806.012000", "100806.014000", "100806.016000", "100806.019000", "100806.021000", "100806.023000", "100806.026000", "100806.028000", "100845.982000", "100845.985000", "100845.987000", "100845.989000", "100845.992000", "100845.994000", "100845.996000", "100846.000000", "100846.002000", "100846.004000", "100846.011000", "100846.014000", "100846.016000", "100846.018000", "100846.021000", "100846.023000", "100846.025000", "100846.027000", "100846.030000", "100846.032000", "100925.983000", "100925.986000", "100925.988000", "100925.991000", "100925.993000", "100925.996000", "100925.998000", "100926.001000", "100926.004000", "100926.006000", "100926.008000", "100926.010000", "100926.013000", "100926.015000", "100926.017000", "100926.020000", "100926.022000", "100926.024000", "100926.026000", "100926.029000", "101005.982000", "101005.985000", "101005.987000", "101005.990000", "101005.992000", "101005.994000", "101005.997000", "101006.000000", "101006.002000", "101006.005000", "101006.007000", "101006.009000", "101006.012000", "101006.014000", "101006.016000", "101006.019000", "101006.021000", "101006.023000", "101006.036000", "101006.038000", "101045.982000", "101045.985000", "101045.987000", "101045.990000", "101045.992000", "101045.994000", "101045.997000", "101046.000000", "101046.002000", "101046.005000", "101046.007000", "101046.009000", "101046.012000", "101046.014000", "101046.016000", "101046.019000", "101046.021000", "101046.023000", "101046.026000", "101046.028000", "101125.982000", "101125.985000", "101125.987000", "101125.990000", "101125.992000", "101125.994000", "101125.997000", "101126.000000", "101126.002000", "101126.005000", "101126.007000", "101126.009000", "101126.012000", "101126.014000", "101126.016000", "101126.019000", "101126.021000", "101126.023000", "101126.026000", "101126.028000", "101205.982000", "101205.985000", "101205.987000", "101205.990000", "101205.992000", "101205.994000", "101205.996000", "101206.000000", "101206.002000", "101206.005000", "101206.007000", "101206.009000", "101206.012000", "101206.014000", "101206.016000", "101206.019000", "101206.021000", "101206.023000", "101206.025000", "101206.028000", "101245.982000", "101245.985000", "101245.987000", "101245.990000", "101245.992000", "101245.994000", "101245.997000", "101246.000000", "101246.002000", "101246.005000", "101246.007000", "101246.009000", "101246.012000", "101246.014000", "101246.016000", "101246.019000", "101246.021000", "101246.024000", "101246.026000", "101246.028000", "101325.982000", "101325.985000", "101325.987000", "101325.990000", "101325.992000", "101325.994000", "101325.997000", "101326.000000", "101326.002000", "101326.005000", "101326.007000", "101326.009000", "101326.012000", "101326.014000", "101326.016000", "101326.018000", "101326.021000", "101326.023000", "101326.025000", "101326.028000", "101342.411000", "101342.413000", "101342.415000", "101342.418000", "101342.420000", "101342.423000", "101342.425000", "101342.428000", "101342.430000"],
      "InstanceNumber": [1, 2, 3, 4, 5, 6, 7, 8, 9, 10, 11, 12, 13, 14, 15, 16, 17, 18, 19, 20, 21, 22, 23, 24, 25, 26, 27, 28, 29, 30, 31, 32, 33, 34, 35, 36, 37, 38, 39, 40, 41, 42, 43, 44, 45, 46, 47, 48, 49, 50, 51, 52, 53, 54, 55, 56, 57, 58, 59, 60, 61, 62, 63, 64, 65, 66, 67, 68, 69, 70, 71, 72, 73, 74, 75, 76, 77, 78, 79, 80, 81, 82, 83, 84, 85, 86, 87, 88, 89, 90, 91, 92, 93, 94, 95, 96, 97, 98, 99, 100, 101, 102, 103, 104, 105, 106, 107, 108, 109, 110, 111, 112, 113, 114, 115, 116, 117, 118, 119, 120, 121, 122, 123, 124, 125, 126, 127, 128, 129, 130, 131, 132, 133, 134, 135, 136, 137, 138, 139, 140, 141, 142, 143, 144, 145, 146, 147, 148, 149, 150, 151, 152, 153, 154, 155, 156, 157, 158, 159, 160, 161, 162, 163, 164, 165, 166, 167, 168, 169, 170, 171, 172, 173, 174, 175, 176, 177, 178, 179, 180, 181, 182, 183, 184, 185, 186, 187, 188, 189, 190, 191, 192, 193, 194, 195, 196, 197, 198, 199, 200],
      "LargestImagePixelValue": [2285, 2283, 2284, 2283, 2285, 2283, 2285, 2284, 2287, 2288, 2287, 2287, 2287, 2285, 2285, 2286, 2283, 2285, 2285, 2284, 2286, 2283, 2286, 2288, 2284, 2285, 2285, 2285, 2286, 2284, 2286, 2288, 2286, 2285, 2286, 2287, 2284, 2285, 2288, 2286, 2285, 2285, 2285, 2285, 2285, 2286, 2286, 2287, 2285, 2284, 2285, 2284, 2286, 2287, 2286, 2284, 2285, 2285, 2286, 2285, 2284, 2284, 2284, 2284, 2286, 2283, 2284, 2285, 2284, 2285, 2283, 2284, 2284, 2286, 2285, 2284, 2285, 2286, 2285, 2284, 2283, 2284, 2283, 2285, 2284, 2285, 2285, 2285, 2283, 2283, 2285, 2283, 2285, 2282, 2282, 2284, 2286, 2284, 2283, 2282, 2284, 2285, 2285, 2285, 2284, 2283, 2284, 2284, 2286, 2285, 2287, 2285, 2285, 2286, 2284, 2287, 2285, 2285, 2285, 2284, 2285, 2283, 2285, 2285, 2283, 2283, 2286, 2285, 2283, 2285, 2282, 2285, 2283, 2283, 2285, 2284, 2284, 2283, 2284, 2284, 2284, 2285, 2283, 2283, 2283, 2285, 2282, 2285, 2283, 2284, 2282, 2284, 2285, 2284, 2283, 2282, 2283, 2283, 2285, 2284, 2285, 2282, 2281, 2285, 2282, 2281, 2282, 2284, 2285, 2283, 2284, 2284, 2284, 2283, 2282, 2282, 2281, 2280, 2282, 2284, 2280, 2284, 2283, 2283, 2283, 2283, 2282, 2284, 2284, 2283, 2285, 2284, 2282, 2283, 2287, 2284, 2284, 2283, 2284, 2282],
      "WindowCenter": [1052.0, 1052.0, 1053.0, 1053.0, 1052.0, 1054.0, 1054.0, 1052.0, 1052.0, 1052.0, 1052.0, 1053.0, 1053.0, 1052.0, 1052.0, 1053.0, 1052.0, 1053.0, 1053.0, 1053.0, 1053.0, 1052.0, 1052.0, 1052.0, 1052.0, 1053.0, 1052.0, 1053.0, 1053.0, 1052.0, 1052.0, 1053.0, 1053.0, 1053.0, 1053.0, 1052.0, 1052.0, 1052.0, 1052.0, 1052.0, 1053.0, 1054.0, 1052.0, 1052.0, 1053.0, 1052.0, 1052.0, 1052.0, 1053.0, 1053.0, 1053.0, 1053.0, 1052.0, 1053.0, 1052.0, 1053.0, 1052.0, 1053.0, 1053.0, 1052.0, 1053.0, 1053.0, 1052.0, 1053.0, 1053.0, 1052.0, 1052.0, 1052.0, 1053.0, 1052.0, 1053.0, 1052.0, 1052.0, 1053.0, 1052.0, 1053.0, 1052.0, 1052.0, 1052.0, 1052.0, 1052.0, 1052.0, 1052.0, 1052.0, 1053.0, 1053.0, 1052.0, 1053.0, 1053.0, 1053.0, 1053.0, 1052.0, 1053.0, 1053.0, 1053.0, 1053.0, 1053.0, 1052.0, 1053.0, 1052.0, 1053.0, 1053.0, 1051.0, 1054.0, 1053.0, 1053.0, 1051.0, 1052.0, 1053.0, 1053.0, 1052.0, 1053.0, 1053.0, 1051.0, 1052.0, 1052.0, 1052.0, 1052.0, 1051.0, 1052.0, 1051.0, 1051.0, 1053.0, 1053.0, 1051.0, 1051.0, 1051.0, 1051.0, 1052.0, 1051.0, 1053.0, 1051.0, 1051.0, 1051.0, 1051.0, 1051.0, 1052.0, 1052.0, 1052.0, 1051.0, 1051.0, 1052.0, 1052.0, 1052.0, 1051.0, 1052.0, 1052.0, 1052.0, 1051.0, 1052.0, 1052.0, 1051.0, 1051.0, 1052.0, 1051.0, 1052.0, 1051.0, 1052.0, 1051.0, 1052.0, 1052.0, 1051.0, 1051.0, 1051.0, 1051.0, 1052.0, 1051.0, 1052.0, 1051.0, 1051.0, 1051.0, 1052.0, 1051.0, 1051.0, 1052.0, 1052.0, 1051.0, 1051.0, 1052.0, 1051.0, 1052.0, 1051.0, 1052.0, 1051.0, 1051.0, 1052.0, 1051.0, 1051.0, 1051.0, 1052.0, 1051.0, 1052.0, 1052.0, 1052.0, 1051.0, 1051.0, 1051.0, 1051.0, 1051.0, 1051.0],
      "WindowWidth": [2385.0, 2385.0, 2386.0, 2386.0, 2385.0, 2386.0, 2386.0, 2385.0, 2385.0, 2385.0, 2385.0, 2386.0, 2386.0, 2385.0, 2385.0, 2386.0, 2385.0, 2386.0, 2386.0, 2386.0, 2386.0, 2385.0, 2385.0, 2385.0, 2385.0, 2386.0, 2385.0, 2386.0, 2386.0, 2385.0, 2385.0, 2386.0, 2386.0, 2386.0, 2386.0, 2385.0, 2385.0, 2385.0, 2385.0, 2385.0, 2386.0, 2386.0, 2385.0, 2385.0, 2386.0, 2385.0, 2385.0, 2385.0, 2385.0, 2385.0, 2385.0, 2386.0, 2385.0, 2385.0, 2384.0, 2385.0, 2385.0, 2386.0, 2386.0, 2385.0, 2385.0, 2385.0, 2384.0, 2385.0, 2385.0, 2384.0, 2384.0, 2385.0, 2385.0, 2384.0, 2385.0, 2384.0, 2385.0, 2385.0, 2385.0, 2385.0, 2384.0, 2385.0, 2384.0, 2384.0, 2384.0, 2384.0, 2384.0, 2384.0, 2385.0, 2385.0, 2384.0, 2385.0, 2385.0, 2385.0, 2385.0, 2384.0, 2385.0, 2385.0, 2385.0, 2385.0, 2385.0, 2385.0, 2385.0, 2384.0, 2385.0, 2385.0, 2384.0, 2385.0, 2385.0, 2385.0, 2384.0, 2384.0, 2385.0, 2385.0, 2385.0, 2385.0, 2385.0, 2384.0, 2385.0, 2385.0, 2385.0, 2384.0, 2384.0, 2384.0, 2384.0, 2384.0, 2385.0, 2385.0, 2384.0, 2384.0, 2384.0, 2384.0, 2384.0, 2384.0, 2385.0, 2384.0, 2384.0, 2384.0, 2384.0, 2384.0, 2384.0, 2384.0, 2384.0, 2384.0, 2384.0, 2384.0, 2384.0, 2384.0, 2384.0, 2384.0, 2384.0, 2384.0, 2384.0, 2384.0, 2384.0, 2384.0, 2384.0, 2384.0, 2384.0, 2384.0, 2384.0, 2384.0, 2383.0, 2384.0, 2384.0, 2383.0, 2383.0, 2383.0, 2383.0, 2384.0, 2383.0, 2384.0, 2383.0, 2383.0, 2383.0, 2384.0, 2384.0, 2383.0, 2384.0, 2384.0, 2383.0, 2383.0, 2383.0, 2383.0, 2384.0, 2383.0, 2384.0, 2383.0, 2383.0, 2384.0, 2383.0, 2383.0, 2383.0, 2384.0, 2383.0, 2384.0, 2383.0, 2383.0, 2383.0, 2383.0, 2383.0, 2383.0, 2383.0, 2383.0]
    },
    "slices": {}
  }
}