{
  "AcquisitionMatrixPE": 80,
  "AcquisitionNumber": 1,
  "AcquisitionTime": "09:35:15.145000",
  "BandwidthPerPixelPhaseEncode": 44.643,
  "BaseResolution": 80,
  "BodyPartExamined": "BRAIN",
  "CoilCombinationMethod": "Sum of Squares",
  "ConsistencyInfo": "N4_VE11C_LATEST_20160120",
  "ConversionSoftware": "dcm2niix",
  "ConversionSoftwareVersion": "v1.0.20220720",
  "DerivedVendorReportedEchoSpacing": 0.000559998,
  "DeviceSerialNumber": "66112",
  "DwellTime": 2.7e-06,
  "EchoTime": 0.035,
  "EchoTrainLength": 39,
  "EffectiveEchoSpacing": 0.000279999,
  "FlipAngle": 90,
  "HeudiconvVersion": "0.13.1",
  "ImageOrientationPatientDICOM": [0.971419, 0.236681, 0.0180988, -0.231066, 0.925406, 0.300387],
  "ImageOrientationText": "Tra>Cor(17.2)>Sag(-3.1)",
  "ImageType": [
    "ORIGINAL",
    "PRIMARY",
    "M",
    "ND",
    "NORM",
    "MOSAIC"
],
  "ImagingFrequency": 123.252,
  "InPlanePhaseEncodingDirectionDICOM": "COL",
  "InstitutionAddress": "Maynard 3,Hanover,NH,US,03755",
  "InstitutionName": "Dartmouth College - PBS",
  "InstitutionalDepartmentName": "Department",
  "MRAcquisitionType": "2D",
  "MagneticFieldStrength": 3,
  "Manufacturer": "Siemens",
  "ManufacturersModelName": "Prisma",
  "Modality": "MR",
  "MultibandAccelerationFactor": 4,
  "NonlinearGradientCorrection": false,
  "ParallelReductionFactorInPlane": 2,
  "PartialFourier": 1,
  "PatientPosition": "HFS",
  "PercentPhaseFOV": 100,
  "PercentSampling": 100,
  "PhaseEncodingDirection": "j-",
  "PhaseEncodingSteps": 79,
  "PhaseResolution": 1,
  "PixelBandwidth": 2315,
  "ProcedureStepDescription": "dbic^QA",
  "ProtocolName": "func-bold_task-rest_acq-p2-s4-3.5mm",
  "PulseSequenceDetails": "%SiemensSeq%\\ep2d_bold",
  "ReceiveCoilActiveElements": "HEA;HEP",
  "ReceiveCoilName": "Head_32",
  "ReconMatrixPE": 80,
  "RefLinesPE": 24,
  "RepetitionTime": 2,
  "SAR": 0.0208847,
  "ScanOptions": "FS",
  "ScanningSequence": "EP",
  "SequenceName": "*epfid2d1_80",
  "SequenceVariant": "SK",
  "SeriesDescription": "func-bold_task-rest_acq-p2-s4-3.5mm",
  "SeriesNumber": 7,
  "ShimSetting": [4143, -7693, -7512, 287, -34, -221, -51, 57],
  "SliceThickness": 3.5,
  "SliceTiming": [1.485, 0, 0.99, 0.2475, 1.2375, 0.7425, 1.7325, 0.495, 1.485, 0, 0.99, 0.2475, 1.2375, 0.7425, 1.7325, 0.495, 1.485, 0, 0.99, 0.2475, 1.2375, 0.7425, 1.7325, 0.495, 1.485, 0, 0.99, 0.2475, 1.2375, 0.7425, 1.7325, 0.495],
  "SoftwareVersions": "syngo MR E11",
  "SpacingBetweenSlices": 3.99,
  "StationName": "AWP66112",
  "TaskName": "rest",
  "TotalReadoutTime": 0.0221199,
  "TxRefAmp": 233.604,
  "dcmmeta_affine": [
    [-2.9142568111419678, -0.693199098110199, -0.21684467792510986, 156.61903381347656],
    [-0.7100417613983154, 2.7762176990509033, 1.1809741258621216, -89.78592681884766],
    [0.05429629608988762, -0.9011605978012085, 3.805046558380127, -25.490800857543945],
    [0.0, 0.0, 0.0, 1.0]
],
  "dcmmeta_reorient_transform": [
    [0.0, -1.0, 0.0, 79.0],
    [1.0, 0.0, 0.0, 0.0],
    [0.0, 0.0, 1.0, 0.0],
    [0.0, 0.0, 0.0, 1.0]
],
  "dcmmeta_shape": [80, 80, 32, 200],
  "dcmmeta_slice_dim": 2,
  "dcmmeta_version": 0.6,
  "global": {
    "const": {
      "AccessionNumber": "qa",
      "AcquisitionMatrix": [80, 0, 0, 80],
      "AngioFlag": "N",
      "BitsAllocated": 16,
      "BitsStored": 12,
      "BodyPartExamined": "BRAIN",
      "Columns": 480,
      "EchoNumbers": 1,
      "EchoTime": 35.0,
      "EchoTrainLength": 39,
      "FlipAngle": 90.0,
      "HighBit": 11,
      "ImageOrientationPatient": [0.97141892616887, 0.23668059608372, 0.01809876565897, -0.2310663748354, 0.92540589309379, 0.30038685631649],
      "ImagePositionPatient": [-546.06783213069, -826.78716638811, -287.77385833259],
      "ImageType": [
        "ORIGINAL",
        "PRIMARY",
        "M",
        "ND",
        "NORM",
        "MOSAIC"
],
      "ImagedNucleus": "1H",
      "ImagingFrequency": 123.252456,
      "InPlanePhaseEncodingDirection": "COL",
      "MRAcquisitionType": "2D",
      "MagneticFieldStrength": 3.0,
      "Manufacturer": "SIEMENS",
      "ManufacturerModelName": "Prisma",
      "Modality": "MR",
      "NumberOfAverages": 1.0,
      "NumberOfPhaseEncodingSteps": 79,
      "PercentPhaseFieldOfView": 100.0,
      "PercentSampling": 100.0,
      "PerformedProcedureStepStartTime": "090430.660000",
      "PhotometricInterpretation": "MONOCHROME2",
      "PixelBandwidth": 2315.0,
      "PixelRepresentation": 0,
      "PixelSpacing": [3.0, 3.0],
      "ProtocolName": "func-bold_task-rest_acq-p2-s4-3.5mm",
      "RepetitionTime": 2000.0,
      "Rows": 480,
      "SAR": 0.02088468642347,
      "SamplesPerPixel": 1,
      "ScanOptions": "FS",
      "ScanningSequence": "EP",
      "SequenceName": "*epfid2d1_80",
      "SequenceVariant": "SK",
      "SeriesDescription": "func-bold_task-rest_acq-p2-s4-3.5mm",
      "SeriesNumber": 7,
      "SeriesTime": "093557.931000",
      "SliceLocation": -59.396124214062,
      "SliceThickness": 3.5,
      "SmallestImagePixelValue": 0,
      "SoftwareVersions": "syngo MR E11",
      "SpacingBetweenSlices": 3.9900000078209,
      "SpecificCharacterSet": "ISO_IR 100",
      "StudyID": "68",
      "StudyTime": "090430.606000",
      "TransmitCoilName": "Body",
      "VariableFlipAngleFlag": "N",
      "WindowCenter": 924.0,
      "WindowCenterWidthExplanation": "Algo1",
      "dBdt": 0.0},
    "slices": {}
  },
  "time": {
    "samples": {
      "AcquisitionNumber": [1, 2, 3, 4, 5, 6, 7, 8, 9, 10, 11, 12, 13, 14, 15, 16, 17, 18, 19, 20, 21, 22, 23, 24, 25, 26, 27, 28, 29, 30, 31, 32, 33, 34, 35, 36, 37, 38, 39, 40, 41, 42, 43, 44, 45, 46, 47, 48, 49, 50, 51, 52, 53, 54, 55, 56, 57, 58, 59, 60, 61, 62, 63, 64, 65, 66, 67, 68, 69, 70, 71, 72, 73, 74, 75, 76, 77, 78, 79, 80, 81, 82, 83, 84, 85, 86, 87, 88, 89, 90, 91, 92, 93, 94, 95, 96, 97, 98, 99, 100, 101, 102, 103, 104, 105, 106, 107, 108, 109, 110, 111, 112, 113, 114, 115, 116, 117, 118, 119, 120, 121, 122, 123, 124, 125, 126, 127, 128, 129, 130, 131, 132, 133, 134, 135, 136, 137, 138, 139, 140, 141, 142, 143, 144, 145, 146, 147, 148, 149, 150, 151, 152, 153, 154, 155, 156, 157, 158, 159, 160, 161, 162, 163, 164, 165, 166, 167, 168, 169, 170, 171, 172, 173, 174, 175, 176, 177, 178, 179, 180, 181, 182, 183, 184, 185, 186, 187, 188, 189, 190, 191, 192, 193, 194, 195, 196, 197, 198, 199, 200],
      "AcquisitionTime": ["093515.145000", "093517.145000", "093519.145000", "093521.145000", "093523.145000", "093525.145000", "093527.145000", "093529.145000", "093531.145000", "093533.145000", "093535.145000", "093537.145000", "093539.145000", "093541.145000", "093543.145000", "093545.145000", "093547.145000", "093549.145000", "093551.145000", "093553.145000", "093555.145000", "093557.145000", "093559.145000", "093601.145000", "093603.145000", "093605.145000", "093607.145000", "093609.145000", "093611.145000", "093613.145000", "093615.145000", "093617.145000", "093619.145000", "093621.145000", "093623.145000", "093625.145000", "093627.145000", "093629.145000", "093631.145000", "093633.145000", "093635.145000", "093637.145000", "093639.145000", "093641.145000", "093643.145000", "093645.145000", "093647.145000", "093649.145000", "093651.145000", "093653.145000", "093655.145000", "093657.145000", "093659.145000", "093701.145000", "093703.145000", "093705.145000", "093707.145000", "093709.145000", "093711.145000", "093713.145000", "093715.145000", "093717.145000", "093719.145000", "093721.145000", "093723.145000", "093725.145000", "093727.145000", "093729.145000", "093731.145000", "093733.145000", "093735.145000", "093737.145000", "093739.145000", "093741.145000", "093743.145000", "093745.145000", "093747.145000", "093749.145000", "093751.145000", "093753.145000", "093755.145000", "093757.145000", "093759.145000", "093801.145000", "093803.145000", "093805.145000", "093807.145000", "093809.145000", "093811.145000", "093813.145000", "093815.145000", "093817.145000", "093819.145000", "093821.145000", "093823.145000", "093825.145000", "093827.145000", "093829.145000", "093831.145000", "093833.145000", "093835.145000", "093837.145000", "093839.145000", "093841.145000", "093843.145000", "093845.145000", "093847.145000", "093849.145000", "093851.145000", "093853.145000", "093855.145000", "093857.145000", "093859.145000", "093901.145000", "093903.145000", "093905.145000", "093907.145000", "093909.145000", "093911.145000", "093913.145000", "093915.145000", "093917.145000", "093919.145000", "093921.145000", "093923.145000", "093925.145000", "093927.145000", "093929.145000", "093931.145000", "093933.145000", "093935.145000", "093937.145000", "093939.145000", "093941.145000", "093943.145000", "093945.145000", "093947.145000", "093949.145000", "093951.145000", "093953.145000", "093955.145000", "093957.145000", "093959.145000", "094001.145000", "094003.145000", "094005.145000", "094007.145000", "094009.145000", "094011.145000", "094013.145000", "094015.145000", "094017.145000", "094019.145000", "094021.145000", "094023.145000", "094025.145000", "094027.145000", "094029.145000", "094031.145000", "094033.145000", "094035.145000", "094037.145000", "094039.145000", "094041.145000", "094043.145000", "094045.145000", "094047.145000", "094049.145000", "094051.145000", "094053.145000", "094055.145000", "094057.145000", "094059.145000", "094101.145000", "094103.145000", "094105.145000", "094107.145000", "094109.145000", "094111.145000", "094113.145000", "094115.145000", "094117.145000", "094119.145000", "094121.145000", "094123.145000", "094125.145000", "094127.145000", "094129.145000", "094131.145000", "094133.145000", "094135.145000", "094137.145000", "094139.145000", "094141.145000", "094143.145000", "094145.145000", "094147.145000", "094149.145000", "094151.145000", "094153.145000"],
      "ContentTime": ["093557.934000", "093557.938000", "093557.940000", "093557.943000", "093557.945000", "093557.948000", "093557.950000", "093557.953000", "093557.955000", "093557.958000", "093557.960000", "093557.963000", "093557.966000", "093557.968000", "093557.971000", "093557.981000", "093557.985000", "093557.987000", "093557.990000", "093557.992000", "093558.004000", "093637.929000", "093637.932000", "093637.935000", "093637.937000", "093637.940000", "093637.942000", "093637.945000", "093637.948000", "093637.950000", "093637.953000", "093637.955000", "093637.958000", "093637.960000", "093637.963000", "093637.965000", "093637.968000", "093637.970000", "093637.973000", "093637.975000", "093637.978000", "093717.929000", "093717.932000", "093717.935000", "093717.937000", "093717.940000", "093717.942000", "093717.953000", "093717.955000", "093717.958000", "093717.960000", "093717.963000", "093717.966000", "093717.968000", "093717.971000", "093717.973000", "093717.976000", "093717.978000", "093717.981000", "093717.983000", "093717.986000", "093757.929000", "093757.932000", "093757.935000", "093757.937000", "093757.940000", "093757.942000", "093757.945000", "093757.947000", "093757.950000", "093757.953000", "093757.955000", "093757.958000", "093757.960000", "093757.963000", "093757.965000", "093757.968000", "093757.970000", "093757.973000", "093757.975000", "093757.978000", "093837.929000", "093837.932000", "093837.935000", "093837.937000", "093837.940000", "093837.942000", "093837.945000", "093837.947000", "093837.950000", "093837.952000", "093837.955000", "093837.957000", "093837.960000", "093837.962000", "093837.965000", "093837.967000", "093837.970000", "093837.972000", "093837.975000", "093837.978000", "093917.930000", "093917.932000", "093917.935000", "093917.937000", "093917.940000", "093917.943000", "093917.945000", "093917.948000", "093917.950000", "093917.953000", "093917.955000", "093917.958000", "093917.960000", "093917.963000", "093917.965000", "093917.968000", "093917.970000", "093917.973000", "093917.975000", "093917.978000", "093957.928000", "093957.931000", "093957.934000", "093957.936000", "093957.939000", "093957.941000", "093957.944000", "093957.947000", "093957.949000", "093957.952000", "093957.954000", "093957.957000", "093957.959000", "093957.962000", "093957.964000", "093957.967000", "093957.969000", "093957.972000", "093957.974000", "093957.977000", "094037.929000", "094037.932000", "094037.935000", "094037.937000", "094037.940000", "094037.943000", "094037.945000", "094037.948000", "094037.950000", "094037.953000", "094037.955000", "094037.958000", "094037.960000", "094037.963000", "094037.965000", "094037.968000", "094037.970000", "094037.973000", "094037.975000", "094037.978000", "094117.929000", "094117.932000", "094117.935000", "094117.937000", "094117.940000", "094117.943000", "094117.945000", "094117.948000", "094117.950000", "094117.953000", "094117.955000", "094117.958000", "094117.960000", "094117.963000", "094117.966000", "094117.968000", "094117.971000", "094117.973000", "094117.976000", "094117.978000", "094154.614000", "094154.617000", "094154.620000", "094154.622000", "094154.625000", "094154.628000", "094154.630000", "094154.633000", "094154.635000", "094154.638000", "094154.641000", "094154.643000", "094154.649000", "094154.652000", "094154.658000", "094154.664000", "094154.667000", "094154.670000", "094154.673000"],
      "InstanceCreationTime": ["093557.934000", "093557.938000", "093557.940000", "093557.943000", "093557.945000", "093557.948000", "093557.950000", "093557.953000", "093557.955000", "093557.958000", "093557.960000", "093557.963000", "093557.966000", "093557.968000", "093557.971000", "093557.981000", "093557.985000", "093557.987000", "093557.990000", "093557.992000", "093558.004000", "093637.929000", "093637.932000", "093637.935000", "093637.937000", "093637.940000", "093637.942000", "093637.945000", "093637.948000", "093637.950000", "093637.953000", "093637.955000", "093637.958000", "093637.960000", "093637.963000", "093637.965000", "093637.968000", "093637.970000", "093637.973000", "093637.975000", "093637.978000", "093717.929000", "093717.932000", "093717.935000", "093717.937000", "093717.940000", "093717.942000", "093717.953000", "093717.955000", "093717.958000", "093717.960000", "093717.963000", "093717.966000", "093717.968000", "093717.971000", "093717.973000", "093717.976000", "093717.978000", "093717.981000", "093717.983000", "093717.986000", "093757.929000", "093757.932000", "093757.935000", "093757.937000", "093757.940000", "093757.942000", "093757.945000", "093757.947000", "093757.950000", "093757.953000", "093757.955000", "093757.958000", "093757.960000", "093757.963000", "093757.965000", "093757.968000", "093757.970000", "093757.973000", "093757.975000", "093757.978000", "093837.929000", "093837.932000", "093837.935000", "093837.937000", "093837.940000", "093837.942000", "093837.945000", "093837.947000", "093837.950000", "093837.952000", "093837.955000", "093837.957000", "093837.960000", "093837.962000", "093837.965000", "093837.967000", "093837.970000", "093837.972000", "093837.975000", "093837.978000", "093917.930000", "093917.932000", "093917.935000", "093917.937000", "093917.940000", "093917.943000", "093917.945000", "093917.948000", "093917.950000", "093917.953000", "093917.955000", "093917.958000", "093917.960000", "093917.963000", "093917.965000", "093917.968000", "093917.970000", "093917.973000", "093917.975000", "093917.978000", "093957.928000", "093957.931000", "093957.934000", "093957.936000", "093957.939000", "093957.941000", "093957.944000", "093957.947000", "093957.949000", "093957.952000", "093957.954000", "093957.957000", "093957.959000", "093957.962000", "093957.964000", "093957.967000", "093957.969000", "093957.972000", "093957.974000", "093957.977000", "094037.929000", "094037.932000", "094037.935000", "094037.937000", "094037.940000", "094037.943000", "094037.945000", "094037.948000", "094037.950000", "094037.953000", "094037.955000", "094037.958000", "094037.960000", "094037.963000", "094037.965000", "094037.968000", "094037.970000", "094037.973000", "094037.975000", "094037.978000", "094117.929000", "094117.932000", "094117.935000", "094117.937000", "094117.940000", "094117.943000", "094117.945000", "094117.948000", "094117.950000", "094117.953000", "094117.955000", "094117.958000", "094117.960000", "094117.963000", "094117.966000", "094117.968000", "094117.971000", "094117.973000", "094117.976000", "094117.978000", "094154.614000", "094154.617000", "094154.620000", "094154.622000", "094154.625000", "094154.628000", "094154.630000", "094154.633000", "094154.635000", "094154.638000", "094154.641000", "094154.643000", "094154.649000", "094154.652000", "094154.658000", "094154.664000", "094154.667000", "094154.670000", "094154.673000"],
      "InstanceNumber": [1, 2, 3, 4, 5, 6, 7, 8, 9, 10, 11, 12, 13, 14, 15, 16, 17, 18, 19, 20, 21, 22, 23, 24, 25, 26, 27, 28, 29, 30, 31, 32, 33, 34, 35, 36, 37, 38, 39, 40, 41, 42, 43, 44, 45, 46, 47, 48, 49, 50, 51, 52, 53, 54, 55, 56, 57, 58, 59, 60, 61, 62, 63, 64, 65, 66, 67, 68, 69, 70, 71, 72, 73, 74, 75, 76, 77, 78, 79, 80, 81, 82, 83, 84, 85, 86, 87, 88, 89, 90, 91, 92, 93, 94, 95, 96, 97, 98, 99, 100, 101, 102, 103, 104, 105, 106, 107, 108, 109, 110, 111, 112, 113, 114, 115, 116, 117, 118, 119, 120, 121, 122, 123, 124, 125, 126, 127, 128, 129, 130, 131, 132, 133, 134, 135, 136, 137, 138, 139, 140, 141, 142, 143, 144, 145, 146, 147, 148, 149, 150, 151, 152, 153, 154, 155, 156, 157, 158, 159, 160, 161, 162, 163, 164, 165, 166, 167, 168, 169, 170, 171, 172, 173, 174, 175, 176, 177, 178, 179, 180, 181, 182, 183, 184, 185, 186, 187, 188, 189, 190, 191, 192, 193, 194, 195, 196, 197, 198, 199, 200],
      "LargestImagePixelValue": [2240, 2244, 2243, 2245, 2239, 2237, 2247, 2241, 2245, 2233, 2236, 2239, 2241, 2241, 2244, 2238, 2242, 2242, 2246, 2245, 2245, 2241, 2244, 2246, 2246, 2238, 2243, 2243, 2239, 2242, 2249, 2243, 2245, 2238, 2240, 2241, 2241, 2241, 2246, 2242, 2239, 2240, 2244, 2242, 2245, 2246, 2241, 2246, 2246, 2240, 2246, 2245, 2246, 2245, 2244, 2241, 2239, 2240, 2242, 2241, 2243, 2243, 2243, 2244, 2241, 2240, 2239, 2241, 2242, 2246, 2241, 2246, 2240, 2247, 2245, 2243, 2234, 2238, 2241, 2245, 2239, 2242, 2245, 2248, 2248, 2239, 2240, 2237, 2239, 2244, 2241, 2240, 2241, 2243, 2241, 2242, 2245, 2250, 2241, 2246, 2242, 2245, 2247, 2244, 2238, 2236, 2245, 2241, 2246, 2243, 2244, 2246, 2240, 2245, 2245, 2247, 2241, 2248, 2243, 2240, 2244, 2244, 2243, 2247, 2248, 2244, 2235, 2244, 2240, 2241, 2245, 2245, 2246, 2246, 2242, 2245, 2250, 2244, 2244, 2240, 2246, 2249, 2241, 2251, 2244, 2242, 2242, 2233, 2242, 2247, 2245, 2247, 2241, 2238, 2249, 2248, 2248, 2245, 2244, 2243, 2242, 2244, 2240, 2244, 2246, 2241, 2239, 2247, 2242, 2244, 2247, 2242, 2243, 2243, 2236, 2249, 2239, 2238, 2237, 2238, 2245, 2242, 2249, 2243, 2242, 2240, 2242, 2242, 2249, 2240, 2239, 2239, 2242, 2251, 2241, 2243, 2242, 2243, 2245, 2244],
      "WindowWidth": [2104.0, 2104.0, 2104.0, 2104.0, 2104.0, 2104.0, 2104.0, 2104.0, 2104.0, 2105.0, 2105.0, 2104.0, 2105.0, 2104.0, 2104.0, 2104.0, 2105.0, 2105.0, 2104.0, 2105.0, 2105.0, 2105.0, 2104.0, 2105.0, 2105.0, 2104.0, 2105.0, 2105.0, 2105.0, 2105.0, 2104.0, 2105.0, 2105.0, 2105.0, 2105.0, 2104.0, 2105.0, 2104.0, 2105.0, 2105.0, 2105.0, 2104.0, 2105.0, 2105.0, 2105.0, 2105.0, 2104.0, 2104.0, 2105.0, 2104.0, 2105.0, 2105.0, 2104.0, 2104.0, 2105.0, 2105.0, 2104.0, 2105.0, 2104.0, 2105.0, 2105.0, 2104.0, 2105.0, 2105.0, 2105.0, 2105.0, 2105.0, 2105.0, 2105.0, 2105.0, 2105.0, 2105.0, 2105.0, 2105.0, 2105.0, 2105.0, 2105.0, 2105.0, 2104.0, 2105.0, 2105.0, 2105.0, 2104.0, 2105.0, 2104.0, 2105.0, 2104.0, 2105.0, 2105.0, 2105.0, 2105.0, 2105.0, 2105.0, 2105.0, 2104.0, 2104.0, 2105.0, 2105.0, 2105.0, 2105.0, 2105.0, 2105.0, 2105.0, 2105.0, 2105.0, 2105.0, 2105.0, 2105.0, 2104.0, 2105.0, 2105.0, 2105.0, 2105.0, 2105.0, 2105.0, 2105.0, 2104.0, 2105.0, 2105.0, 2105.0, 2105.0, 2105.0, 2105.0, 2105.0, 2105.0, 2105.0, 2105.0, 2105.0, 2104.0, 2104.0, 2105.0, 2105.0, 2105.0, 2105.0, 2104.0, 2105.0, 2105.0, 2105.0, 2105.0, 2104.0, 2105.0, 2105.0, 2105.0, 2105.0, 2105.0, 2104.0, 2105.0, 2105.0, 2105.0, 2105.0, 2105.0, 2105.0, 2105.0, 2105.0, 2105.0, 2104.0, 2105.0, 2105.0, 2105.0, 2105.0, 2104.0, 2105.0, 2104.0, 2105.0, 2105.0, 2105.0, 2105.0, 2104.0, 2104.0, 2105.0, 2104.0, 2105.0, 2104.0, 2105.0, 2105.0, 2104.0, 2105.0, 2105.0, 2104.0, 2105.0, 2105.0, 2104.0, 2104.0, 2104.0, 2105.0, 2104.0, 2104.0, 2104.0, 2104.0, 2104.0, 2104.0, 2104.0, 2104.0, 2104.0, 2105.0, 2104.0, 2104.0, 2104.0, 2104.0, 2104.0]
    },
    "slices": {}
  }
}