{
  "AcquisitionMatrixPE": 80,
  "AcquisitionNumber": 1,
  "AcquisitionTime": "11:51:26.195000",
  "BandwidthPerPixelPhaseEncode": 48.077,
  "BaseResolution": 80,
  "BodyPartExamined": "BRAIN",
  "CoilCombinationMethod": "Sum of Squares",
  "ConsistencyInfo": "N4_VE11C_LATEST_20160120",
  "ConversionSoftware": "dcm2niix",
  "ConversionSoftwareVersion": "v1.0.20220720",
  "DerivedVendorReportedEchoSpacing": 0.000519999,
  "DeviceSerialNumber": "66112",
  "DwellTime": 2.7e-06,
  "EchoTime": 0.035,
  "EchoTrainLength": 39,
  "EffectiveEchoSpacing": 0.00026,
  "FlipAngle": 90,
  "HeudiconvVersion": "0.13.1",
  "ImageOrientationPatientDICOM": [0.986451, 0.163696, 0.0108626, -0.15924, 0.939469, 0.303383],
  "ImageOrientationText": "Tra>Cor(17.5)>Sag(-2.3)",
  "ImageType": [
    "ORIGINAL",
    "PRIMARY",
    "M",
    "ND",
    "NORM",
    "MOSAIC"
],
  "ImagingFrequency": 123.252,
  "InPlanePhaseEncodingDirectionDICOM": "COL",
  "InstitutionAddress": "Maynard 3,Hanover,NH,US,03755",
  "InstitutionName": "Dartmouth College - PBS",
  "InstitutionalDepartmentName": "Department",
  "MRAcquisitionType": "2D",
  "MagneticFieldStrength": 3,
  "Manufacturer": "Siemens",
  "ManufacturersModelName": "Prisma",
  "MatrixCoilMode": "GRAPPA",
  "Modality": "MR",
  "NonlinearGradientCorrection": false,
  "ParallelReductionFactorInPlane": 2,
  "PartialFourier": 1,
  "PatientPosition": "HFS",
  "PercentPhaseFOV": 100,
  "PercentSampling": 100,
  "PhaseEncodingDirection": "j-",
  "PhaseEncodingSteps": 79,
  "PhaseResolution": 1,
  "PixelBandwidth": 2315,
  "ProcedureStepDescription": "dbic^QA",
  "ProtocolName": "func-bold_task-rest_acq-p2",
  "PulseSequenceDetails": "%SiemensSeq%\\ep2d_bold",
  "ReceiveCoilActiveElements": "HEA;HEP",
  "ReceiveCoilName": "Head_32",
  "ReconMatrixPE": 80,
  "RefLinesPE": 24,
  "RepetitionTime": 2,
  "SAR": 0.0555252,
  "ScanOptions": "FS",
  "ScanningSequence": "EP",
  "SequenceName": "*epfid2d1_80",
  "SequenceVariant": "SK",
  "SeriesDescription": "func-bold_task-rest_acq-p2",
  "SeriesNumber": 5,
  "ShimSetting": [4144, -7689, -7524, 259, -50, -238, -71, 56],
  "SliceThickness": 3.5,
  "SliceTiming": [0.99, 0, 1.0575, 0.0675, 1.1225, 0.1325, 1.1875, 0.1975, 1.255, 0.265, 1.32, 0.33, 1.3875, 0.3975, 1.4525, 0.4625, 1.5175, 0.5275, 1.585, 0.595, 1.65, 0.66, 1.715, 0.7275, 1.7825, 0.7925, 1.8475, 0.8575, 1.915, 0.925],
  "SoftwareVersions": "syngo MR E11",
  "SpacingBetweenSlices": 3.99,
  "StationName": "AWP66112",
  "TaskName": "rest",
  "TotalReadoutTime": 0.02054,
  "TxRefAmp": 224.223,
  "dcmmeta_affine": [
    [-2.95935320854187, -0.4777205288410187, -0.15743482112884521, 141.44647216796875],
    [-0.4910874366760254, 2.818406343460083, 1.2009974718093872, -107.25797271728516],
    [0.0325879268348217, -0.9101478457450867, 3.801699638366699, -30.530757904052734],
    [0.0, 0.0, 0.0, 1.0]
],
  "dcmmeta_reorient_transform": [
    [0.0, -1.0, 0.0, 79.0],
    [1.0, 0.0, 0.0, 0.0],
    [0.0, 0.0, 1.0, 0.0],
    [0.0, 0.0, 0.0, 1.0]
],
  "dcmmeta_shape": [80, 80, 30, 200],
  "dcmmeta_slice_dim": 2,
  "dcmmeta_version": 0.6,
  "global": {
    "const": {
      "AccessionNumber": "qa",
      "AcquisitionMatrix": [80, 0, 0, 80],
      "AngioFlag": "N",
      "BitsAllocated": 16,
      "BitsStored": 12,
      "BodyPartExamined": "BRAIN",
      "Columns": 480,
      "EchoNumbers": 1,
      "EchoTime": 35.0,
      "EchoTrainLength": 39,
      "FlipAngle": 90.0,
      "HighBit": 11,
      "ImageOrientationPatient": [0.98645105518527, 0.16369581161421, 0.01086264165958, -0.1592401747177, 0.93946876390518, 0.30338261058003],
      "ImagePositionPatient": [-600.03307567785, -777.29487086932, -290.97958881467],
      "ImageType": [
        "ORIGINAL",
        "PRIMARY",
        "M",
        "ND",
        "NORM",
        "MOSAIC"
],
      "ImagedNucleus": "1H",
      "ImagingFrequency": 123.252467,
      "InPlanePhaseEncodingDirection": "COL",
      "MRAcquisitionType": "2D",
      "MagneticFieldStrength": 3.0,
      "Manufacturer": "SIEMENS",
      "ManufacturerModelName": "Prisma",
      "Modality": "MR",
      "NumberOfAverages": 1.0,
      "NumberOfPhaseEncodingSteps": 79,
      "PercentPhaseFieldOfView": 100.0,
      "PercentSampling": 100.0,
      "PerformedProcedureStepStartTime": "114137.309000",
      "PhotometricInterpretation": "MONOCHROME2",
      "PixelBandwidth": 2315.0,
      "PixelRepresentation": 0,
      "PixelSpacing": [3.0, 3.0],
      "ProtocolName": "func-bold_task-rest_acq-p2",
      "RepetitionTime": 2000.0,
      "Rows": 480,
      "SAR": 0.05552523143969,
      "SamplesPerPixel": 1,
      "ScanOptions": "FS",
      "ScanningSequence": "EP",
      "SequenceName": "*epfid2d1_80",
      "SequenceVariant": "SK",
      "SeriesDescription": "func-bold_task-rest_acq-p2",
      "SeriesNumber": 5,
      "SeriesTime": "115222.733000",
      "SliceLocation": -66.95587003689,
      "SliceThickness": 3.5,
      "SmallestImagePixelValue": 0,
      "SoftwareVersions": "syngo MR E11",
      "SpacingBetweenSlices": 3.9899999983835,
      "SpecificCharacterSet": "ISO_IR 100",
      "StudyID": "82",
      "StudyTime": "114137.188000",
      "TransmitCoilName": "Body",
      "VariableFlipAngleFlag": "N",
      "WindowCenterWidthExplanation": "Algo1",
      "dBdt": 0.0},
    "slices": {}
  },
  "time": {
    "samples": {
      "AcquisitionNumber": [1, 2, 3, 4, 5, 6, 7, 8, 9, 10, 11, 12, 13, 14, 15, 16, 17, 18, 19, 20, 21, 22, 23, 24, 25, 26, 27, 28, 29, 30, 31, 32, 33, 34, 35, 36, 37, 38, 39, 40, 41, 42, 43, 44, 45, 46, 47, 48, 49, 50, 51, 52, 53, 54, 55, 56, 57, 58, 59, 60, 61, 62, 63, 64, 65, 66, 67, 68, 69, 70, 71, 72, 73, 74, 75, 76, 77, 78, 79, 80, 81, 82, 83, 84, 85, 86, 87, 88, 89, 90, 91, 92, 93, 94, 95, 96, 97, 98, 99, 100, 101, 102, 103, 104, 105, 106, 107, 108, 109, 110, 111, 112, 113, 114, 115, 116, 117, 118, 119, 120, 121, 122, 123, 124, 125, 126, 127, 128, 129, 130, 131, 132, 133, 134, 135, 136, 137, 138, 139, 140, 141, 142, 143, 144, 145, 146, 147, 148, 149, 150, 151, 152, 153, 154, 155, 156, 157, 158, 159, 160, 161, 162, 163, 164, 165, 166, 167, 168, 169, 170, 171, 172, 173, 174, 175, 176, 177, 178, 179, 180, 181, 182, 183, 184, 185, 186, 187, 188, 189, 190, 191, 192, 193, 194, 195, 196, 197, 198, 199, 200],
      "AcquisitionTime": ["115126.195000", "115128.195000", "115130.195000", "115132.195000", "115134.195000", "115136.195000", "115138.195000", "115140.195000", "115142.195000", "115144.195000", "115146.195000", "115148.195000", "115150.195000", "115152.195000", "115154.195000", "115156.195000", "115158.195000", "115200.195000", "115202.195000", "115204.195000", "115206.195000", "115208.195000", "115210.195000", "115212.195000", "115214.195000", "115216.195000", "115218.195000", "115220.195000", "115222.195000", "115224.195000", "115226.195000", "115228.195000", "115230.195000", "115232.195000", "115234.195000", "115236.195000", "115238.195000", "115240.195000", "115242.195000", "115244.195000", "115246.195000", "115248.195000", "115250.195000", "115252.195000", "115254.195000", "115256.195000", "115258.195000", "115300.195000", "115302.195000", "115304.195000", "115306.195000", "115308.195000", "115310.195000", "115312.195000", "115314.195000", "115316.195000", "115318.195000", "115320.195000", "115322.195000", "115324.195000", "115326.195000", "115328.195000", "115330.195000", "115332.195000", "115334.195000", "115336.195000", "115338.195000", "115340.195000", "115342.195000", "115344.195000", "115346.195000", "115348.195000", "115350.195000", "115352.195000", "115354.195000", "115356.195000", "115358.195000", "115400.195000", "115402.195000", "115404.195000", "115406.195000", "115408.195000", "115410.195000", "115412.195000", "115414.195000", "115416.195000", "115418.195000", "115420.195000", "115422.195000", "115424.195000", "115426.195000", "115428.195000", "115430.195000", "115432.195000", "115434.195000", "115436.195000", "115438.195000", "115440.195000", "115442.195000", "115444.195000", "115446.195000", "115448.195000", "115450.195000", "115452.195000", "115454.195000", "115456.195000", "115458.195000", "115500.195000", "115502.195000", "115504.195000", "115506.195000", "115508.195000", "115510.195000", "115512.195000", "115514.195000", "115516.195000", "115518.195000", "115520.195000", "115522.195000", "115524.195000", "115526.195000", "115528.195000", "115530.195000", "115532.195000", "115534.195000", "115536.195000", "115538.195000", "115540.195000", "115542.195000", "115544.195000", "115546.195000", "115548.195000", "115550.195000", "115552.195000", "115554.195000", "115556.195000", "115558.195000", "115600.195000", "115602.195000", "115604.195000", "115606.195000", "115608.195000", "115610.195000", "115612.195000", "115614.195000", "115616.195000", "115618.195000", "115620.195000", "115622.195000", "115624.195000", "115626.195000", "115628.195000", "115630.195000", "115632.195000", "115634.195000", "115636.195000", "115638.195000", "115640.195000", "115642.195000", "115644.195000", "115646.195000", "115648.195000", "115650.195000", "115652.195000", "115654.195000", "115656.195000", "115658.195000", "115700.195000", "115702.195000", "115704.195000", "115706.195000", "115708.195000", "115710.195000", "115712.195000", "115714.195000", "115716.195000", "115718.195000", "115720.195000", "115722.195000", "115724.195000", "115726.195000", "115728.195000", "115730.195000", "115732.195000", "115734.195000", "115736.195000", "115738.195000", "115740.195000", "115742.195000", "115744.195000", "115746.195000", "115748.195000", "115750.195000", "115752.195000", "115754.195000", "115756.195000", "115758.195000", "115800.195000", "115802.195000", "115804.195000"],
      "ContentTime": ["115222.737000", "115222.740000", "115222.743000", "115222.745000", "115222.748000", "115222.750000", "115222.753000", "115222.756000", "115222.758000", "115222.761000", "115222.763000", "115222.773000", "115222.776000", "115222.779000", "115222.781000", "115222.784000", "115222.786000", "115222.789000", "115222.791000", "115222.794000", "115222.797000", "115222.799000", "115222.802000", "115222.804000", "115222.807000", "115222.810000", "115222.812000", "115222.815000", "115302.731000", "115302.734000", "115302.737000", "115302.740000", "115302.742000", "115302.745000", "115302.747000", "115302.750000", "115302.753000", "115302.755000", "115302.758000", "115302.760000", "115302.763000", "115302.765000", "115302.768000", "115302.771000", "115302.773000", "115302.776000", "115302.778000", "115302.781000", "115342.730000", "115342.733000", "115342.736000", "115342.738000", "115342.741000", "115342.743000", "115342.746000", "115342.749000", "115342.751000", "115342.754000", "115342.757000", "115342.759000", "115342.762000", "115342.764000", "115342.767000", "115342.769000", "115342.772000", "115342.774000", "115342.777000", "115342.781000", "115422.731000", "115422.734000", "115422.737000", "115422.739000", "115422.742000", "115422.744000", "115422.747000", "115422.750000", "115422.752000", "115422.755000", "115422.758000", "115422.760000", "115422.763000", "115422.765000", "115422.768000", "115422.771000", "115422.773000", "115422.776000", "115422.778000", "115422.781000", "115502.732000", "115502.734000", "115502.737000", "115502.740000", "115502.742000", "115502.745000", "115502.747000", "115502.750000", "115502.752000", "115502.755000", "115502.757000", "115502.760000", "115502.762000", "115502.765000", "115502.768000", "115502.770000", "115502.773000", "115502.775000", "115502.778000", "115502.781000", "115542.731000", "115542.734000", "115542.737000", "115542.740000", "115542.742000", "115542.745000", "115542.747000", "115542.750000", "115542.752000", "115542.755000", "115542.758000", "115542.760000", "115542.763000", "115542.765000", "115542.768000", "115542.770000", "115542.773000", "115542.775000", "115542.778000", "115542.781000", "115622.732000", "115622.734000", "115622.737000", "115622.739000", "115622.742000", "115622.745000", "115622.747000", "115622.750000", "115622.752000", "115622.755000", "115622.758000", "115622.760000", "115622.763000", "115622.765000", "115622.768000", "115622.770000", "115622.773000", "115622.775000", "115622.778000", "115622.780000", "115702.731000", "115702.734000", "115702.737000", "115702.740000", "115702.742000", "115702.745000", "115702.747000", "115702.750000", "115702.752000", "115702.755000", "115702.757000", "115702.760000", "115702.762000", "115702.765000", "115702.768000", "115702.770000", "115702.773000", "115702.775000", "115702.778000", "115702.780000", "115742.731000", "115742.734000", "115742.737000", "115742.739000", "115742.742000", "115742.744000", "115742.747000", "115742.750000", "115742.752000", "115742.755000", "115742.757000", "115742.760000", "115742.762000", "115742.765000", "115742.767000", "115742.770000", "115742.772000", "115742.775000", "115742.777000", "115742.780000", "115805.891000", "115805.894000", "115805.897000", "115805.899000", "115805.902000", "115805.905000", "115805.907000", "115805.910000", "115805.912000", "115805.915000", "115805.918000", "115805.927000"],
      "InstanceCreationTime": ["115222.737000", "115222.740000", "115222.743000", "115222.745000", "115222.748000", "115222.750000", "115222.753000", "115222.756000", "115222.758000", "115222.761000", "115222.763000", "115222.773000", "115222.776000", "115222.779000", "115222.781000", "115222.784000", "115222.786000", "115222.789000", "115222.791000", "115222.794000", "115222.797000", "115222.799000", "115222.802000", "115222.804000", "115222.807000", "115222.810000", "115222.812000", "115222.815000", "115302.731000", "115302.734000", "115302.737000", "115302.740000", "115302.742000", "115302.745000", "115302.747000", "115302.750000", "115302.753000", "115302.755000", "115302.758000", "115302.760000", "115302.763000", "115302.765000", "115302.768000", "115302.771000", "115302.773000", "115302.776000", "115302.778000", "115302.781000", "115342.730000", "115342.733000", "115342.736000", "115342.738000", "115342.741000", "115342.743000", "115342.746000", "115342.749000", "115342.751000", "115342.754000", "115342.757000", "115342.759000", "115342.762000", "115342.764000", "115342.767000", "115342.769000", "115342.772000", "115342.774000", "115342.777000", "115342.781000", "115422.731000", "115422.734000", "115422.737000", "115422.739000", "115422.742000", "115422.744000", "115422.747000", "115422.750000", "115422.752000", "115422.755000", "115422.758000", "115422.760000", "115422.763000", "115422.765000", "115422.768000", "115422.771000", "115422.773000", "115422.776000", "115422.778000", "115422.781000", "115502.732000", "115502.734000", "115502.737000", "115502.740000", "115502.742000", "115502.745000", "115502.747000", "115502.750000", "115502.752000", "115502.755000", "115502.757000", "115502.760000", "115502.762000", "115502.765000", "115502.768000", "115502.770000", "115502.773000", "115502.775000", "115502.778000", "115502.781000", "115542.731000", "115542.734000", "115542.737000", "115542.740000", "115542.742000", "115542.745000", "115542.747000", "115542.750000", "115542.752000", "115542.755000", "115542.758000", "115542.760000", "115542.763000", "115542.765000", "115542.768000", "115542.770000", "115542.773000", "115542.775000", "115542.778000", "115542.781000", "115622.732000", "115622.734000", "115622.737000", "115622.739000", "115622.742000", "115622.745000", "115622.747000", "115622.750000", "115622.752000", "115622.755000", "115622.758000", "115622.760000", "115622.763000", "115622.765000", "115622.768000", "115622.770000", "115622.773000", "115622.775000", "115622.778000", "115622.780000", "115702.731000", "115702.734000", "115702.737000", "115702.740000", "115702.742000", "115702.745000", "115702.747000", "115702.750000", "115702.752000", "115702.755000", "115702.757000", "115702.760000", "115702.762000", "115702.765000", "115702.768000", "115702.770000", "115702.773000", "115702.775000", "115702.778000", "115702.780000", "115742.731000", "115742.734000", "115742.737000", "115742.739000", "115742.742000", "115742.744000", "115742.747000", "115742.750000", "115742.752000", "115742.755000", "115742.757000", "115742.760000", "115742.762000", "115742.765000", "115742.767000", "115742.770000", "115742.772000", "115742.775000", "115742.777000", "115742.780000", "115805.891000", "115805.894000", "115805.897000", "115805.899000", "115805.902000", "115805.905000", "115805.907000", "115805.910000", "115805.912000", "115805.915000", "115805.918000", "115805.927000"],
      "InstanceNumber": [1, 2, 3, 4, 5, 6, 7, 8, 9, 10, 11, 12, 13, 14, 15, 16, 17, 18, 19, 20, 21, 22, 23, 24, 25, 26, 27, 28, 29, 30, 31, 32, 33, 34, 35, 36, 37, 38, 39, 40, 41, 42, 43, 44, 45, 46, 47, 48, 49, 50, 51, 52, 53, 54, 55, 56, 57, 58, 59, 60, 61, 62, 63, 64, 65, 66, 67, 68, 69, 70, 71, 72, 73, 74, 75, 76, 77, 78, 79, 80, 81, 82, 83, 84, 85, 86, 87, 88, 89, 90, 91, 92, 93, 94, 95, 96, 97, 98, 99, 100, 101, 102, 103, 104, 105, 106, 107, 108, 109, 110, 111, 112, 113, 114, 115, 116, 117, 118, 119, 120, 121, 122, 123, 124, 125, 126, 127, 128, 129, 130, 131, 132, 133, 134, 135, 136, 137, 138, 139, 140, 141, 142, 143, 144, 145, 146, 147, 148, 149, 150, 151, 152, 153, 154, 155, 156, 157, 158, 159, 160, 161, 162, 163, 164, 165, 166, 167, 168, 169, 170, 171, 172, 173, 174, 175, 176, 177, 178, 179, 180, 181, 182, 183, 184, 185, 186, 187, 188, 189, 190, 191, 192, 193, 194, 195, 196, 197, 198, 199, 200],
      "LargestImagePixelValue": [2114, 2120, 2112, 2108, 2106, 2110, 2111, 2118, 2122, 2113, 2116, 2116, 2108, 2115, 2121, 2120, 2124, 2118, 2122, 2114, 2107, 2117, 2127, 2113, 2124, 2116, 2113, 2112, 2113, 2115, 2112, 2118, 2112, 2108, 2110, 2111, 2120, 2121, 2119, 2112, 2125, 2123, 2117, 2118, 2111, 2117, 2116, 2120, 2117, 2110, 2108, 2116, 2116, 2118, 2115, 2110, 2110, 2120, 2113, 2112, 2112, 2109, 2106, 2101, 2105, 2114, 2116, 2112, 2108, 2111, 2122, 2110, 2109, 2099, 2104, 2111, 2116, 2116, 2121, 2124, 2118, 2117, 2112, 2115, 2119, 2108, 2105, 2115, 2098, 2091, 2086, 2095, 2104, 2110, 2110, 2102, 2098, 2099, 2101, 2098, 2096, 2094, 2104, 2093, 2095, 2092, 2085, 2086, 2087, 2093, 2094, 2085, 2095, 2081, 2072, 2069, 2072, 2074, 2060, 2064, 2054, 2056, 2050, 2065, 2063, 2077, 2068, 2077, 2072, 2084, 2079, 2078, 2076, 2071, 2091, 2085, 2098, 2082, 2085, 2086, 2095, 2096, 2099, 2092, 2106, 2098, 2101, 2105, 2115, 2101, 2100, 2097, 2094, 2098, 2099, 2101, 2105, 2100, 2096, 2099, 2106, 2095, 2099, 2100, 2103, 2099, 2108, 2111, 2111, 2104, 2104, 2102, 2100, 2108, 2101, 2105, 2104, 2112, 2104, 2106, 2109, 2097, 2101, 2108, 2107, 2100, 2114, 2113, 2117, 2112, 2109, 2111, 2100, 2109, 2110, 2103, 2113, 2108, 2106, 2102],
      "WindowCenter": [986.0, 986.0, 986.0, 986.0, 986.0, 986.0, 986.0, 987.0, 986.0, 986.0, 987.0, 986.0, 986.0, 986.0, 987.0, 986.0, 986.0, 986.0, 986.0, 986.0, 987.0, 987.0, 986.0, 986.0, 986.0, 986.0, 986.0, 986.0, 986.0, 986.0, 986.0, 986.0, 986.0, 987.0, 986.0, 986.0, 986.0, 986.0, 986.0, 986.0, 986.0, 986.0, 986.0, 986.0, 986.0, 986.0, 986.0, 987.0, 986.0, 986.0, 986.0, 986.0, 986.0, 986.0, 987.0, 986.0, 986.0, 986.0, 986.0, 986.0, 986.0, 986.0, 986.0, 986.0, 986.0, 986.0, 986.0, 986.0, 986.0, 987.0, 986.0, 986.0, 986.0, 986.0, 986.0, 986.0, 986.0, 986.0, 986.0, 986.0, 987.0, 986.0, 986.0, 986.0, 987.0, 987.0, 986.0, 986.0, 986.0, 986.0, 987.0, 986.0, 987.0, 986.0, 986.0, 986.0, 986.0, 986.0, 986.0, 986.0, 986.0, 986.0, 986.0, 986.0, 986.0, 986.0, 986.0, 986.0, 986.0, 986.0, 986.0, 986.0, 986.0, 986.0, 986.0, 986.0, 986.0, 986.0, 986.0, 986.0, 986.0, 986.0, 987.0, 986.0, 986.0, 986.0, 987.0, 986.0, 986.0, 986.0, 986.0, 987.0, 986.0, 986.0, 986.0, 987.0, 986.0, 986.0, 986.0, 987.0, 986.0, 986.0, 986.0, 986.0, 986.0, 986.0, 986.0, 986.0, 986.0, 986.0, 986.0, 986.0, 986.0, 986.0, 986.0, 986.0, 986.0, 987.0, 986.0, 987.0, 986.0, 986.0, 986.0, 986.0, 986.0, 986.0, 986.0, 987.0, 986.0, 986.0, 986.0, 986.0, 986.0, 986.0, 986.0, 986.0, 986.0, 986.0, 986.0, 986.0, 986.0, 986.0, 986.0, 986.0, 986.0, 986.0, 986.0, 987.0, 986.0, 986.0, 986.0, 987.0, 987.0, 986.0, 986.0, 986.0, 986.0, 986.0, 986.0, 987.0],
      "WindowWidth": [2164.0, 2163.0, 2163.0, 2163.0, 2163.0, 2163.0, 2163.0, 2163.0, 2163.0, 2163.0, 2163.0, 2163.0, 2163.0, 2163.0, 2163.0, 2163.0, 2163.0, 2163.0, 2163.0, 2163.0, 2163.0, 2163.0, 2163.0, 2163.0, 2163.0, 2163.0, 2163.0, 2163.0, 2163.0, 2163.0, 2163.0, 2163.0, 2163.0, 2163.0, 2163.0, 2163.0, 2163.0, 2163.0, 2163.0, 2163.0, 2163.0, 2163.0, 2163.0, 2163.0, 2163.0, 2163.0, 2163.0, 2164.0, 2163.0, 2163.0, 2163.0, 2163.0, 2163.0, 2163.0, 2164.0, 2163.0, 2163.0, 2162.0, 2162.0, 2163.0, 2163.0, 2163.0, 2163.0, 2163.0, 2163.0, 2163.0, 2163.0, 2163.0, 2163.0, 2164.0, 2163.0, 2163.0, 2163.0, 2163.0, 2163.0, 2163.0, 2163.0, 2163.0, 2163.0, 2163.0, 2164.0, 2163.0, 2163.0, 2163.0, 2164.0, 2163.0, 2163.0, 2163.0, 2163.0, 2163.0, 2164.0, 2163.0, 2164.0, 2163.0, 2163.0, 2163.0, 2163.0, 2163.0, 2163.0, 2163.0, 2163.0, 2163.0, 2163.0, 2163.0, 2163.0, 2163.0, 2162.0, 2163.0, 2162.0, 2163.0, 2163.0, 2163.0, 2163.0, 2163.0, 2163.0, 2162.0, 2163.0, 2163.0, 2163.0, 2162.0, 2163.0, 2163.0, 2163.0, 2163.0, 2162.0, 2162.0, 2163.0, 2162.0, 2162.0, 2163.0, 2163.0, 2164.0, 2163.0, 2163.0, 2163.0, 2163.0, 2163.0, 2162.0, 2163.0, 2163.0, 2163.0, 2162.0, 2163.0, 2163.0, 2163.0, 2162.0, 2162.0, 2163.0, 2163.0, 2163.0, 2162.0, 2163.0, 2163.0, 2163.0, 2162.0, 2162.0, 2163.0, 2163.0, 2163.0, 2164.0, 2163.0, 2163.0, 2163.0, 2162.0, 2163.0, 2163.0, 2163.0, 2164.0, 2163.0, 2162.0, 2163.0, 2163.0, 2163.0, 2163.0, 2162.0, 2162.0, 2163.0, 2163.0, 2163.0, 2163.0, 2163.0, 2163.0, 2163.0, 2163.0, 2163.0, 2163.0, 2163.0, 2164.0, 2163.0, 2163.0, 2163.0, 2164.0, 2164.0, 2163.0, 2163.0, 2163.0, 2163.0, 2163.0, 2163.0, 2164.0]
    },
    "slices": {}
  }
}