{
  "AcquisitionNumber": 1,
  "AcquisitionTime": "11:58:21.117500",
  "BandwidthPerPixelPhaseEncode": 44.643,
  "BodyPartExamined": "BRAIN",
  "ConversionSoftware": "dcm2niix",
  "ConversionSoftwareVersion": "v1.0.20170624 GCC6.3.0",
  "DeviceSerialNumber": "66112",
  "EchoTime": 0.035,
  "EchoTrainLength": 39,
  "EffectiveEchoSpacing": 0.000279999,
  "FlipAngle": 90,
  "ImageType": [
    "ORIGINAL",
    "PRIMARY",
    "M",
    "ND",
    "NORM",
    "MOSAIC"
],
  "InstitutionAddress": "Maynard_3_Hanover_NH_US_03755",
  "InstitutionName": "Dartmouth_College_-_PBS",
  "MagneticFieldStrength": 3,
  "Manufacturer": "Siemens",
  "ManufacturersModelName": "Prisma",
  "PhaseEncodingDirection": "j-",
  "PhaseEncodingLines": 80,
  "ProcedureStepDescription": "dbic_QA",
  "ProtocolName": "func-bold_task-rest_acq-p2-s4-3.5mm",
  "RepetitionTime": 2,
  "ScanningSequence": "EP",
  "SequenceName": "_epfid2d1_80",
  "SequenceVariant": "SK",
  "SeriesDescription": "func-bold_task-rest_acq-p2-s4-3.5mm",
  "SliceTiming": [1.485, 0, 0.99, 0.2475, 1.2375, 0.7425, 1.7325, 0.495, 1.485, 0, 0.99, 0.2475, 1.2375, 0.7425, 1.7325, 0.495, 1.485, 0, 0.99, 0.2475, 1.2375, 0.7425, 1.7325, 0.495, 1.485, 0, 0.99, 0.2475, 1.2375, 0.7425, 1.7325, 0.495],
  "SoftwareVersions": "syngo_MR_E11",
  "TaskName": "rest",
  "TotalReadoutTime": 0.0218399,
  "dcmmeta_affine": [
    [-2.95935320854187, -0.4777205288410187, -0.15743482112884521, 141.60389709472656],
    [-0.4910874366760254, 2.818406343460083, 1.2009974718093872, -108.45896911621094],
    [0.0325879268348217, -0.9101478457450867, 3.80169939994812, -34.332454681396484],
    [0.0, 0.0, 0.0, 1.0]
],
  "dcmmeta_reorient_transform": [
    [0.0, -1.0, 0.0, 79.0],
    [1.0, 0.0, 0.0, 0.0],
    [0.0, 0.0, 1.0, 0.0],
    [0.0, 0.0, 0.0, 1.0]
],
  "dcmmeta_shape": [80, 80, 32, 200],
  "dcmmeta_slice_dim": 2,
  "dcmmeta_version": 0.6,
  "global": {
    "const": {
      "AccessionNumber": "qa",
      "AcquisitionMatrix": [80, 0, 0, 80],
      "AngioFlag": "N",
      "BitsAllocated": 16,
      "BitsStored": 12,
      "BodyPartExamined": "BRAIN",
      "Columns": 480,
      "EchoNumbers": 1,
      "EchoTime": 35.0,
      "EchoTrainLength": 39,
      "FlipAngle": 90.0,
      "HighBit": 11,
      "ImageOrientationPatient": [0.98645105518527, 0.16369581161421, 0.01086264165958, -0.1592401747177, 0.93946876390518, 0.30338261058003],
      "ImagePositionPatient": [-600.19051061819, -776.0938744704, -294.78128559201],
      "ImageType": [
        "ORIGINAL",
        "PRIMARY",
        "M",
        "ND",
        "NORM",
        "MOSAIC"
],
      "ImagedNucleus": "1H",
      "ImagingFrequency": 123.252467,
      "InPlanePhaseEncodingDirection": "COL",
      "MRAcquisitionType": "2D",
      "MagneticFieldStrength": 3.0,
      "Manufacturer": "SIEMENS",
      "ManufacturerModelName": "Prisma",
      "Modality": "MR",
      "NumberOfAverages": 1.0,
      "NumberOfPhaseEncodingSteps": 79,
      "PercentPhaseFieldOfView": 100.0,
      "PercentSampling": 100.0,
      "PerformedProcedureStepStartTime": "114137.309000",
      "PhotometricInterpretation": "MONOCHROME2",
      "PixelBandwidth": 2315.0,
      "PixelRepresentation": 0,
      "PixelSpacing": [3.0, 3.0],
      "PositionReferenceIndicator": "",
      "ProtocolName": "func-bold_task-rest_acq-p2-s4-3.5mm",
      "RepetitionTime": 2000.0,
      "Rows": 480,
      "SAR": 0.02087910479417,
      "SamplesPerPixel": 1,
      "ScanOptions": "FS",
      "ScanningSequence": "EP",
      "SequenceName": "*epfid2d1_80",
      "SequenceVariant": "SK",
      "SeriesDescription": "func-bold_task-rest_acq-p2-s4-3.5mm",
      "SeriesNumber": 7,
      "SeriesTime": "115902.803000",
      "SliceLocation": -70.945867091718,
      "SliceThickness": 3.5,
      "SmallestImagePixelValue": 0,
      "SoftwareVersions": "syngo MR E11",
      "SpacingBetweenSlices": 3.9899999440638,
      "SpecificCharacterSet": "ISO_IR 100",
      "StudyID": "82",
      "StudyTime": "114137.188000",
      "TransmitCoilName": "Body",
      "VariableFlipAngleFlag": "N",
      "WindowCenterWidthExplanation": "Algo1",
      "dBdt": 0.0},
    "slices": {}
  },
  "time": {
    "samples": {
      "AcquisitionNumber": [1, 2, 3, 4, 5, 6, 7, 8, 9, 10, 11, 12, 13, 14, 15, 16, 17, 18, 19, 20, 21, 22, 23, 24, 25, 26, 27, 28, 29, 30, 31, 32, 33, 34, 35, 36, 37, 38, 39, 40, 41, 42, 43, 44, 45, 46, 47, 48, 49, 50, 51, 52, 53, 54, 55, 56, 57, 58, 59, 60, 61, 62, 63, 64, 65, 66, 67, 68, 69, 70, 71, 72, 73, 74, 75, 76, 77, 78, 79, 80, 81, 82, 83, 84, 85, 86, 87, 88, 89, 90, 91, 92, 93, 94, 95, 96, 97, 98, 99, 100, 101, 102, 103, 104, 105, 106, 107, 108, 109, 110, 111, 112, 113, 114, 115, 116, 117, 118, 119, 120, 121, 122, 123, 124, 125, 126, 127, 128, 129, 130, 131, 132, 133, 134, 135, 136, 137, 138, 139, 140, 141, 142, 143, 144, 145, 146, 147, 148, 149, 150, 151, 152, 153, 154, 155, 156, 157, 158, 159, 160, 161, 162, 163, 164, 165, 166, 167, 168, 169, 170, 171, 172, 173, 174, 175, 176, 177, 178, 179, 180, 181, 182, 183, 184, 185, 186, 187, 188, 189, 190, 191, 192, 193, 194, 195, 196, 197, 198, 199, 200],
      "AcquisitionTime": ["115821.117500", "115823.117500", "115825.117500", "115827.117500", "115829.117500", "115831.117500", "115833.117500", "115835.117500", "115837.117500", "115839.117500", "115841.117500", "115843.117500", "115845.117500", "115847.117500", "115849.117500", "115851.117500", "115853.117500", "115855.117500", "115857.117500", "115859.117500", "115901.117500", "115903.117500", "115905.117500", "115907.117500", "115909.117500", "115911.117500", "115913.117500", "115915.117500", "115917.117500", "115919.117500", "115921.117500", "115923.117500", "115925.117500", "115927.117500", "115929.117500", "115931.117500", "115933.117500", "115935.117500", "115937.117500", "115939.117500", "115941.117500", "115943.117500", "115945.117500", "115947.117500", "115949.117500", "115951.117500", "115953.117500", "115955.117500", "115957.117500", "115959.117500", "120001.117500", "120003.117500", "120005.117500", "120007.117500", "120009.117500", "120011.117500", "120013.117500", "120015.117500", "120017.117500", "120019.117500", "120021.117500", "120023.117500", "120025.117500", "120027.117500", "120029.117500", "120031.117500", "120033.117500", "120035.117500", "120037.117500", "120039.117500", "120041.117500", "120043.117500", "120045.117500", "120047.117500", "120049.117500", "120051.117500", "120053.117500", "120055.117500", "120057.117500", "120059.117500", "120101.117500", "120103.117500", "120105.117500", "120107.117500", "120109.117500", "120111.117500", "120113.117500", "120115.117500", "120117.117500", "120119.117500", "120121.117500", "120123.117500", "120125.117500", "120127.117500", "120129.117500", "120131.117500", "120133.117500", "120135.117500", "120137.117500", "120139.117500", "120141.117500", "120143.117500", "120145.117500", "120147.117500", "120149.117500", "120151.117500", "120153.117500", "120155.117500", "120157.117500", "120159.117500", "120201.117500", "120203.117500", "120205.117500", "120207.117500", "120209.117500", "120211.117500", "120213.117500", "120215.117500", "120217.117500", "120219.117500", "120221.117500", "120223.117500", "120225.117500", "120227.117500", "120229.117500", "120231.117500", "120233.117500", "120235.117500", "120237.117500", "120239.117500", "120241.117500", "120243.117500", "120245.117500", "120247.117500", "120249.117500", "120251.117500", "120253.117500", "120255.117500", "120257.117500", "120259.117500", "120301.117500", "120303.117500", "120305.117500", "120307.117500", "120309.117500", "120311.117500", "120313.117500", "120315.117500", "120317.117500", "120319.117500", "120321.117500", "120323.117500", "120325.117500", "120327.117500", "120329.117500", "120331.117500", "120333.117500", "120335.117500", "120337.117500", "120339.117500", "120341.117500", "120343.117500", "120345.117500", "120347.117500", "120349.117500", "120351.117500", "120353.117500", "120355.117500", "120357.117500", "120359.117500", "120401.117500", "120403.117500", "120405.117500", "120407.117500", "120409.117500", "120411.117500", "120413.117500", "120415.117500", "120417.117500", "120419.117500", "120421.117500", "120423.117500", "120425.117500", "120427.117500", "120429.117500", "120431.117500", "120433.117500", "120435.117500", "120437.117500", "120439.117500", "120441.117500", "120443.117500", "120445.117500", "120447.117500", "120449.117500", "120451.117500", "120453.117500", "120455.117500", "120457.117500", "120459.117500"],
      "ContentTime": ["115902.806000", "115902.810000", "115902.812000", "115902.815000", "115902.817000", "115902.820000", "115902.822000", "115902.825000", "115902.828000", "115902.830000", "115902.833000", "115902.835000", "115902.838000", "115902.840000", "115902.843000", "115902.845000", "115902.848000", "115902.851000", "115902.853000", "115902.856000", "115902.859000", "115942.801000", "115942.810000", "115942.813000", "115942.815000", "115942.818000", "115942.821000", "115942.823000", "115942.826000", "115942.828000", "115942.831000", "115942.833000", "115942.836000", "115942.838000", "115942.841000", "115942.844000", "115942.846000", "115942.849000", "115942.851000", "115942.854000", "115942.856000", "120022.800000", "120022.803000", "120022.806000", "120022.809000", "120022.811000", "120022.814000", "120022.816000", "120022.819000", "120022.821000", "120022.824000", "120022.826000", "120022.829000", "120022.832000", "120022.834000", "120022.837000", "120022.839000", "120022.842000", "120022.844000", "120022.847000", "120022.849000", "120102.801000", "120102.804000", "120102.807000", "120102.810000", "120102.812000", "120102.815000", "120102.817000", "120102.820000", "120102.822000", "120102.825000", "120102.828000", "120102.830000", "120102.833000", "120102.835000", "120102.838000", "120102.840000", "120102.843000", "120102.845000", "120102.848000", "120102.851000", "120142.802000", "120142.813000", "120142.830000", "120142.833000", "120142.862000", "120142.864000", "120142.867000", "120142.878000", "120142.881000", "120142.883000", "120142.889000", "120142.892000", "120142.894000", "120142.897000", "120142.900000", "120142.902000", "120142.905000", "120142.907000", "120142.910000", "120142.912000", "120222.801000", "120222.804000", "120222.807000", "120222.810000", "120222.812000", "120222.815000", "120222.817000", "120222.820000", "120222.822000", "120222.825000", "120222.827000", "120222.830000", "120222.832000", "120222.835000", "120222.838000", "120222.840000", "120222.843000", "120222.845000", "120222.848000", "120222.850000", "120302.801000", "120302.804000", "120302.807000", "120302.809000", "120302.812000", "120302.815000", "120302.817000", "120302.820000", "120302.822000", "120302.825000", "120302.827000", "120302.830000", "120302.833000", "120302.835000", "120302.838000", "120302.840000", "120302.843000", "120302.845000", "120302.848000", "120302.850000", "120342.801000", "120342.804000", "120342.807000", "120342.810000", "120342.812000", "120342.815000", "120342.817000", "120342.820000", "120342.822000", "120342.825000", "120342.827000", "120342.830000", "120342.832000", "120342.835000", "120342.838000", "120342.840000", "120342.843000", "120342.845000", "120342.848000", "120342.850000", "120422.801000", "120422.804000", "120422.807000", "120422.809000", "120422.812000", "120422.814000", "120422.817000", "120422.820000", "120422.822000", "120422.825000", "120422.827000", "120422.830000", "120422.832000", "120422.835000", "120422.838000", "120422.840000", "120422.843000", "120422.845000", "120422.848000", "120422.850000", "120459.972000", "120459.975000", "120459.977000", "120459.980000", "120459.983000", "120459.985000", "120459.988000", "120459.990000", "120459.993000", "120459.996000", "120459.998000", "120500.002000", "120500.008000", "120500.012000", "120500.016000", "120500.018000", "120500.021000", "120500.024000", "120500.034000"],
      "InstanceCreationTime": ["115902.806000", "115902.810000", "115902.812000", "115902.815000", "115902.817000", "115902.820000", "115902.822000", "115902.825000", "115902.828000", "115902.830000", "115902.833000", "115902.835000", "115902.838000", "115902.840000", "115902.843000", "115902.845000", "115902.848000", "115902.851000", "115902.853000", "115902.856000", "115902.859000", "115942.801000", "115942.810000", "115942.813000", "115942.815000", "115942.818000", "115942.821000", "115942.823000", "115942.826000", "115942.828000", "115942.831000", "115942.833000", "115942.836000", "115942.838000", "115942.841000", "115942.844000", "115942.846000", "115942.849000", "115942.851000", "115942.854000", "115942.856000", "120022.800000", "120022.803000", "120022.806000", "120022.809000", "120022.811000", "120022.814000", "120022.816000", "120022.819000", "120022.821000", "120022.824000", "120022.826000", "120022.829000", "120022.832000", "120022.834000", "120022.837000", "120022.839000", "120022.842000", "120022.844000", "120022.847000", "120022.849000", "120102.801000", "120102.804000", "120102.807000", "120102.810000", "120102.812000", "120102.815000", "120102.817000", "120102.820000", "120102.822000", "120102.825000", "120102.828000", "120102.830000", "120102.833000", "120102.835000", "120102.838000", "120102.840000", "120102.843000", "120102.845000", "120102.848000", "120102.851000", "120142.802000", "120142.813000", "120142.830000", "120142.833000", "120142.862000", "120142.864000", "120142.867000", "120142.878000", "120142.881000", "120142.883000", "120142.889000", "120142.892000", "120142.894000", "120142.897000", "120142.900000", "120142.902000", "120142.905000", "120142.907000", "120142.910000", "120142.912000", "120222.801000", "120222.804000", "120222.807000", "120222.810000", "120222.812000", "120222.815000", "120222.817000", "120222.820000", "120222.822000", "120222.825000", "120222.827000", "120222.830000", "120222.832000", "120222.835000", "120222.838000", "120222.840000", "120222.843000", "120222.845000", "120222.848000", "120222.850000", "120302.801000", "120302.804000", "120302.807000", "120302.809000", "120302.812000", "120302.815000", "120302.817000", "120302.820000", "120302.822000", "120302.825000", "120302.827000", "120302.830000", "120302.833000", "120302.835000", "120302.838000", "120302.840000", "120302.843000", "120302.845000", "120302.848000", "120302.850000", "120342.801000", "120342.804000", "120342.807000", "120342.810000", "120342.812000", "120342.815000", "120342.817000", "120342.820000", "120342.822000", "120342.825000", "120342.827000", "120342.830000", "120342.832000", "120342.835000", "120342.838000", "120342.840000", "120342.843000", "120342.845000", "120342.848000", "120342.850000", "120422.801000", "120422.804000", "120422.807000", "120422.809000", "120422.812000", "120422.814000", "120422.817000", "120422.820000", "120422.822000", "120422.825000", "120422.827000", "120422.830000", "120422.832000", "120422.835000", "120422.838000", "120422.840000", "120422.843000", "120422.845000", "120422.848000", "120422.850000", "120459.972000", "120459.975000", "120459.977000", "120459.980000", "120459.983000", "120459.985000", "120459.988000", "120459.990000", "120459.993000", "120459.996000", "120459.998000", "120500.002000", "120500.008000", "120500.012000", "120500.016000", "120500.018000", "120500.021000", "120500.024000", "120500.034000"],
      "InstanceNumber": [1, 2, 3, 4, 5, 6, 7, 8, 9, 10, 11, 12, 13, 14, 15, 16, 17, 18, 19, 20, 21, 22, 23, 24, 25, 26, 27, 28, 29, 30, 31, 32, 33, 34, 35, 36, 37, 38, 39, 40, 41, 42, 43, 44, 45, 46, 47, 48, 49, 50, 51, 52, 53, 54, 55, 56, 57, 58, 59, 60, 61, 62, 63, 64, 65, 66, 67, 68, 69, 70, 71, 72, 73, 74, 75, 76, 77, 78, 79, 80, 81, 82, 83, 84, 85, 86, 87, 88, 89, 90, 91, 92, 93, 94, 95, 96, 97, 98, 99, 100, 101, 102, 103, 104, 105, 106, 107, 108, 109, 110, 111, 112, 113, 114, 115, 116, 117, 118, 119, 120, 121, 122, 123, 124, 125, 126, 127, 128, 129, 130, 131, 132, 133, 134, 135, 136, 137, 138, 139, 140, 141, 142, 143, 144, 145, 146, 147, 148, 149, 150, 151, 152, 153, 154, 155, 156, 157, 158, 159, 160, 161, 162, 163, 164, 165, 166, 167, 168, 169, 170, 171, 172, 173, 174, 175, 176, 177, 178, 179, 180, 181, 182, 183, 184, 185, 186, 187, 188, 189, 190, 191, 192, 193, 194, 195, 196, 197, 198, 199, 200],
      "LargestImagePixelValue": [2113, 2121, 2120, 2118, 2119, 2117, 2116, 2117, 2119, 2109, 2113, 2109, 2108, 2109, 2113, 2114, 2115, 2113, 2111, 2114, 2122, 2118, 2118, 2118, 2118, 2120, 2115, 2118, 2121, 2122, 2126, 2127, 2136, 2127, 2123, 2118, 2118, 2118, 2126, 2121, 2122, 2127, 2126, 2128, 2127, 2128, 2128, 2120, 2121, 2130, 2123, 2118, 2116, 2117, 2115, 2120, 2124, 2125, 2126, 2122, 2125, 2118, 2120, 2122, 2122, 2119, 2119, 2123, 2128, 2128, 2126, 2120, 2121, 2119, 2115, 2114, 2120, 2121, 2122, 2126, 2120, 2126, 2124, 2122, 2116, 2122, 2125, 2133, 2121, 2124, 2129, 2131, 2126, 2129, 2128, 2125, 2121, 2126, 2121, 2122, 2129, 2129, 2126, 2127, 2124, 2130, 2123, 2123, 2127, 2126, 2129, 2127, 2124, 2129, 2125, 2124, 2122, 2124, 2120, 2133, 2127, 2125, 2124, 2126, 2123, 2131, 2127, 2129, 2125, 2131, 2128, 2128, 2131, 2132, 2133, 2131, 2129, 2135, 2129, 2131, 2126, 2131, 2128, 2129, 2123, 2121, 2119, 2126, 2129, 2126, 2124, 2129, 2130, 2122, 2123, 2125, 2125, 2130, 2132, 2125, 2127, 2132, 2131, 2127, 2128, 2121, 2123, 2117, 2134, 2128, 2129, 2130, 2126, 2130, 2132, 2126, 2123, 2128, 2131, 2124, 2129, 2133, 2120, 2125, 2129, 2127, 2124, 2123, 2121, 2122, 2126, 2128, 2125, 2126, 2125, 2124, 2124, 2125, 2126, 2124],
      "WindowCenter": [919.0, 919.0, 919.0, 919.0, 919.0, 919.0, 919.0, 919.0, 919.0, 919.0, 919.0, 919.0, 920.0, 919.0, 919.0, 919.0, 919.0, 919.0, 919.0, 919.0, 919.0, 919.0, 919.0, 919.0, 919.0, 919.0, 919.0, 919.0, 919.0, 919.0, 919.0, 919.0, 919.0, 919.0, 919.0, 919.0, 919.0, 919.0, 919.0, 919.0, 919.0, 919.0, 919.0, 919.0, 919.0, 919.0, 919.0, 919.0, 919.0, 919.0, 919.0, 919.0, 919.0, 919.0, 919.0, 919.0, 919.0, 919.0, 919.0, 919.0, 919.0, 919.0, 919.0, 919.0, 919.0, 919.0, 919.0, 919.0, 919.0, 919.0, 919.0, 919.0, 919.0, 919.0, 919.0, 919.0, 919.0, 919.0, 919.0, 919.0, 919.0, 919.0, 919.0, 919.0, 919.0, 919.0, 919.0, 919.0, 919.0, 919.0, 919.0, 919.0, 919.0, 919.0, 919.0, 919.0, 919.0, 919.0, 919.0, 919.0, 919.0, 919.0, 919.0, 919.0, 919.0, 919.0, 919.0, 919.0, 919.0, 919.0, 919.0, 919.0, 919.0, 919.0, 919.0, 919.0, 919.0, 919.0, 919.0, 919.0, 919.0, 919.0, 920.0, 919.0, 920.0, 919.0, 920.0, 920.0, 919.0, 920.0, 919.0, 920.0, 919.0, 919.0, 919.0, 919.0, 920.0, 919.0, 920.0, 920.0, 919.0, 920.0, 920.0, 920.0, 919.0, 919.0, 919.0, 920.0, 920.0, 919.0, 919.0, 919.0, 920.0, 919.0, 919.0, 920.0, 920.0, 920.0, 919.0, 919.0, 919.0, 920.0, 919.0, 919.0, 920.0, 919.0, 919.0, 920.0, 919.0, 919.0, 919.0, 919.0, 920.0, 919.0, 919.0, 919.0, 920.0, 920.0, 920.0, 920.0, 919.0, 919.0, 920.0, 919.0, 920.0, 919.0, 920.0, 920.0, 919.0, 920.0, 919.0, 919.0, 920.0, 920.0, 920.0, 919.0, 919.0, 920.0, 920.0, 919.0],
      "WindowWidth": [2094.0, 2095.0, 2094.0, 2095.0, 2095.0, 2095.0, 2095.0, 2095.0, 2095.0, 2095.0, 2095.0, 2095.0, 2096.0, 2095.0, 2095.0, 2095.0, 2095.0, 2095.0, 2095.0, 2094.0, 2095.0, 2095.0, 2095.0, 2095.0, 2095.0, 2095.0, 2095.0, 2095.0, 2095.0, 2095.0, 2095.0, 2095.0, 2095.0, 2095.0, 2095.0, 2095.0, 2095.0, 2095.0, 2095.0, 2095.0, 2095.0, 2095.0, 2095.0, 2095.0, 2095.0, 2095.0, 2095.0, 2095.0, 2095.0, 2095.0, 2095.0, 2095.0, 2095.0, 2095.0, 2095.0, 2095.0, 2096.0, 2095.0, 2095.0, 2095.0, 2095.0, 2095.0, 2095.0, 2096.0, 2095.0, 2096.0, 2096.0, 2095.0, 2095.0, 2095.0, 2095.0, 2096.0, 2095.0, 2096.0, 2096.0, 2096.0, 2096.0, 2095.0, 2096.0, 2096.0, 2096.0, 2096.0, 2096.0, 2095.0, 2095.0, 2096.0, 2096.0, 2096.0, 2096.0, 2096.0, 2095.0, 2096.0, 2096.0, 2096.0, 2096.0, 2096.0, 2096.0, 2096.0, 2096.0, 2096.0, 2096.0, 2096.0, 2096.0, 2096.0, 2095.0, 2096.0, 2096.0, 2096.0, 2096.0, 2096.0, 2096.0, 2095.0, 2096.0, 2096.0, 2096.0, 2095.0, 2096.0, 2096.0, 2096.0, 2096.0, 2096.0, 2096.0, 2095.0, 2096.0, 2096.0, 2096.0, 2095.0, 2096.0, 2096.0, 2095.0, 2096.0, 2095.0, 2096.0, 2096.0, 2096.0, 2096.0, 2096.0, 2096.0, 2096.0, 2096.0, 2096.0, 2096.0, 2096.0, 2096.0, 2096.0, 2096.0, 2096.0, 2096.0, 2095.0, 2096.0, 2096.0, 2096.0, 2096.0, 2096.0, 2096.0, 2096.0, 2096.0, 2096.0, 2096.0, 2096.0, 2096.0, 2096.0, 2096.0, 2096.0, 2096.0, 2096.0, 2096.0, 2096.0, 2095.0, 2096.0, 2096.0, 2096.0, 2096.0, 2096.0, 2096.0, 2096.0, 2095.0, 2096.0, 2096.0, 2096.0, 2096.0, 2096.0, 2095.0, 2096.0, 2095.0, 2096.0, 2096.0, 2095.0, 2096.0, 2095.0, 2096.0, 2096.0, 2095.0, 2095.0, 2095.0, 2096.0, 2096.0, 2095.0, 2095.0, 2095.0]
    },
    "slices": {}
  }
}