{
  "AcquisitionMatrixPE": 80,
  "AcquisitionNumber": 1,
  "AcquisitionTime": "09:28:50.805000",
  "BandwidthPerPixelPhaseEncode": 48.077,
  "BaseResolution": 80,
  "BodyPartExamined": "BRAIN",
  "CoilCombinationMethod": "Sum of Squares",
  "ConsistencyInfo": "N4_VE11C_LATEST_20160120",
  "ConversionSoftware": "dcm2niix",
  "ConversionSoftwareVersion": "v1.0.20220720",
  "DerivedVendorReportedEchoSpacing": 0.000519999,
  "DeviceSerialNumber": "66112",
  "DwellTime": 2.7e-06,
  "EchoTime": 0.035,
  "EchoTrainLength": 39,
  "EffectiveEchoSpacing": 0.00026,
  "FlipAngle": 90,
  "HeudiconvVersion": "0.13.1",
  "ImageOrientationPatientDICOM": [0.999932, 0.0112585, 0.00319792, -0.0116934, 0.949514, 0.313508],
  "ImageOrientationText": "Tra>Cor(18.3)>Sag(-0.0)",
  "ImageType": [
    "ORIGINAL",
    "PRIMARY",
    "M",
    "ND",
    "NORM",
    "MOSAIC"
],
  "ImagingFrequency": 123.252,
  "InPlanePhaseEncodingDirectionDICOM": "COL",
  "InstitutionAddress": "Maynard 3,Hanover,NH,US,03755",
  "InstitutionName": "Dartmouth College - PBS",
  "InstitutionalDepartmentName": "Department",
  "MRAcquisitionType": "2D",
  "MagneticFieldStrength": 3,
  "Manufacturer": "Siemens",
  "ManufacturersModelName": "Prisma",
  "MatrixCoilMode": "GRAPPA",
  "Modality": "MR",
  "NonlinearGradientCorrection": false,
  "ParallelReductionFactorInPlane": 2,
  "PartialFourier": 1,
  "PatientPosition": "HFS",
  "PercentPhaseFOV": 100,
  "PercentSampling": 100,
  "PhaseEncodingDirection": "j-",
  "PhaseEncodingSteps": 79,
  "PhaseResolution": 1,
  "PixelBandwidth": 2315,
  "ProcedureStepDescription": "dbic^QA",
  "ProtocolName": "func-bold_task-rest_acq-p2",
  "PulseSequenceDetails": "%SiemensSeq%\\ep2d_bold",
  "ReceiveCoilActiveElements": "HC1-7;NC1,2",
  "ReceiveCoilName": "HeadNeck_64",
  "ReconMatrixPE": 80,
  "RefLinesPE": 24,
  "RepetitionTime": 2,
  "SAR": 0.0360024,
  "ScanOptions": "FS",
  "ScanningSequence": "EP",
  "SequenceName": "*epfid2d1_80",
  "SequenceVariant": "SK",
  "SeriesDescription": "func-bold_task-rest_acq-p2",
  "SeriesNumber": 5,
  "ShimSetting": [4138, -7686, -7516, 171, -46, -373, -129, 81],
  "SliceThickness": 3.5,
  "SliceTiming": [0.99, 0, 1.0575, 0.0675, 1.1225, 0.1325, 1.1875, 0.1975, 1.255, 0.265, 1.32, 0.33, 1.3875, 0.3975, 1.4525, 0.4625, 1.5175, 0.5275, 1.585, 0.595, 1.65, 0.66, 1.715, 0.7275, 1.7825, 0.7925, 1.8475, 0.8575, 1.915, 0.925],
  "SoftwareVersions": "syngo MR E11",
  "SpacingBetweenSlices": 3.99,
  "StationName": "AWP66112",
  "TaskName": "rest",
  "TotalReadoutTime": 0.02054,
  "TxRefAmp": 209.927,
  "dcmmeta_affine": [
    [-2.9997944831848145, -0.03508029878139496, -0.001967664808034897, 123.65424346923828],
    [-0.03377537801861763, 2.848541021347046, 1.2509592771530151, -128.7177734375],
    [0.009593747556209564, -0.9405231475830078, 3.788825273513794, -30.245262145996094],
    [0.0, 0.0, 0.0, 1.0]
],
  "dcmmeta_reorient_transform": [
    [0.0, -1.0, 0.0, 79.0],
    [1.0, 0.0, 0.0, 0.0],
    [0.0, 0.0, 1.0, 0.0],
    [0.0, 0.0, 0.0, 1.0]
],
  "dcmmeta_shape": [80, 80, 30, 200],
  "dcmmeta_slice_dim": 2,
  "dcmmeta_version": 0.6,
  "global": {
    "const": {
      "AccessionNumber": "qa64",
      "AcquisitionMatrix": [80, 0, 0, 80],
      "AngioFlag": "N",
      "BitsAllocated": 16,
      "BitsStored": 12,
      "BodyPartExamined": "BRAIN",
      "Columns": 480,
      "EchoNumbers": 1,
      "EchoTime": 35.0,
      "EchoTrainLength": 39,
      "FlipAngle": 90.0,
      "HighBit": 11,
      "ImageOrientationPatient": [0.99993150786762, 0.01125845936929, 0.0031979159194, -0.0116934330974, 0.94951365216985, 0.31350771595843],
      "ImagePositionPatient": [-713.82574204728, -672.78023137385, -294.56997084559],
      "ImageType": [
        "ORIGINAL",
        "PRIMARY",
        "M",
        "ND",
        "NORM",
        "MOSAIC"
],
      "ImagedNucleus": "1H",
      "ImagingFrequency": 123.252379,
      "InPlanePhaseEncodingDirection": "COL",
      "LargestImagePixelValue": 4095,
      "MRAcquisitionType": "2D",
      "MagneticFieldStrength": 3.0,
      "Manufacturer": "SIEMENS",
      "ManufacturerModelName": "Prisma",
      "Modality": "MR",
      "NumberOfAverages": 1.0,
      "NumberOfPhaseEncodingSteps": 79,
      "PercentPhaseFieldOfView": 100.0,
      "PercentSampling": 100.0,
      "PerformedProcedureStepStartTime": "092705.824000",
      "PhotometricInterpretation": "MONOCHROME2",
      "PixelBandwidth": 2315.0,
      "PixelRepresentation": 0,
      "PixelSpacing": [3.0, 3.0],
      "ProtocolName": "func-bold_task-rest_acq-p2",
      "RepetitionTime": 2000.0,
      "Rows": 480,
      "SAR": 0.03600238370961,
      "SamplesPerPixel": 1,
      "ScanOptions": "FS",
      "ScanningSequence": "EP",
      "SequenceName": "*epfid2d1_80",
      "SequenceVariant": "SK",
      "SeriesDescription": "func-bold_task-rest_acq-p2",
      "SeriesNumber": 5,
      "SeriesTime": "092942.810000",
      "SliceLocation": -69.137348796735,
      "SliceThickness": 3.5,
      "SmallestImagePixelValue": 0,
      "SoftwareVersions": "syngo MR E11",
      "SpacingBetweenSlices": 3.9899999181109,
      "SpecificCharacterSet": "ISO_IR 100",
      "StudyID": "22",
      "StudyTime": "092705.750000",
      "TransmitCoilName": "Body",
      "VariableFlipAngleFlag": "N",
      "WindowCenterWidthExplanation": "Algo1",
      "dBdt": 0.0},
    "slices": {}
  },
  "time": {
    "samples": {
      "AcquisitionNumber": [1, 2, 3, 4, 5, 6, 7, 8, 9, 10, 11, 12, 13, 14, 15, 16, 17, 18, 19, 20, 21, 22, 23, 24, 25, 26, 27, 28, 29, 30, 31, 32, 33, 34, 35, 36, 37, 38, 39, 40, 41, 42, 43, 44, 45, 46, 47, 48, 49, 50, 51, 52, 53, 54, 55, 56, 57, 58, 59, 60, 61, 62, 63, 64, 65, 66, 67, 68, 69, 70, 71, 72, 73, 74, 75, 76, 77, 78, 79, 80, 81, 82, 83, 84, 85, 86, 87, 88, 89, 90, 91, 92, 93, 94, 95, 96, 97, 98, 99, 100, 101, 102, 103, 104, 105, 106, 107, 108, 109, 110, 111, 112, 113, 114, 115, 116, 117, 118, 119, 120, 121, 122, 123, 124, 125, 126, 127, 128, 129, 130, 131, 132, 133, 134, 135, 136, 137, 138, 139, 140, 141, 142, 143, 144, 145, 146, 147, 148, 149, 150, 151, 152, 153, 154, 155, 156, 157, 158, 159, 160, 161, 162, 163, 164, 165, 166, 167, 168, 169, 170, 171, 172, 173, 174, 175, 176, 177, 178, 179, 180, 181, 182, 183, 184, 185, 186, 187, 188, 189, 190, 191, 192, 193, 194, 195, 196, 197, 198, 199, 200],
      "AcquisitionTime": ["092850.805000", "092852.805000", "092854.805000", "092856.805000", "092858.805000", "092900.805000", "092902.805000", "092904.805000", "092906.805000", "092908.805000", "092910.805000", "092912.805000", "092914.805000", "092916.805000", "092918.805000", "092920.805000", "092922.805000", "092924.805000", "092926.805000", "092928.805000", "092930.805000", "092932.805000", "092934.805000", "092936.805000", "092938.805000", "092940.805000", "092942.805000", "092944.805000", "092946.805000", "092948.805000", "092950.805000", "092952.805000", "092954.805000", "092956.805000", "092958.805000", "093000.805000", "093002.805000", "093004.805000", "093006.805000", "093008.805000", "093010.805000", "093012.805000", "093014.805000", "093016.805000", "093018.805000", "093020.805000", "093022.805000", "093024.805000", "093026.805000", "093028.805000", "093030.805000", "093032.805000", "093034.805000", "093036.805000", "093038.805000", "093040.805000", "093042.805000", "093044.805000", "093046.805000", "093048.805000", "093050.805000", "093052.805000", "093054.805000", "093056.805000", "093058.805000", "093100.805000", "093102.805000", "093104.805000", "093106.805000", "093108.805000", "093110.805000", "093112.805000", "093114.805000", "093116.805000", "093118.805000", "093120.805000", "093122.805000", "093124.805000", "093126.805000", "093128.805000", "093130.805000", "093132.805000", "093134.805000", "093136.805000", "093138.805000", "093140.805000", "093142.805000", "093144.805000", "093146.805000", "093148.805000", "093150.805000", "093152.805000", "093154.805000", "093156.805000", "093158.805000", "093200.805000", "093202.805000", "093204.805000", "093206.805000", "093208.805000", "093210.805000", "093212.805000", "093214.805000", "093216.805000", "093218.805000", "093220.805000", "093222.805000", "093224.805000", "093226.805000", "093228.805000", "093230.805000", "093232.805000", "093234.805000", "093236.805000", "093238.805000", "093240.805000", "093242.805000", "093244.805000", "093246.805000", "093248.805000", "093250.805000", "093252.805000", "093254.805000", "093256.805000", "093258.805000", "093300.805000", "093302.805000", "093304.805000", "093306.805000", "093308.805000", "093310.805000", "093312.805000", "093314.805000", "093316.805000", "093318.805000", "093320.805000", "093322.805000", "093324.805000", "093326.805000", "093328.805000", "093330.805000", "093332.805000", "093334.805000", "093336.805000", "093338.805000", "093340.805000", "093342.805000", "093344.805000", "093346.805000", "093348.805000", "093350.805000", "093352.805000", "093354.805000", "093356.805000", "093358.805000", "093400.805000", "093402.805000", "093404.805000", "093406.805000", "093408.805000", "093410.805000", "093412.805000", "093414.805000", "093416.805000", "093418.805000", "093420.805000", "093422.805000", "093424.805000", "093426.805000", "093428.805000", "093430.805000", "093432.805000", "093434.805000", "093436.805000", "093438.805000", "093440.805000", "093442.805000", "093444.805000", "093446.805000", "093448.805000", "093450.805000", "093452.805000", "093454.805000", "093456.805000", "093458.805000", "093500.805000", "093502.805000", "093504.805000", "093506.805000", "093508.805000", "093510.805000", "093512.805000", "093514.805000", "093516.805000", "093518.805000", "093520.805000", "093522.805000", "093524.805000", "093526.805000", "093528.805000"],
      "ContentTime": ["092942.813000", "092942.817000", "092942.819000", "092942.822000", "092942.825000", "092942.836000", "092942.839000", "092942.849000", "092942.852000", "092942.855000", "092942.858000", "092942.860000", "092942.863000", "092942.866000", "092942.868000", "092942.871000", "092942.874000", "092942.876000", "092942.879000", "092942.881000", "092942.884000", "092942.887000", "092942.889000", "092942.892000", "092942.894000", "092942.897000", "093022.809000", "093022.817000", "093022.820000", "093022.822000", "093022.825000", "093022.828000", "093022.830000", "093022.833000", "093022.835000", "093022.838000", "093022.840000", "093022.843000", "093022.846000", "093022.848000", "093022.851000", "093022.853000", "093022.856000", "093022.866000", "093022.868000", "093022.871000", "093102.809000", "093102.816000", "093102.819000", "093102.821000", "093102.824000", "093102.827000", "093102.829000", "093102.832000", "093102.835000", "093102.837000", "093102.840000", "093102.842000", "093102.845000", "093102.847000", "093102.850000", "093102.853000", "093102.855000", "093102.858000", "093102.861000", "093102.863000", "093142.808000", "093142.811000", "093142.814000", "093142.816000", "093142.819000", "093142.821000", "093142.824000", "093142.826000", "093142.829000", "093142.832000", "093142.834000", "093142.837000", "093142.839000", "093142.842000", "093142.844000", "093142.847000", "093142.849000", "093142.852000", "093142.855000", "093142.857000", "093222.809000", "093222.811000", "093222.814000", "093222.816000", "093222.819000", "093222.821000", "093222.824000", "093222.826000", "093222.832000", "093222.835000", "093222.837000", "093222.840000", "093222.842000", "093222.845000", "093222.847000", "093222.850000", "093222.852000", "093222.855000", "093222.857000", "093222.860000", "093302.823000", "093302.826000", "093302.829000", "093302.831000", "093302.834000", "093302.837000", "093302.839000", "093302.842000", "093302.844000", "093302.847000", "093302.849000", "093302.852000", "093302.854000", "093302.857000", "093302.859000", "093302.862000", "093302.865000", "093302.867000", "093302.877000", "093302.879000", "093342.809000", "093342.812000", "093342.815000", "093342.817000", "093342.820000", "093342.822000", "093342.825000", "093342.827000", "093342.830000", "093342.832000", "093342.835000", "093342.837000", "093342.840000", "093342.842000", "093342.845000", "093342.847000", "093342.850000", "093342.852000", "093342.855000", "093342.857000", "093422.809000", "093422.811000", "093422.814000", "093422.816000", "093422.819000", "093422.822000", "093422.824000", "093422.827000", "093422.829000", "093422.832000", "093422.834000", "093422.837000", "093422.839000", "093422.842000", "093422.845000", "093422.847000", "093422.850000", "093422.852000", "093422.855000", "093422.857000", "093502.809000", "093502.812000", "093502.815000", "093502.817000", "093502.820000", "093502.822000", "093502.825000", "093502.827000", "093502.830000", "093502.832000", "093502.835000", "093502.837000", "093502.840000", "093502.843000", "093502.845000", "093502.848000", "093502.850000", "093502.853000", "093502.855000", "093502.858000", "093530.486000", "093530.489000", "093530.491000", "093530.494000", "093530.496000", "093530.499000", "093530.502000", "093530.504000", "093530.507000", "093530.509000", "093530.512000", "093530.515000", "093530.520000", "093530.525000"],
      "InstanceCreationTime": ["092942.813000", "092942.817000", "092942.819000", "092942.822000", "092942.825000", "092942.836000", "092942.839000", "092942.849000", "092942.852000", "092942.855000", "092942.858000", "092942.860000", "092942.863000", "092942.866000", "092942.868000", "092942.871000", "092942.874000", "092942.876000", "092942.879000", "092942.881000", "092942.884000", "092942.887000", "092942.889000", "092942.892000", "092942.894000", "092942.897000", "093022.809000", "093022.817000", "093022.820000", "093022.822000", "093022.825000", "093022.828000", "093022.830000", "093022.833000", "093022.835000", "093022.838000", "093022.840000", "093022.843000", "093022.846000", "093022.848000", "093022.851000", "093022.853000", "093022.856000", "093022.866000", "093022.868000", "093022.871000", "093102.809000", "093102.816000", "093102.819000", "093102.821000", "093102.824000", "093102.827000", "093102.829000", "093102.832000", "093102.835000", "093102.837000", "093102.840000", "093102.842000", "093102.845000", "093102.847000", "093102.850000", "093102.853000", "093102.855000", "093102.858000", "093102.861000", "093102.863000", "093142.808000", "093142.811000", "093142.814000", "093142.816000", "093142.819000", "093142.821000", "093142.824000", "093142.826000", "093142.829000", "093142.832000", "093142.834000", "093142.837000", "093142.839000", "093142.842000", "093142.844000", "093142.847000", "093142.849000", "093142.852000", "093142.855000", "093142.857000", "093222.809000", "093222.811000", "093222.814000", "093222.816000", "093222.819000", "093222.821000", "093222.824000", "093222.826000", "093222.832000", "093222.835000", "093222.837000", "093222.840000", "093222.842000", "093222.845000", "093222.847000", "093222.850000", "093222.852000", "093222.855000", "093222.857000", "093222.860000", "093302.823000", "093302.826000", "093302.829000", "093302.831000", "093302.834000", "093302.837000", "093302.839000", "093302.842000", "093302.844000", "093302.847000", "093302.849000", "093302.852000", "093302.854000", "093302.857000", "093302.859000", "093302.862000", "093302.865000", "093302.867000", "093302.877000", "093302.879000", "093342.809000", "093342.812000", "093342.815000", "093342.817000", "093342.820000", "093342.822000", "093342.825000", "093342.827000", "093342.830000", "093342.832000", "093342.835000", "093342.837000", "093342.840000", "093342.842000", "093342.845000", "093342.847000", "093342.850000", "093342.852000", "093342.855000", "093342.857000", "093422.809000", "093422.811000", "093422.814000", "093422.816000", "093422.819000", "093422.822000", "093422.824000", "093422.827000", "093422.829000", "093422.832000", "093422.834000", "093422.837000", "093422.839000", "093422.842000", "093422.845000", "093422.847000", "093422.850000", "093422.852000", "093422.855000", "093422.857000", "093502.809000", "093502.812000", "093502.815000", "093502.817000", "093502.820000", "093502.822000", "093502.825000", "093502.827000", "093502.830000", "093502.832000", "093502.835000", "093502.837000", "093502.840000", "093502.843000", "093502.845000", "093502.848000", "093502.850000", "093502.853000", "093502.855000", "093502.858000", "093530.486000", "093530.489000", "093530.491000", "093530.494000", "093530.496000", "093530.499000", "093530.502000", "093530.504000", "093530.507000", "093530.509000", "093530.512000", "093530.515000", "093530.520000", "093530.525000"],
      "InstanceNumber": [1, 2, 3, 4, 5, 6, 7, 8, 9, 10, 11, 12, 13, 14, 15, 16, 17, 18, 19, 20, 21, 22, 23, 24, 25, 26, 27, 28, 29, 30, 31, 32, 33, 34, 35, 36, 37, 38, 39, 40, 41, 42, 43, 44, 45, 46, 47, 48, 49, 50, 51, 52, 53, 54, 55, 56, 57, 58, 59, 60, 61, 62, 63, 64, 65, 66, 67, 68, 69, 70, 71, 72, 73, 74, 75, 76, 77, 78, 79, 80, 81, 82, 83, 84, 85, 86, 87, 88, 89, 90, 91, 92, 93, 94, 95, 96, 97, 98, 99, 100, 101, 102, 103, 104, 105, 106, 107, 108, 109, 110, 111, 112, 113, 114, 115, 116, 117, 118, 119, 120, 121, 122, 123, 124, 125, 126, 127, 128, 129, 130, 131, 132, 133, 134, 135, 136, 137, 138, 139, 140, 141, 142, 143, 144, 145, 146, 147, 148, 149, 150, 151, 152, 153, 154, 155, 156, 157, 158, 159, 160, 161, 162, 163, 164, 165, 166, 167, 168, 169, 170, 171, 172, 173, 174, 175, 176, 177, 178, 179, 180, 181, 182, 183, 184, 185, 186, 187, 188, 189, 190, 191, 192, 193, 194, 195, 196, 197, 198, 199, 200],
      "WindowCenter": [1550.0, 1549.0, 1549.0, 1549.0, 1549.0, 1548.0, 1549.0, 1549.0, 1548.0, 1548.0, 1548.0, 1549.0, 1548.0, 1548.0, 1547.0, 1547.0, 1548.0, 1548.0, 1546.0, 1547.0, 1547.0, 1546.0, 1547.0, 1546.0, 1546.0, 1546.0, 1547.0, 1546.0, 1547.0, 1547.0, 1546.0, 1545.0, 1546.0, 1545.0, 1546.0, 1545.0, 1545.0, 1545.0, 1545.0, 1546.0, 1545.0, 1546.0, 1545.0, 1545.0, 1545.0, 1544.0, 1545.0, 1546.0, 1545.0, 1545.0, 1546.0, 1545.0, 1545.0, 1544.0, 1544.0, 1545.0, 1545.0, 1544.0, 1544.0, 1544.0, 1545.0, 1545.0, 1544.0, 1544.0, 1543.0, 1544.0, 1544.0, 1544.0, 1543.0, 1543.0, 1544.0, 1544.0, 1542.0, 1543.0, 1543.0, 1543.0, 1543.0, 1544.0, 1542.0, 1543.0, 1543.0, 1543.0, 1543.0, 1543.0, 1543.0, 1542.0, 1542.0, 1543.0, 1543.0, 1543.0, 1543.0, 1543.0, 1543.0, 1542.0, 1542.0, 1542.0, 1542.0, 1542.0, 1543.0, 1542.0, 1543.0, 1542.0, 1542.0, 1541.0, 1541.0, 1541.0, 1542.0, 1542.0, 1541.0, 1541.0, 1541.0, 1540.0, 1541.0, 1541.0, 1542.0, 1541.0, 1542.0, 1541.0, 1540.0, 1541.0, 1541.0, 1540.0, 1541.0, 1541.0, 1541.0, 1541.0, 1541.0, 1541.0, 1541.0, 1540.0, 1540.0, 1539.0, 1541.0, 1540.0, 1540.0, 1540.0, 1540.0, 1540.0, 1540.0, 1540.0, 1540.0, 1540.0, 1540.0, 1540.0, 1540.0, 1540.0, 1540.0, 1540.0, 1540.0, 1540.0, 1539.0, 1540.0, 1540.0, 1540.0, 1540.0, 1540.0, 1539.0, 1539.0, 1539.0, 1539.0, 1539.0, 1539.0, 1539.0, 1539.0, 1539.0, 1538.0, 1539.0, 1539.0, 1539.0, 1539.0, 1539.0, 1538.0, 1539.0, 1539.0, 1537.0, 1539.0, 1538.0, 1538.0, 1538.0, 1538.0, 1539.0, 1538.0, 1539.0, 1538.0, 1539.0, 1538.0, 1537.0, 1539.0, 1538.0, 1537.0, 1538.0, 1538.0, 1538.0, 1538.0, 1538.0, 1538.0, 1538.0, 1538.0, 1538.0, 1538.0],
      "WindowWidth": [3467.0, 3465.0, 3465.0, 3465.0, 3465.0, 3465.0, 3465.0, 3465.0, 3465.0, 3465.0, 3464.0, 3464.0, 3464.0, 3464.0, 3464.0, 3464.0, 3464.0, 3464.0, 3464.0, 3464.0, 3464.0, 3464.0, 3464.0, 3464.0, 3464.0, 3464.0, 3463.0, 3463.0, 3463.0, 3463.0, 3463.0, 3463.0, 3463.0, 3463.0, 3463.0, 3463.0, 3463.0, 3463.0, 3463.0, 3462.0, 3463.0, 3462.0, 3463.0, 3463.0, 3463.0, 3463.0, 3463.0, 3462.0, 3463.0, 3463.0, 3462.0, 3463.0, 3462.0, 3462.0, 3462.0, 3462.0, 3462.0, 3462.0, 3462.0, 3462.0, 3461.0, 3461.0, 3462.0, 3462.0, 3462.0, 3461.0, 3461.0, 3461.0, 3462.0, 3461.0, 3461.0, 3461.0, 3461.0, 3461.0, 3461.0, 3461.0, 3461.0, 3460.0, 3461.0, 3461.0, 3460.0, 3460.0, 3460.0, 3460.0, 3460.0, 3461.0, 3461.0, 3460.0, 3460.0, 3460.0, 3460.0, 3460.0, 3460.0, 3460.0, 3460.0, 3460.0, 3460.0, 3460.0, 3460.0, 3460.0, 3460.0, 3460.0, 3460.0, 3460.0, 3460.0, 3460.0, 3459.0, 3459.0, 3460.0, 3459.0, 3459.0, 3460.0, 3459.0, 3459.0, 3459.0, 3459.0, 3459.0, 3459.0, 3459.0, 3459.0, 3459.0, 3459.0, 3459.0, 3459.0, 3459.0, 3459.0, 3459.0, 3459.0, 3459.0, 3458.0, 3458.0, 3459.0, 3458.0, 3458.0, 3458.0, 3458.0, 3458.0, 3458.0, 3458.0, 3458.0, 3458.0, 3458.0, 3458.0, 3458.0, 3458.0, 3458.0, 3458.0, 3458.0, 3458.0, 3458.0, 3458.0, 3458.0, 3458.0, 3458.0, 3458.0, 3458.0, 3458.0, 3458.0, 3458.0, 3457.0, 3457.0, 3457.0, 3457.0, 3457.0, 3457.0, 3457.0, 3457.0, 3457.0, 3457.0, 3457.0, 3457.0, 3457.0, 3457.0, 3457.0, 3457.0, 3457.0, 3457.0, 3457.0, 3457.0, 3457.0, 3456.0, 3457.0, 3456.0, 3457.0, 3456.0, 3456.0, 3457.0, 3456.0, 3456.0, 3456.0, 3456.0, 3457.0, 3456.0, 3456.0, 3456.0, 3456.0, 3456.0, 3456.0, 3456.0, 3456.0]
    },
    "slices": {}
  }
}