{
  "AcquisitionMatrixPE": 80,
  "AcquisitionNumber": 1,
  "AcquisitionTime": "09:35:41.532500",
  "BandwidthPerPixelPhaseEncode": 25,
  "BaseResolution": 80,
  "BodyPartExamined": "BRAIN",
  "CoilCombinationMethod": "Sum of Squares",
  "ConsistencyInfo": "N4_VE11C_LATEST_20160120",
  "ConversionSoftware": "dcm2niix",
  "ConversionSoftwareVersion": "v1.0.20220720",
  "DerivedVendorReportedEchoSpacing": 0.0005,
  "DeviceSerialNumber": "66112",
  "DwellTime": 2.7e-06,
  "EchoTime": 0.03,
  "EchoTrainLength": 80,
  "EffectiveEchoSpacing": 0.0005,
  "FlipAngle": 77,
  "HeudiconvVersion": "0.13.1",
  "ImageOrientationPatientDICOM": [0.999929, 0.0114242, 0.00325263, -0.0118679, 0.949512, 0.313507],
  "ImageOrientationText": "Tra>Cor(18.3)>Sag(-0.0)",
  "ImageType": [
    "ORIGINAL",
    "PRIMARY",
    "M",
    "ND",
    "NORM",
    "MOSAIC"
],
  "ImagingFrequency": 123.252,
  "InPlanePhaseEncodingDirectionDICOM": "COL",
  "InstitutionAddress": "Maynard 3,Hanover,NH,US,03755",
  "InstitutionName": "Dartmouth College - PBS",
  "InstitutionalDepartmentName": "Department",
  "MRAcquisitionType": "2D",
  "MagneticFieldStrength": 3,
  "Manufacturer": "Siemens",
  "ManufacturersModelName": "Prisma",
  "MatrixCoilMode": "SENSE",
  "Modality": "MR",
  "NonlinearGradientCorrection": false,
  "PartialFourier": 1,
  "PatientPosition": "HFS",
  "PercentPhaseFOV": 100,
  "PercentSampling": 100,
  "PhaseEncodingDirection": "j-",
  "PhaseEncodingSteps": 80,
  "PhaseResolution": 1,
  "PixelBandwidth": 2315,
  "ProcedureStepDescription": "dbic^QA",
  "ProtocolName": "func-bold_fa-77",
  "PulseSequenceDetails": "%SiemensSeq%\\ep2d_bold",
  "ReceiveCoilActiveElements": "HC1-7;NC1,2",
  "ReceiveCoilName": "HeadNeck_64",
  "ReconMatrixPE": 80,
  "RepetitionTime": 2,
  "SAR": 0.0282925,
  "ScanOptions": "FS",
  "ScanningSequence": "EP",
  "SequenceName": "*epfid2d1_80",
  "SequenceVariant": "SK",
  "SeriesDescription": "func-bold_fa-77",
  "SeriesNumber": 7,
  "ShimSetting": [4138, -7686, -7516, 169, -45, -375, -131, 80],
  "SliceThickness": 3.5,
  "SliceTiming": [0.99, 0, 1.055, 0.065, 1.12, 0.1325, 1.1875, 0.1975, 1.2525, 0.2625, 1.32, 0.33, 1.385, 0.395, 1.45, 0.46, 1.5175, 0.5275, 1.5825, 0.5925, 1.65, 0.66, 1.715, 0.725, 1.78, 0.79, 1.8475, 0.8575, 1.9125, 0.9225],
  "SoftwareVersions": "syngo MR E11",
  "SpacingBetweenSlices": 3.99,
  "StationName": "AWP66112",
  "TotalReadoutTime": 0.0395,
  "TxRefAmp": 209.927,
  "dcmmeta_affine": [
    [-2.999788284301758, -0.035603802651166916, -0.0019676515366882086, 121.77056884765625],
    [-0.034272484481334686, 2.8485350608825684, 1.2509592771530151, -130.53656005859375],
    [0.009757890366017818, -0.9405214190483093, 3.788825273513794, -31.669574737548828],
    [0.0, 0.0, 0.0, 1.0]
],
  "dcmmeta_reorient_transform": [
    [0.0, -1.0, 0.0, 79.0],
    [1.0, 0.0, 0.0, 0.0],
    [0.0, 0.0, 1.0, 0.0],
    [0.0, 0.0, 0.0, 1.0]
],
  "dcmmeta_shape": [80, 80, 30, 200],
  "dcmmeta_slice_dim": 2,
  "dcmmeta_version": 0.6,
  "global": {
    "const": {
      "AccessionNumber": "qa64",
      "AcquisitionMatrix": [80, 0, 0, 80],
      "AngioFlag": "N",
      "BitsAllocated": 16,
      "BitsStored": 12,
      "BodyPartExamined": "BRAIN",
      "Columns": 480,
      "EchoNumbers": 1,
      "EchoTime": 30.0,
      "EchoTrainLength": 80,
      "FlipAngle": 77.0,
      "HighBit": 11,
      "ImageOrientationPatient": [0.9999294519799, 0.01142416121514, 0.00325263027471, -0.0118679345479, 0.94951167523953, 0.31350714619189],
      "ImagePositionPatient": [-711.79477694367, -671.05921560796, -296.02663378252],
      "ImageType": [
        "ORIGINAL",
        "PRIMARY",
        "M",
        "ND",
        "NORM",
        "MOSAIC"
],
      "ImagedNucleus": "1H",
      "ImagingFrequency": 123.252378,
      "InPlanePhaseEncodingDirection": "COL",
      "LargestImagePixelValue": 4095,
      "MRAcquisitionType": "2D",
      "MagneticFieldStrength": 3.0,
      "Manufacturer": "SIEMENS",
      "ManufacturerModelName": "Prisma",
      "Modality": "MR",
      "NumberOfAverages": 1.0,
      "NumberOfPhaseEncodingSteps": 80,
      "PercentPhaseFieldOfView": 100.0,
      "PercentSampling": 100.0,
      "PerformedProcedureStepStartTime": "092705.824000",
      "PhotometricInterpretation": "MONOCHROME2",
      "PixelBandwidth": 2315.0,
      "PixelRepresentation": 0,
      "PixelSpacing": [3.0, 3.0],
      "ProtocolName": "func-bold_fa-77",
      "RepetitionTime": 2000.0,
      "Rows": 480,
      "SAR": 0.02829247007425,
      "SamplesPerPixel": 1,
      "ScanOptions": "FS",
      "ScanningSequence": "EP",
      "SequenceName": "*epfid2d1_80",
      "SequenceVariant": "SK",
      "SeriesDescription": "func-bold_fa-77",
      "SeriesNumber": 7,
      "SeriesTime": "093622.880000",
      "SliceLocation": -71.05914767209,
      "SliceThickness": 3.5,
      "SmallestImagePixelValue": 0,
      "SoftwareVersions": "syngo MR E11",
      "SpacingBetweenSlices": 3.9899999181079,
      "SpecificCharacterSet": "ISO_IR 100",
      "StudyID": "22",
      "StudyTime": "092705.750000",
      "TransmitCoilName": "Body",
      "VariableFlipAngleFlag": "N",
      "WindowCenterWidthExplanation": "Algo1",
      "dBdt": 0.0},
    "slices": {}
  },
  "time": {
    "samples": {
      "AcquisitionNumber": [1, 2, 3, 4, 5, 6, 7, 8, 9, 10, 11, 12, 13, 14, 15, 16, 17, 18, 19, 20, 21, 22, 23, 24, 25, 26, 27, 28, 29, 30, 31, 32, 33, 34, 35, 36, 37, 38, 39, 40, 41, 42, 43, 44, 45, 46, 47, 48, 49, 50, 51, 52, 53, 54, 55, 56, 57, 58, 59, 60, 61, 62, 63, 64, 65, 66, 67, 68, 69, 70, 71, 72, 73, 74, 75, 76, 77, 78, 79, 80, 81, 82, 83, 84, 85, 86, 87, 88, 89, 90, 91, 92, 93, 94, 95, 96, 97, 98, 99, 100, 101, 102, 103, 104, 105, 106, 107, 108, 109, 110, 111, 112, 113, 114, 115, 116, 117, 118, 119, 120, 121, 122, 123, 124, 125, 126, 127, 128, 129, 130, 131, 132, 133, 134, 135, 136, 137, 138, 139, 140, 141, 142, 143, 144, 145, 146, 147, 148, 149, 150, 151, 152, 153, 154, 155, 156, 157, 158, 159, 160, 161, 162, 163, 164, 165, 166, 167, 168, 169, 170, 171, 172, 173, 174, 175, 176, 177, 178, 179, 180, 181, 182, 183, 184, 185, 186, 187, 188, 189, 190, 191, 192, 193, 194, 195, 196, 197, 198, 199, 200],
      "AcquisitionTime": ["093541.532500", "093543.532500", "093545.532500", "093547.532500", "093549.532500", "093551.532500", "093553.532500", "093555.532500", "093557.532500", "093559.532500", "093601.532500", "093603.532500", "093605.532500", "093607.532500", "093609.532500", "093611.532500", "093613.532500", "093615.532500", "093617.532500", "093619.532500", "093621.532500", "093623.532500", "093625.532500", "093627.532500", "093629.532500", "093631.532500", "093633.532500", "093635.532500", "093637.532500", "093639.532500", "093641.532500", "093643.532500", "093645.532500", "093647.532500", "093649.532500", "093651.532500", "093653.532500", "093655.532500", "093657.532500", "093659.532500", "093701.532500", "093703.532500", "093705.532500", "093707.532500", "093709.532500", "093711.532500", "093713.532500", "093715.532500", "093717.532500", "093719.532500", "093721.532500", "093723.532500", "093725.532500", "093727.532500", "093729.532500", "093731.532500", "093733.532500", "093735.532500", "093737.532500", "093739.532500", "093741.532500", "093743.532500", "093745.532500", "093747.532500", "093749.532500", "093751.532500", "093753.532500", "093755.532500", "093757.532500", "093759.532500", "093801.532500", "093803.532500", "093805.532500", "093807.532500", "093809.532500", "093811.532500", "093813.532500", "093815.532500", "093817.532500", "093819.532500", "093821.532500", "093823.532500", "093825.532500", "093827.532500", "093829.532500", "093831.532500", "093833.532500", "093835.532500", "093837.532500", "093839.532500", "093841.532500", "093843.532500", "093845.532500", "093847.532500", "093849.532500", "093851.532500", "093853.532500", "093855.532500", "093857.532500", "093859.532500", "093901.532500", "093903.532500", "093905.532500", "093907.532500", "093909.532500", "093911.532500", "093913.532500", "093915.532500", "093917.532500", "093919.532500", "093921.532500", "093923.532500", "093925.532500", "093927.532500", "093929.532500", "093931.532500", "093933.532500", "093935.532500", "093937.532500", "093939.532500", "093941.532500", "093943.532500", "093945.532500", "093947.532500", "093949.532500", "093951.532500", "093953.532500", "093955.532500", "093957.532500", "093959.532500", "094001.532500", "094003.532500", "094005.532500", "094007.532500", "094009.532500", "094011.532500", "094013.532500", "094015.532500", "094017.532500", "094019.532500", "094021.532500", "094023.532500", "094025.532500", "094027.532500", "094029.532500", "094031.532500", "094033.532500", "094035.532500", "094037.532500", "094039.532500", "094041.532500", "094043.532500", "094045.532500", "094047.532500", "094049.532500", "094051.532500", "094053.532500", "094055.532500", "094057.532500", "094059.532500", "094101.532500", "094103.532500", "094105.532500", "094107.532500", "094109.532500", "094111.532500", "094113.532500", "094115.532500", "094117.532500", "094119.532500", "094121.532500", "094123.532500", "094125.532500", "094127.532500", "094129.532500", "094131.532500", "094133.532500", "094135.532500", "094137.532500", "094139.532500", "094141.532500", "094143.532500", "094145.532500", "094147.532500", "094149.532500", "094151.532500", "094153.532500", "094155.532500", "094157.532500", "094159.532500", "094201.532500", "094203.532500", "094205.532500", "094207.532500", "094209.532500", "094211.532500", "094213.532500", "094215.532500", "094217.532500", "094219.532500"],
      "ContentTime": ["093622.883000", "093622.887000", "093622.889000", "093622.892000", "093622.894000", "093622.896000", "093622.906000", "093622.909000", "093622.911000", "093622.914000", "093622.916000", "093622.919000", "093622.921000", "093622.924000", "093622.926000", "093622.929000", "093622.931000", "093622.934000", "093622.936000", "093622.939000", "093702.878000", "093702.881000", "093702.884000", "093702.886000", "093702.889000", "093702.898000", "093702.900000", "093702.903000", "093702.906000", "093702.908000", "093702.910000", "093702.913000", "093702.915000", "093702.918000", "093702.920000", "093702.923000", "093702.925000", "093702.928000", "093702.930000", "093702.933000", "093742.879000", "093742.882000", "093742.885000", "093742.887000", "093742.890000", "093742.892000", "093742.895000", "093742.897000", "093742.900000", "093742.902000", "093742.905000", "093742.907000", "093742.910000", "093742.912000", "093742.915000", "093742.917000", "093742.920000", "093742.922000", "093742.925000", "093742.927000", "093822.879000", "093822.882000", "093822.885000", "093822.887000", "093822.890000", "093822.892000", "093822.895000", "093822.897000", "093822.900000", "093822.902000", "093822.905000", "093822.907000", "093822.910000", "093822.912000", "093822.915000", "093822.917000", "093822.919000", "093822.922000", "093822.924000", "093822.927000", "093902.879000", "093902.881000", "093902.884000", "093902.887000", "093902.889000", "093902.891000", "093902.894000", "093902.896000", "093902.899000", "093902.901000", "093902.904000", "093902.906000", "093902.909000", "093902.911000", "093902.914000", "093902.916000", "093902.919000", "093902.921000", "093902.924000", "093902.926000", "093942.879000", "093942.882000", "093942.885000", "093942.887000", "093942.890000", "093942.892000", "093942.895000", "093942.897000", "093942.900000", "093942.902000", "093942.905000", "093942.907000", "093942.910000", "093942.912000", "093942.915000", "093942.917000", "093942.920000", "093942.922000", "093942.924000", "093942.927000", "094022.879000", "094022.882000", "094022.885000", "094022.887000", "094022.890000", "094022.892000", "094022.895000", "094022.897000", "094022.900000", "094022.902000", "094022.905000", "094022.907000", "094022.910000", "094022.912000", "094022.915000", "094022.917000", "094022.920000", "094022.922000", "094022.924000", "094022.927000", "094102.878000", "094102.881000", "094102.884000", "094102.886000", "094102.889000", "094102.891000", "094102.902000", "094102.905000", "094102.907000", "094102.910000", "094102.912000", "094102.915000", "094102.917000", "094102.920000", "094102.922000", "094102.925000", "094102.927000", "094102.930000", "094102.932000", "094102.935000", "094142.878000", "094142.881000", "094142.884000", "094142.886000", "094142.889000", "094142.891000", "094142.894000", "094142.896000", "094142.899000", "094142.901000", "094142.904000", "094142.906000", "094142.909000", "094142.911000", "094142.914000", "094142.916000", "094142.919000", "094142.921000", "094142.924000", "094142.926000", "094221.519000", "094221.523000", "094221.525000", "094221.528000", "094221.530000", "094221.533000", "094221.535000", "094221.538000", "094221.540000", "094221.543000", "094221.545000", "094221.548000", "094221.551000", "094221.558000", "094221.564000", "094221.568000", "094221.571000", "094221.575000", "094221.578000", "094221.582000"],
      "InstanceCreationTime": ["093622.883000", "093622.887000", "093622.889000", "093622.892000", "093622.894000", "093622.896000", "093622.906000", "093622.909000", "093622.911000", "093622.914000", "093622.916000", "093622.919000", "093622.921000", "093622.924000", "093622.926000", "093622.929000", "093622.931000", "093622.934000", "093622.936000", "093622.939000", "093702.878000", "093702.881000", "093702.884000", "093702.886000", "093702.889000", "093702.898000", "093702.900000", "093702.903000", "093702.906000", "093702.908000", "093702.910000", "093702.913000", "093702.915000", "093702.918000", "093702.920000", "093702.923000", "093702.925000", "093702.928000", "093702.930000", "093702.933000", "093742.879000", "093742.882000", "093742.885000", "093742.887000", "093742.890000", "093742.892000", "093742.895000", "093742.897000", "093742.900000", "093742.902000", "093742.905000", "093742.907000", "093742.910000", "093742.912000", "093742.915000", "093742.917000", "093742.920000", "093742.922000", "093742.925000", "093742.927000", "093822.879000", "093822.882000", "093822.885000", "093822.887000", "093822.890000", "093822.892000", "093822.895000", "093822.897000", "093822.900000", "093822.902000", "093822.905000", "093822.907000", "093822.910000", "093822.912000", "093822.915000", "093822.917000", "093822.919000", "093822.922000", "093822.924000", "093822.927000", "093902.879000", "093902.881000", "093902.884000", "093902.887000", "093902.889000", "093902.891000", "093902.894000", "093902.896000", "093902.899000", "093902.901000", "093902.904000", "093902.906000", "093902.909000", "093902.911000", "093902.914000", "093902.916000", "093902.919000", "093902.921000", "093902.924000", "093902.926000", "093942.879000", "093942.882000", "093942.885000", "093942.887000", "093942.890000", "093942.892000", "093942.895000", "093942.897000", "093942.900000", "093942.902000", "093942.905000", "093942.907000", "093942.910000", "093942.912000", "093942.915000", "093942.917000", "093942.920000", "093942.922000", "093942.924000", "093942.927000", "094022.879000", "094022.882000", "094022.885000", "094022.887000", "094022.890000", "094022.892000", "094022.895000", "094022.897000", "094022.900000", "094022.902000", "094022.905000", "094022.907000", "094022.910000", "094022.912000", "094022.915000", "094022.917000", "094022.920000", "094022.922000", "094022.924000", "094022.927000", "094102.878000", "094102.881000", "094102.884000", "094102.886000", "094102.889000", "094102.891000", "094102.902000", "094102.905000", "094102.907000", "094102.910000", "094102.912000", "094102.915000", "094102.917000", "094102.920000", "094102.922000", "094102.925000", "094102.927000", "094102.930000", "094102.932000", "094102.935000", "094142.878000", "094142.881000", "094142.884000", "094142.886000", "094142.889000", "094142.891000", "094142.894000", "094142.896000", "094142.899000", "094142.901000", "094142.904000", "094142.906000", "094142.909000", "094142.911000", "094142.914000", "094142.916000", "094142.919000", "094142.921000", "094142.924000", "094142.926000", "094221.519000", "094221.523000", "094221.525000", "094221.528000", "094221.530000", "094221.533000", "094221.535000", "094221.538000", "094221.540000", "094221.543000", "094221.545000", "094221.548000", "094221.551000", "094221.558000", "094221.564000", "094221.568000", "094221.571000", "094221.575000", "094221.578000", "094221.582000"],
      "InstanceNumber": [1, 2, 3, 4, 5, 6, 7, 8, 9, 10, 11, 12, 13, 14, 15, 16, 17, 18, 19, 20, 21, 22, 23, 24, 25, 26, 27, 28, 29, 30, 31, 32, 33, 34, 35, 36, 37, 38, 39, 40, 41, 42, 43, 44, 45, 46, 47, 48, 49, 50, 51, 52, 53, 54, 55, 56, 57, 58, 59, 60, 61, 62, 63, 64, 65, 66, 67, 68, 69, 70, 71, 72, 73, 74, 75, 76, 77, 78, 79, 80, 81, 82, 83, 84, 85, 86, 87, 88, 89, 90, 91, 92, 93, 94, 95, 96, 97, 98, 99, 100, 101, 102, 103, 104, 105, 106, 107, 108, 109, 110, 111, 112, 113, 114, 115, 116, 117, 118, 119, 120, 121, 122, 123, 124, 125, 126, 127, 128, 129, 130, 131, 132, 133, 134, 135, 136, 137, 138, 139, 140, 141, 142, 143, 144, 145, 146, 147, 148, 149, 150, 151, 152, 153, 154, 155, 156, 157, 158, 159, 160, 161, 162, 163, 164, 165, 166, 167, 168, 169, 170, 171, 172, 173, 174, 175, 176, 177, 178, 179, 180, 181, 182, 183, 184, 185, 186, 187, 188, 189, 190, 191, 192, 193, 194, 195, 196, 197, 198, 199, 200],
      "WindowCenter": [1453.0, 1454.0, 1452.0, 1453.0, 1453.0, 1454.0, 1454.0, 1454.0, 1453.0, 1452.0, 1453.0, 1452.0, 1451.0, 1452.0, 1454.0, 1453.0, 1452.0, 1452.0, 1451.0, 1452.0, 1452.0, 1452.0, 1451.0, 1452.0, 1451.0, 1452.0, 1451.0, 1451.0, 1451.0, 1452.0, 1451.0, 1451.0, 1451.0, 1451.0, 1451.0, 1451.0, 1452.0, 1452.0, 1451.0, 1451.0, 1451.0, 1450.0, 1451.0, 1451.0, 1451.0, 1451.0, 1450.0, 1451.0, 1450.0, 1450.0, 1451.0, 1451.0, 1451.0, 1450.0, 1450.0, 1450.0, 1450.0, 1450.0, 1450.0, 1450.0, 1450.0, 1450.0, 1450.0, 1450.0, 1450.0, 1449.0, 1450.0, 1450.0, 1451.0, 1450.0, 1449.0, 1449.0, 1449.0, 1449.0, 1449.0, 1449.0, 1449.0, 1449.0, 1449.0, 1449.0, 1449.0, 1449.0, 1449.0, 1448.0, 1449.0, 1448.0, 1449.0, 1449.0, 1448.0, 1448.0, 1448.0, 1449.0, 1448.0, 1449.0, 1448.0, 1448.0, 1448.0, 1449.0, 1449.0, 1448.0, 1448.0, 1448.0, 1448.0, 1447.0, 1448.0, 1448.0, 1447.0, 1448.0, 1447.0, 1448.0, 1449.0, 1447.0, 1447.0, 1447.0, 1448.0, 1448.0, 1448.0, 1448.0, 1447.0, 1448.0, 1448.0, 1447.0, 1447.0, 1447.0, 1447.0, 1447.0, 1447.0, 1447.0, 1446.0, 1446.0, 1446.0, 1446.0, 1446.0, 1446.0, 1446.0, 1447.0, 1447.0, 1447.0, 1447.0, 1448.0, 1446.0, 1446.0, 1446.0, 1446.0, 1446.0, 1446.0, 1447.0, 1446.0, 1446.0, 1447.0, 1447.0, 1447.0, 1446.0, 1446.0, 1445.0, 1446.0, 1446.0, 1446.0, 1446.0, 1446.0, 1446.0, 1446.0, 1446.0, 1446.0, 1447.0, 1447.0, 1446.0, 1446.0, 1445.0, 1445.0, 1446.0, 1446.0, 1445.0, 1445.0, 1445.0, 1445.0, 1446.0, 1445.0, 1446.0, 1445.0, 1445.0, 1444.0, 1445.0, 1445.0, 1444.0, 1445.0, 1445.0, 1445.0, 1445.0, 1445.0, 1446.0, 1445.0, 1444.0, 1444.0, 1444.0, 1444.0, 1444.0, 1444.0, 1444.0, 1445.0],
      "WindowWidth": [3423.0, 3422.0, 3422.0, 3421.0, 3422.0, 3422.0, 3422.0, 3422.0, 3422.0, 3421.0, 3422.0, 3421.0, 3421.0, 3420.0, 3421.0, 3421.0, 3420.0, 3420.0, 3421.0, 3420.0, 3420.0, 3420.0, 3421.0, 3420.0, 3420.0, 3420.0, 3420.0, 3420.0, 3420.0, 3420.0, 3420.0, 3420.0, 3420.0, 3420.0, 3420.0, 3420.0, 3420.0, 3420.0, 3420.0, 3420.0, 3420.0, 3420.0, 3420.0, 3420.0, 3420.0, 3420.0, 3420.0, 3420.0, 3420.0, 3420.0, 3419.0, 3420.0, 3420.0, 3420.0, 3419.0, 3419.0, 3419.0, 3420.0, 3419.0, 3419.0, 3419.0, 3419.0, 3419.0, 3419.0, 3419.0, 3419.0, 3419.0, 3420.0, 3419.0, 3419.0, 3419.0, 3419.0, 3419.0, 3419.0, 3418.0, 3418.0, 3418.0, 3418.0, 3418.0, 3418.0, 3418.0, 3418.0, 3418.0, 3419.0, 3418.0, 3418.0, 3418.0, 3418.0, 3418.0, 3418.0, 3418.0, 3418.0, 3418.0, 3418.0, 3418.0, 3418.0, 3417.0, 3418.0, 3418.0, 3417.0, 3417.0, 3417.0, 3417.0, 3418.0, 3417.0, 3417.0, 3417.0, 3417.0, 3417.0, 3417.0, 3417.0, 3417.0, 3417.0, 3417.0, 3417.0, 3417.0, 3417.0, 3417.0, 3417.0, 3417.0, 3417.0, 3417.0, 3417.0, 3416.0, 3416.0, 3416.0, 3417.0, 3416.0, 3416.0, 3416.0, 3416.0, 3416.0, 3416.0, 3416.0, 3416.0, 3416.0, 3416.0, 3416.0, 3416.0, 3416.0, 3416.0, 3416.0, 3416.0, 3416.0, 3416.0, 3416.0, 3416.0, 3416.0, 3416.0, 3416.0, 3416.0, 3415.0, 3415.0, 3415.0, 3415.0, 3416.0, 3416.0, 3415.0, 3415.0, 3416.0, 3415.0, 3416.0, 3415.0, 3415.0, 3416.0, 3415.0, 3415.0, 3415.0, 3415.0, 3415.0, 3415.0, 3415.0, 3415.0, 3415.0, 3415.0, 3415.0, 3414.0, 3415.0, 3414.0, 3415.0, 3414.0, 3415.0, 3414.0, 3414.0, 3414.0, 3414.0, 3414.0, 3414.0, 3414.0, 3414.0, 3414.0, 3414.0, 3414.0, 3414.0, 3414.0, 3414.0, 3414.0, 3414.0, 3414.0, 3413.0]
    },
    "slices": {}
  }
}