{
  "AcquisitionMatrixPE": 80,
  "AcquisitionNumber": 1,
  "AcquisitionTime": "09:42:28.525000",
  "BandwidthPerPixelPhaseEncode": 25,
  "BaseResolution": 80,
  "BodyPartExamined": "BRAIN",
  "CoilCombinationMethod": "Sum of Squares",
  "ConsistencyInfo": "N4_VE11C_LATEST_20160120",
  "ConversionSoftware": "dcm2niix",
  "ConversionSoftwareVersion": "v1.0.20220720",
  "DerivedVendorReportedEchoSpacing": 0.0005,
  "DeviceSerialNumber": "66112",
  "DwellTime": 2.7e-06,
  "EchoTime": 0.03,
  "EchoTrainLength": 80,
  "EffectiveEchoSpacing": 0.0005,
  "FlipAngle": 10,
  "HeudiconvVersion": "0.13.1",
  "ImageOrientationPatientDICOM": [0.999929, 0.0114242, 0.00325263, -0.0118679, 0.949512, 0.313507],
  "ImageOrientationText": "Tra>Cor(18.3)>Sag(-0.0)",
  "ImageType": [
    "ORIGINAL",
    "PRIMARY",
    "M",
    "ND",
    "NORM",
    "MOSAIC"
],
  "ImagingFrequency": 123.252,
  "InPlanePhaseEncodingDirectionDICOM": "COL",
  "InstitutionAddress": "Maynard 3,Hanover,NH,US,03755",
  "InstitutionName": "Dartmouth College - PBS",
  "InstitutionalDepartmentName": "Department",
  "MRAcquisitionType": "2D",
  "MagneticFieldStrength": 3,
  "Manufacturer": "Siemens",
  "ManufacturersModelName": "Prisma",
  "MatrixCoilMode": "SENSE",
  "Modality": "MR",
  "NonlinearGradientCorrection": false,
  "PartialFourier": 1,
  "PatientPosition": "HFS",
  "PercentPhaseFOV": 100,
  "PercentSampling": 100,
  "PhaseEncodingDirection": "j-",
  "PhaseEncodingSteps": 80,
  "PhaseResolution": 1,
  "PixelBandwidth": 2315,
  "ProcedureStepDescription": "dbic^QA",
  "ProtocolName": "func-bold_fa-10",
  "PulseSequenceDetails": "%SiemensSeq%\\ep2d_bold",
  "ReceiveCoilActiveElements": "HC1-7;NC1,2",
  "ReceiveCoilName": "HeadNeck_64",
  "ReconMatrixPE": 80,
  "RepetitionTime": 2,
  "SAR": 0.00758943,
  "ScanOptions": "FS",
  "ScanningSequence": "EP",
  "SequenceName": "*epfid2d1_80",
  "SequenceVariant": "SK",
  "SeriesDescription": "func-bold_fa-10",
  "SeriesNumber": 9,
  "ShimSetting": [4138, -7686, -7516, 169, -45, -375, -131, 80],
  "SliceThickness": 3.5,
  "SliceTiming": [0.99, 0, 1.0575, 0.0675, 1.1225, 0.1325, 1.1875, 0.1975, 1.255, 0.265, 1.32, 0.33, 1.3875, 0.3975, 1.4525, 0.4625, 1.5175, 0.5275, 1.585, 0.595, 1.65, 0.66, 1.7175, 0.7275, 1.7825, 0.7925, 1.8475, 0.8575, 1.915, 0.925],
  "SoftwareVersions": "syngo MR E11",
  "SpacingBetweenSlices": 3.99,
  "StationName": "AWP66112",
  "TotalReadoutTime": 0.0395,
  "TxRefAmp": 209.927,
  "dcmmeta_affine": [
    [-2.999788284301758, -0.035603802651166916, -0.0019676515366882086, 121.77056884765625],
    [-0.034272484481334686, 2.8485350608825684, 1.2509592771530151, -130.53656005859375],
    [0.009757890366017818, -0.9405214190483093, 3.788825273513794, -31.669574737548828],
    [0.0, 0.0, 0.0, 1.0]
],
  "dcmmeta_reorient_transform": [
    [0.0, -1.0, 0.0, 79.0],
    [1.0, 0.0, 0.0, 0.0],
    [0.0, 0.0, 1.0, 0.0],
    [0.0, 0.0, 0.0, 1.0]
],
  "dcmmeta_shape": [80, 80, 30, 200],
  "dcmmeta_slice_dim": 2,
  "dcmmeta_version": 0.6,
  "global": {
    "const": {
      "AccessionNumber": "qa64",
      "AcquisitionMatrix": [80, 0, 0, 80],
      "AngioFlag": "N",
      "BitsAllocated": 16,
      "BitsStored": 12,
      "BodyPartExamined": "BRAIN",
      "Columns": 480,
      "EchoNumbers": 1,
      "EchoTime": 30.0,
      "EchoTrainLength": 80,
      "FlipAngle": 10.0,
      "HighBit": 11,
      "ImageOrientationPatient": [0.9999294519799, 0.01142416121514, 0.00325263027471, -0.0118679345479, 0.94951167523953, 0.31350714619189],
      "ImagePositionPatient": [-711.79477694367, -671.05921560796, -296.02663378252],
      "ImageType": [
        "ORIGINAL",
        "PRIMARY",
        "M",
        "ND",
        "NORM",
        "MOSAIC"
],
      "ImagedNucleus": "1H",
      "ImagingFrequency": 123.252378,
      "InPlanePhaseEncodingDirection": "COL",
      "MRAcquisitionType": "2D",
      "MagneticFieldStrength": 3.0,
      "Manufacturer": "SIEMENS",
      "ManufacturerModelName": "Prisma",
      "Modality": "MR",
      "NumberOfAverages": 1.0,
      "NumberOfPhaseEncodingSteps": 80,
      "PercentPhaseFieldOfView": 100.0,
      "PercentSampling": 100.0,
      "PerformedProcedureStepStartTime": "092705.824000",
      "PhotometricInterpretation": "MONOCHROME2",
      "PixelBandwidth": 2315.0,
      "PixelRepresentation": 0,
      "PixelSpacing": [3.0, 3.0],
      "ProtocolName": "func-bold_fa-10",
      "RepetitionTime": 2000.0,
      "Rows": 480,
      "SAR": 0.0075894292724,
      "SamplesPerPixel": 1,
      "ScanOptions": "FS",
      "ScanningSequence": "EP",
      "SequenceName": "*epfid2d1_80",
      "SequenceVariant": "SK",
      "SeriesDescription": "func-bold_fa-10",
      "SeriesNumber": 9,
      "SeriesTime": "094322.741000",
      "SliceLocation": -71.05914767209,
      "SliceThickness": 3.5,
      "SmallestImagePixelValue": 0,
      "SoftwareVersions": "syngo MR E11",
      "SpacingBetweenSlices": 3.9899999181079,
      "SpecificCharacterSet": "ISO_IR 100",
      "StudyID": "22",
      "StudyTime": "092705.750000",
      "TransmitCoilName": "Body",
      "VariableFlipAngleFlag": "N",
      "WindowCenterWidthExplanation": "Algo1",
      "dBdt": 0.0},
    "slices": {}
  },
  "time": {
    "samples": {
      "AcquisitionNumber": [1, 2, 3, 4, 5, 6, 7, 8, 9, 10, 11, 12, 13, 14, 15, 16, 17, 18, 19, 20, 21, 22, 23, 24, 25, 26, 27, 28, 29, 30, 31, 32, 33, 34, 35, 36, 37, 38, 39, 40, 41, 42, 43, 44, 45, 46, 47, 48, 49, 50, 51, 52, 53, 54, 55, 56, 57, 58, 59, 60, 61, 62, 63, 64, 65, 66, 67, 68, 69, 70, 71, 72, 73, 74, 75, 76, 77, 78, 79, 80, 81, 82, 83, 84, 85, 86, 87, 88, 89, 90, 91, 92, 93, 94, 95, 96, 97, 98, 99, 100, 101, 102, 103, 104, 105, 106, 107, 108, 109, 110, 111, 112, 113, 114, 115, 116, 117, 118, 119, 120, 121, 122, 123, 124, 125, 126, 127, 128, 129, 130, 131, 132, 133, 134, 135, 136, 137, 138, 139, 140, 141, 142, 143, 144, 145, 146, 147, 148, 149, 150, 151, 152, 153, 154, 155, 156, 157, 158, 159, 160, 161, 162, 163, 164, 165, 166, 167, 168, 169, 170, 171, 172, 173, 174, 175, 176, 177, 178, 179, 180, 181, 182, 183, 184, 185, 186, 187, 188, 189, 190, 191, 192, 193, 194, 195, 196, 197, 198, 199, 200],
      "AcquisitionTime": ["094228.525000", "094230.525000", "094232.525000", "094234.525000", "094236.525000", "094238.525000", "094240.525000", "094242.525000", "094244.525000", "094246.525000", "094248.525000", "094250.525000", "094252.525000", "094254.525000", "094256.525000", "094258.525000", "094300.525000", "094302.525000", "094304.525000", "094306.525000", "094308.525000", "094310.525000", "094312.525000", "094314.525000", "094316.525000", "094318.525000", "094320.525000", "094322.525000", "094324.525000", "094326.525000", "094328.525000", "094330.525000", "094332.525000", "094334.525000", "094336.525000", "094338.525000", "094340.525000", "094342.525000", "094344.525000", "094346.525000", "094348.525000", "094350.525000", "094352.525000", "094354.525000", "094356.525000", "094358.525000", "094400.525000", "094402.525000", "094404.525000", "094406.525000", "094408.525000", "094410.525000", "094412.525000", "094414.525000", "094416.525000", "094418.525000", "094420.525000", "094422.525000", "094424.525000", "094426.525000", "094428.525000", "094430.525000", "094432.525000", "094434.525000", "094436.525000", "094438.525000", "094440.525000", "094442.525000", "094444.525000", "094446.525000", "094448.525000", "094450.525000", "094452.525000", "094454.525000", "094456.525000", "094458.525000", "094500.525000", "094502.525000", "094504.525000", "094506.525000", "094508.525000", "094510.525000", "094512.525000", "094514.525000", "094516.525000", "094518.525000", "094520.525000", "094522.525000", "094524.525000", "094526.525000", "094528.525000", "094530.525000", "094532.525000", "094534.525000", "094536.525000", "094538.525000", "094540.525000", "094542.525000", "094544.525000", "094546.525000", "094548.525000", "094550.525000", "094552.525000", "094554.525000", "094556.525000", "094558.525000", "094600.525000", "094602.525000", "094604.525000", "094606.525000", "094608.525000", "094610.525000", "094612.525000", "094614.525000", "094616.525000", "094618.525000", "094620.525000", "094622.525000", "094624.525000", "094626.525000", "094628.525000", "094630.525000", "094632.525000", "094634.525000", "094636.525000", "094638.525000", "094640.525000", "094642.525000", "094644.525000", "094646.525000", "094648.525000", "094650.525000", "094652.525000", "094654.525000", "094656.525000", "094658.525000", "094700.525000", "094702.525000", "094704.525000", "094706.525000", "094708.525000", "094710.525000", "094712.525000", "094714.525000", "094716.525000", "094718.525000", "094720.525000", "094722.525000", "094724.525000", "094726.525000", "094728.525000", "094730.525000", "094732.525000", "094734.525000", "094736.525000", "094738.525000", "094740.525000", "094742.525000", "094744.525000", "094746.525000", "094748.525000", "094750.525000", "094752.525000", "094754.525000", "094756.525000", "094758.525000", "094800.525000", "094802.525000", "094804.525000", "094806.525000", "094808.525000", "094810.525000", "094812.525000", "094814.525000", "094816.525000", "094818.525000", "094820.525000", "094822.525000", "094824.525000", "094826.525000", "094828.525000", "094830.525000", "094832.525000", "094834.525000", "094836.525000", "094838.525000", "094840.525000", "094842.525000", "094844.525000", "094846.525000", "094848.525000", "094850.525000", "094852.525000", "094854.525000", "094856.525000", "094858.525000", "094900.525000", "094902.525000", "094904.525000", "094906.525000"],
      "ContentTime": ["094322.744000", "094322.748000", "094322.750000", "094322.753000", "094322.755000", "094322.758000", "094322.760000", "094322.763000", "094322.765000", "094322.768000", "094322.770000", "094322.772000", "094322.775000", "094322.777000", "094322.780000", "094322.782000", "094322.785000", "094322.787000", "094322.790000", "094322.792000", "094322.795000", "094322.797000", "094322.800000", "094322.802000", "094322.804000", "094322.807000", "094322.809000", "094342.740000", "094342.742000", "094342.745000", "094342.747000", "094342.750000", "094342.752000", "094342.755000", "094342.757000", "094342.760000", "094342.762000", "094422.740000", "094422.743000", "094422.746000", "094422.748000", "094422.750000", "094422.753000", "094422.755000", "094422.758000", "094422.760000", "094422.763000", "094422.765000", "094422.780000", "094422.783000", "094422.785000", "094422.788000", "094422.790000", "094422.793000", "094422.795000", "094422.797000", "094422.800000", "094502.740000", "094502.743000", "094502.746000", "094502.748000", "094502.751000", "094502.753000", "094502.762000", "094502.765000", "094502.767000", "094502.770000", "094502.772000", "094502.775000", "094502.777000", "094502.780000", "094502.782000", "094502.785000", "094502.787000", "094502.790000", "094502.805000", "094502.808000", "094542.739000", "094542.742000", "094542.745000", "094542.747000", "094542.750000", "094542.752000", "094542.755000", "094542.757000", "094542.760000", "094542.762000", "094542.765000", "094542.767000", "094542.770000", "094542.772000", "094542.775000", "094542.777000", "094542.780000", "094542.782000", "094542.785000", "094542.787000", "094622.739000", "094622.742000", "094622.745000", "094622.747000", "094622.750000", "094622.752000", "094622.755000", "094622.757000", "094622.760000", "094622.762000", "094622.764000", "094622.767000", "094622.769000", "094622.772000", "094622.774000", "094622.777000", "094622.779000", "094622.782000", "094622.784000", "094622.786000", "094702.740000", "094702.743000", "094702.746000", "094702.748000", "094702.751000", "094702.753000", "094702.756000", "094702.758000", "094702.760000", "094702.763000", "094702.765000", "094702.768000", "094702.771000", "094702.773000", "094702.775000", "094702.778000", "094702.780000", "094702.783000", "094702.785000", "094702.788000", "094742.740000", "094742.743000", "094742.746000", "094742.748000", "094742.751000", "094742.753000", "094742.756000", "094742.758000", "094742.760000", "094742.763000", "094742.765000", "094742.768000", "094742.770000", "094742.773000", "094742.775000", "094742.778000", "094742.780000", "094742.783000", "094742.785000", "094742.788000", "094822.739000", "094822.742000", "094822.745000", "094822.747000", "094822.750000", "094822.752000", "094822.754000", "094822.757000", "094822.759000", "094822.762000", "094822.764000", "094822.767000", "094822.769000", "094822.772000", "094822.774000", "094822.777000", "094822.779000", "094822.782000", "094822.784000", "094822.787000", "094902.741000", "094902.743000", "094902.746000", "094902.748000", "094902.751000", "094902.753000", "094902.756000", "094902.758000", "094902.761000", "094902.763000", "094902.766000", "094902.768000", "094902.771000", "094902.773000", "094902.776000", "094902.778000", "094902.781000", "094902.783000", "094902.786000", "094902.788000", "094908.069000", "094908.072000", "094908.074000"],
      "InstanceCreationTime": ["094322.744000", "094322.748000", "094322.750000", "094322.753000", "094322.755000", "094322.758000", "094322.760000", "094322.763000", "094322.765000", "094322.768000", "094322.770000", "094322.772000", "094322.775000", "094322.777000", "094322.780000", "094322.782000", "094322.785000", "094322.787000", "094322.790000", "094322.792000", "094322.795000", "094322.797000", "094322.800000", "094322.802000", "094322.804000", "094322.807000", "094322.809000", "094342.740000", "094342.742000", "094342.745000", "094342.747000", "094342.750000", "094342.752000", "094342.755000", "094342.757000", "094342.760000", "094342.762000", "094422.740000", "094422.743000", "094422.746000", "094422.748000", "094422.750000", "094422.753000", "094422.755000", "094422.758000", "094422.760000", "094422.763000", "094422.765000", "094422.780000", "094422.783000", "094422.785000", "094422.788000", "094422.790000", "094422.793000", "094422.795000", "094422.797000", "094422.800000", "094502.740000", "094502.743000", "094502.746000", "094502.748000", "094502.751000", "094502.753000", "094502.762000", "094502.765000", "094502.767000", "094502.770000", "094502.772000", "094502.775000", "094502.777000", "094502.780000", "094502.782000", "094502.785000", "094502.787000", "094502.790000", "094502.805000", "094502.808000", "094542.739000", "094542.742000", "094542.745000", "094542.747000", "094542.750000", "094542.752000", "094542.755000", "094542.757000", "094542.760000", "094542.762000", "094542.765000", "094542.767000", "094542.770000", "094542.772000", "094542.775000", "094542.777000", "094542.780000", "094542.782000", "094542.785000", "094542.787000", "094622.739000", "094622.742000", "094622.745000", "094622.747000", "094622.750000", "094622.752000", "094622.755000", "094622.757000", "094622.760000", "094622.762000", "094622.764000", "094622.767000", "094622.769000", "094622.772000", "094622.774000", "094622.777000", "094622.779000", "094622.782000", "094622.784000", "094622.786000", "094702.740000", "094702.743000", "094702.746000", "094702.748000", "094702.751000", "094702.753000", "094702.756000", "094702.758000", "094702.760000", "094702.763000", "094702.765000", "094702.768000", "094702.771000", "094702.773000", "094702.775000", "094702.778000", "094702.780000", "094702.783000", "094702.785000", "094702.788000", "094742.740000", "094742.743000", "094742.746000", "094742.748000", "094742.751000", "094742.753000", "094742.756000", "094742.758000", "094742.760000", "094742.763000", "094742.765000", "094742.768000", "094742.770000", "094742.773000", "094742.775000", "094742.778000", "094742.780000", "094742.783000", "094742.785000", "094742.788000", "094822.739000", "094822.742000", "094822.745000", "094822.747000", "094822.750000", "094822.752000", "094822.754000", "094822.757000", "094822.759000", "094822.762000", "094822.764000", "094822.767000", "094822.769000", "094822.772000", "094822.774000", "094822.777000", "094822.779000", "094822.782000", "094822.784000", "094822.787000", "094902.741000", "094902.743000", "094902.746000", "094902.748000", "094902.751000", "094902.753000", "094902.756000", "094902.758000", "094902.761000", "094902.763000", "094902.766000", "094902.768000", "094902.771000", "094902.773000", "094902.776000", "094902.778000", "094902.781000", "094902.783000", "094902.786000", "094902.788000", "094908.069000", "094908.072000", "094908.074000"],
      "InstanceNumber": [1, 2, 3, 4, 5, 6, 7, 8, 9, 10, 11, 12, 13, 14, 15, 16, 17, 18, 19, 20, 21, 22, 23, 24, 25, 26, 27, 28, 29, 30, 31, 32, 33, 34, 35, 36, 37, 38, 39, 40, 41, 42, 43, 44, 45, 46, 47, 48, 49, 50, 51, 52, 53, 54, 55, 56, 57, 58, 59, 60, 61, 62, 63, 64, 65, 66, 67, 68, 69, 70, 71, 72, 73, 74, 75, 76, 77, 78, 79, 80, 81, 82, 83, 84, 85, 86, 87, 88, 89, 90, 91, 92, 93, 94, 95, 96, 97, 98, 99, 100, 101, 102, 103, 104, 105, 106, 107, 108, 109, 110, 111, 112, 113, 114, 115, 116, 117, 118, 119, 120, 121, 122, 123, 124, 125, 126, 127, 128, 129, 130, 131, 132, 133, 134, 135, 136, 137, 138, 139, 140, 141, 142, 143, 144, 145, 146, 147, 148, 149, 150, 151, 152, 153, 154, 155, 156, 157, 158, 159, 160, 161, 162, 163, 164, 165, 166, 167, 168, 169, 170, 171, 172, 173, 174, 175, 176, 177, 178, 179, 180, 181, 182, 183, 184, 185, 186, 187, 188, 189, 190, 191, 192, 193, 194, 195, 196, 197, 198, 199, 200],
      "LargestImagePixelValue": [745, 741, 746, 741, 743, 740, 741, 742, 742, 740, 741, 740, 744, 741, 741, 740, 739, 741, 741, 740, 740, 743, 743, 743, 741, 741, 736, 741, 741, 741, 741, 742, 740, 743, 742, 739, 740, 742, 740, 741, 741, 741, 743, 740, 739, 742, 740, 743, 741, 740, 739, 742, 739, 738, 740, 742, 738, 739, 739, 743, 741, 739, 737, 738, 742, 738, 741, 738, 736, 742, 737, 739, 738, 739, 737, 740, 739, 737, 742, 735, 740, 736, 739, 740, 737, 739, 737, 741, 739, 739, 741, 738, 738, 741, 739, 742, 739, 738, 741, 737, 740, 738, 736, 739, 740, 739, 742, 742, 741, 739, 738, 736, 737, 739, 736, 737, 739, 737, 740, 736, 737, 735, 738, 738, 737, 738, 740, 737, 738, 740, 736, 736, 739, 737, 736, 737, 738, 740, 737, 740, 739, 739, 735, 737, 737, 739, 737, 739, 737, 737, 737, 735, 736, 739, 736, 740, 737, 738, 737, 737, 736, 735, 736, 735, 733, 736, 736, 736, 735, 735, 736, 737, 738, 736, 737, 735, 737, 736, 737, 741, 736, 739, 738, 738, 735, 736, 737, 737, 737, 736, 741, 737, 735, 736, 737, 734, 740, 735, 738, 737],
      "WindowCenter": [472.0, 473.0, 473.0, 472.0, 472.0, 472.0, 472.0, 472.0, 472.0, 472.0, 472.0, 472.0, 472.0, 472.0, 472.0, 472.0, 472.0, 472.0, 472.0, 472.0, 472.0, 472.0, 472.0, 472.0, 472.0, 472.0, 471.0, 471.0, 472.0, 471.0, 471.0, 471.0, 471.0, 471.0, 471.0, 471.0, 471.0, 472.0, 471.0, 471.0, 471.0, 471.0, 471.0, 471.0, 471.0, 471.0, 471.0, 471.0, 471.0, 471.0, 471.0, 471.0, 471.0, 471.0, 471.0, 471.0, 471.0, 471.0, 471.0, 471.0, 471.0, 471.0, 471.0, 471.0, 471.0, 471.0, 471.0, 471.0, 471.0, 472.0, 471.0, 471.0, 471.0, 471.0, 471.0, 471.0, 471.0, 471.0, 471.0, 471.0, 471.0, 471.0, 471.0, 471.0, 471.0, 471.0, 471.0, 471.0, 471.0, 471.0, 471.0, 471.0, 470.0, 471.0, 470.0, 471.0, 471.0, 471.0, 471.0, 471.0, 470.0, 471.0, 470.0, 471.0, 470.0, 470.0, 472.0, 473.0, 470.0, 470.0, 470.0, 471.0, 470.0, 470.0, 470.0, 470.0, 470.0, 470.0, 470.0, 470.0, 470.0, 470.0, 470.0, 470.0, 470.0, 470.0, 470.0, 470.0, 470.0, 470.0, 470.0, 470.0, 470.0, 470.0, 470.0, 470.0, 470.0, 470.0, 470.0, 470.0, 470.0, 470.0, 470.0, 471.0, 470.0, 470.0, 470.0, 470.0, 470.0, 470.0, 470.0, 470.0, 470.0, 470.0, 470.0, 470.0, 470.0, 470.0, 470.0, 470.0, 470.0, 470.0, 470.0, 470.0, 470.0, 470.0, 470.0, 470.0, 470.0, 470.0, 470.0, 470.0, 470.0, 470.0, 470.0, 470.0, 470.0, 470.0, 470.0, 472.0, 470.0, 470.0, 470.0, 470.0, 470.0, 470.0, 470.0, 469.0, 470.0, 470.0, 470.0, 470.0, 470.0, 471.0, 470.0, 469.0, 471.0, 470.0, 469.0, 469.0],
      "WindowWidth": [978.0, 980.0, 980.0, 978.0, 978.0, 978.0, 978.0, 978.0, 978.0, 978.0, 978.0, 978.0, 979.0, 978.0, 978.0, 978.0, 977.0, 977.0, 977.0, 977.0, 977.0, 977.0, 977.0, 978.0, 977.0, 978.0, 977.0, 977.0, 978.0, 976.0, 977.0, 976.0, 976.0, 977.0, 976.0, 976.0, 976.0, 977.0, 977.0, 976.0, 976.0, 977.0, 976.0, 976.0, 977.0, 976.0, 976.0, 976.0, 976.0, 976.0, 976.0, 976.0, 976.0, 976.0, 976.0, 976.0, 976.0, 976.0, 976.0, 976.0, 976.0, 976.0, 977.0, 976.0, 976.0, 976.0, 976.0, 976.0, 976.0, 978.0, 976.0, 976.0, 976.0, 976.0, 976.0, 976.0, 976.0, 976.0, 976.0, 976.0, 976.0, 976.0, 976.0, 976.0, 976.0, 976.0, 976.0, 976.0, 976.0, 976.0, 976.0, 976.0, 975.0, 976.0, 975.0, 976.0, 976.0, 976.0, 976.0, 976.0, 975.0, 976.0, 975.0, 975.0, 975.0, 975.0, 979.0, 980.0, 975.0, 975.0, 975.0, 975.0, 975.0, 975.0, 975.0, 975.0, 975.0, 975.0, 975.0, 975.0, 975.0, 975.0, 975.0, 975.0, 975.0, 975.0, 975.0, 975.0, 975.0, 975.0, 974.0, 975.0, 975.0, 974.0, 974.0, 975.0, 974.0, 974.0, 974.0, 974.0, 974.0, 974.0, 975.0, 976.0, 974.0, 974.0, 974.0, 974.0, 974.0, 974.0, 974.0, 974.0, 974.0, 974.0, 974.0, 974.0, 974.0, 974.0, 974.0, 974.0, 974.0, 974.0, 974.0, 974.0, 974.0, 974.0, 974.0, 974.0, 974.0, 974.0, 974.0, 974.0, 974.0, 974.0, 974.0, 974.0, 974.0, 974.0, 974.0, 977.0, 974.0, 974.0, 974.0, 974.0, 974.0, 974.0, 974.0, 973.0, 974.0, 974.0, 975.0, 974.0, 974.0, 976.0, 974.0, 973.0, 976.0, 974.0, 973.0, 973.0]
    },
    "slices": {}
  }
}