{
  "AcquisitionMatrixPE": 80,
  "AcquisitionNumber": 1,
  "AcquisitionTime": "08:42:55.152500",
  "BandwidthPerPixelPhaseEncode": 44.643,
  "BaseResolution": 80,
  "BodyPartExamined": "BRAIN",
  "CoilCombinationMethod": "Sum of Squares",
  "ConsistencyInfo": "N4_VE11C_LATEST_20160120",
  "ConversionSoftware": "dcm2niix",
  "ConversionSoftwareVersion": "v1.0.20220720",
  "DerivedVendorReportedEchoSpacing": 0.000559998,
  "DeviceSerialNumber": "66112",
  "DwellTime": 2.7e-06,
  "EchoTime": 0.035,
  "EchoTrainLength": 39,
  "EffectiveEchoSpacing": 0.000279999,
  "FlipAngle": 90,
  "HeudiconvVersion": "0.13.1",
  "ImageOrientationPatientDICOM": [0.999952, 0.00906297, 0.00375726, -0.00977363, 0.953571, 0.30101],
  "ImageOrientationText": "Tra>Cor(17.5)>Sag(0.0)",
  "ImageType": [
    "ORIGINAL",
    "PRIMARY",
    "M",
    "ND",
    "NORM",
    "MOSAIC"
],
  "ImagingFrequency": 123.252,
  "InPlanePhaseEncodingDirectionDICOM": "COL",
  "InstitutionAddress": "Maynard 3,Hanover,NH,US,03755",
  "InstitutionName": "Dartmouth College - PBS",
  "InstitutionalDepartmentName": "Department",
  "MRAcquisitionType": "2D",
  "MagneticFieldStrength": 3,
  "Manufacturer": "Siemens",
  "ManufacturersModelName": "Prisma",
  "Modality": "MR",
  "MultibandAccelerationFactor": 4,
  "NonlinearGradientCorrection": false,
  "ParallelReductionFactorInPlane": 2,
  "PartialFourier": 1,
  "PatientPosition": "HFS",
  "PercentPhaseFOV": 100,
  "PercentSampling": 100,
  "PhaseEncodingDirection": "j-",
  "PhaseEncodingSteps": 79,
  "PhaseResolution": 1,
  "PixelBandwidth": 2315,
  "ProcedureStepDescription": "dbic^QA",
  "ProtocolName": "func-bold_task-rest_acq-p2-s4-3.5mm",
  "PulseSequenceDetails": "%SiemensSeq%\\ep2d_bold",
  "ReceiveCoilActiveElements": "HEA;HEP",
  "ReceiveCoilName": "Head_32",
  "ReconMatrixPE": 80,
  "RefLinesPE": 24,
  "RepetitionTime": 2,
  "SAR": 0.017895,
  "ScanOptions": "FS",
  "ScanningSequence": "EP",
  "SequenceName": "*epfid2d1_80",
  "SequenceVariant": "SK",
  "SeriesDescription": "func-bold_task-rest_acq-p2-s4-3.5mm",
  "SeriesNumber": 7,
  "ShimSetting": [4146, -7701, -7525, 303, -52, -121, -50, 83],
  "SliceThickness": 3.5,
  "SliceTiming": [1.485, 0, 0.99, 0.2475, 1.2375, 0.7425, 1.7325, 0.495, 1.485, 0, 0.99, 0.2475, 1.2375, 0.7425, 1.7325, 0.495, 1.485, 0, 0.99, 0.2475, 1.2375, 0.7425, 1.7325, 0.495, 1.485, 0, 0.99, 0.2475, 1.2375, 0.7425, 1.7325, 0.495],
  "SoftwareVersions": "syngo MR E11",
  "SpacingBetweenSlices": 3.99,
  "StationName": "AWP66112",
  "TaskName": "rest",
  "TotalReadoutTime": 0.0221199,
  "TxRefAmp": 229.82,
  "dcmmeta_affine": [
    [-2.9998555183410645, -0.029320895671844482, 0.0034105326049029827, 123.02664947509766],
    [-0.027188919484615326, 2.8607125282287598, 1.201119065284729, -117.4967041015625],
    [0.01127178966999054, -0.9030303359031677, 3.804918050765991, -46.63611602783203],
    [0.0, 0.0, 0.0, 1.0]
],
  "dcmmeta_reorient_transform": [
    [0.0, -1.0, 0.0, 79.0],
    [1.0, 0.0, 0.0, 0.0],
    [0.0, 0.0, 1.0, 0.0],
    [0.0, 0.0, 0.0, 1.0]
],
  "dcmmeta_shape": [80, 80, 32, 200],
  "dcmmeta_slice_dim": 2,
  "dcmmeta_version": 0.6,
  "global": {
    "const": {
      "AccessionNumber": "qa",
      "AcquisitionMatrix": [80, 0, 0, 80],
      "AngioFlag": "N",
      "BitsAllocated": 16,
      "BitsStored": 12,
      "BodyPartExamined": "BRAIN",
      "Columns": 480,
      "EchoNumbers": 1,
      "EchoTime": 35.0,
      "EchoTrainLength": 39,
      "FlipAngle": 90.0,
      "HighBit": 11,
      "ImageOrientationPatient": [0.99995187158706, 0.00906297319515, 0.00375726315354, -0.0097736317546, 0.953570861229, 0.30101011401164],
      "ImagePositionPatient": [-714.81724190007, -686.07989321413, -300.83593868296],
      "ImageType": [
        "ORIGINAL",
        "PRIMARY",
        "M",
        "ND",
        "NORM",
        "MOSAIC"
],
      "ImagedNucleus": "1H",
      "ImagingFrequency": 123.252411,
      "InPlanePhaseEncodingDirection": "COL",
      "MRAcquisitionType": "2D",
      "MagneticFieldStrength": 3.0,
      "Manufacturer": "SIEMENS",
      "ManufacturerModelName": "Prisma",
      "Modality": "MR",
      "NumberOfAverages": 1.0,
      "NumberOfPhaseEncodingSteps": 79,
      "PercentPhaseFieldOfView": 100.0,
      "PercentSampling": 100.0,
      "PerformedProcedureStepStartTime": "082803.112000",
      "PhotometricInterpretation": "MONOCHROME2",
      "PixelBandwidth": 2315.0,
      "PixelRepresentation": 0,
      "PixelSpacing": [3.0, 3.0],
      "ProtocolName": "func-bold_task-rest_acq-p2-s4-3.5mm",
      "RepetitionTime": 2000.0,
      "Rows": 480,
      "SAR": 0.01789501268391,
      "SamplesPerPixel": 1,
      "ScanOptions": "FS",
      "ScanningSequence": "EP",
      "SequenceName": "*epfid2d1_80",
      "SequenceVariant": "SK",
      "SeriesDescription": "func-bold_task-rest_acq-p2-s4-3.5mm",
      "SeriesNumber": 7,
      "SeriesTime": "084342.374000",
      "SliceLocation": -79.737979890252,
      "SliceThickness": 3.5,
      "SmallestImagePixelValue": 0,
      "SoftwareVersions": "syngo MR E11",
      "SpacingBetweenSlices": 3.99000007272,
      "SpecificCharacterSet": "ISO_IR 100",
      "StudyID": "24",
      "StudyTime": "082803.027000",
      "TransmitCoilName": "Body",
      "VariableFlipAngleFlag": "N",
      "WindowCenterWidthExplanation": "Algo1",
      "dBdt": 0.0},
    "slices": {}
  },
  "time": {
    "samples": {
      "AcquisitionNumber": [1, 2, 3, 4, 5, 6, 7, 8, 9, 10, 11, 12, 13, 14, 15, 16, 17, 18, 19, 20, 21, 22, 23, 24, 25, 26, 27, 28, 29, 30, 31, 32, 33, 34, 35, 36, 37, 38, 39, 40, 41, 42, 43, 44, 45, 46, 47, 48, 49, 50, 51, 52, 53, 54, 55, 56, 57, 58, 59, 60, 61, 62, 63, 64, 65, 66, 67, 68, 69, 70, 71, 72, 73, 74, 75, 76, 77, 78, 79, 80, 81, 82, 83, 84, 85, 86, 87, 88, 89, 90, 91, 92, 93, 94, 95, 96, 97, 98, 99, 100, 101, 102, 103, 104, 105, 106, 107, 108, 109, 110, 111, 112, 113, 114, 115, 116, 117, 118, 119, 120, 121, 122, 123, 124, 125, 126, 127, 128, 129, 130, 131, 132, 133, 134, 135, 136, 137, 138, 139, 140, 141, 142, 143, 144, 145, 146, 147, 148, 149, 150, 151, 152, 153, 154, 155, 156, 157, 158, 159, 160, 161, 162, 163, 164, 165, 166, 167, 168, 169, 170, 171, 172, 173, 174, 175, 176, 177, 178, 179, 180, 181, 182, 183, 184, 185, 186, 187, 188, 189, 190, 191, 192, 193, 194, 195, 196, 197, 198, 199, 200],
      "AcquisitionTime": ["084255.152500", "084257.152500", "084259.152500", "084301.152500", "084303.152500", "084305.152500", "084307.152500", "084309.152500", "084311.152500", "084313.152500", "084315.152500", "084317.152500", "084319.152500", "084321.152500", "084323.152500", "084325.152500", "084327.152500", "084329.152500", "084331.152500", "084333.152500", "084335.152500", "084337.152500", "084339.152500", "084341.152500", "084343.152500", "084345.152500", "084347.152500", "084349.152500", "084351.152500", "084353.152500", "084355.152500", "084357.152500", "084359.152500", "084401.152500", "084403.152500", "084405.152500", "084407.152500", "084409.152500", "084411.152500", "084413.152500", "084415.152500", "084417.152500", "084419.152500", "084421.152500", "084423.152500", "084425.152500", "084427.152500", "084429.152500", "084431.152500", "084433.152500", "084435.152500", "084437.152500", "084439.152500", "084441.152500", "084443.152500", "084445.152500", "084447.152500", "084449.152500", "084451.152500", "084453.152500", "084455.152500", "084457.152500", "084459.152500", "084501.152500", "084503.152500", "084505.152500", "084507.152500", "084509.152500", "084511.152500", "084513.152500", "084515.152500", "084517.152500", "084519.152500", "084521.152500", "084523.152500", "084525.152500", "084527.152500", "084529.152500", "084531.152500", "084533.152500", "084535.152500", "084537.152500", "084539.152500", "084541.152500", "084543.152500", "084545.152500", "084547.152500", "084549.152500", "084551.152500", "084553.152500", "084555.152500", "084557.152500", "084559.152500", "084601.152500", "084603.152500", "084605.152500", "084607.152500", "084609.152500", "084611.152500", "084613.152500", "084615.152500", "084617.152500", "084619.152500", "084621.152500", "084623.152500", "084625.152500", "084627.152500", "084629.152500", "084631.152500", "084633.152500", "084635.152500", "084637.152500", "084639.152500", "084641.152500", "084643.152500", "084645.152500", "084647.152500", "084649.152500", "084651.152500", "084653.152500", "084655.152500", "084657.152500", "084659.152500", "084701.152500", "084703.152500", "084705.152500", "084707.152500", "084709.152500", "084711.152500", "084713.152500", "084715.152500", "084717.152500", "084719.152500", "084721.152500", "084723.152500", "084725.152500", "084727.152500", "084729.152500", "084731.152500", "084733.152500", "084735.152500", "084737.152500", "084739.152500", "084741.152500", "084743.152500", "084745.152500", "084747.152500", "084749.152500", "084751.152500", "084753.152500", "084755.152500", "084757.152500", "084759.152500", "084801.152500", "084803.152500", "084805.152500", "084807.152500", "084809.152500", "084811.152500", "084813.152500", "084815.152500", "084817.152500", "084819.152500", "084821.152500", "084823.152500", "084825.152500", "084827.152500", "084829.152500", "084831.152500", "084833.152500", "084835.152500", "084837.152500", "084839.152500", "084841.152500", "084843.152500", "084845.152500", "084847.152500", "084849.152500", "084851.152500", "084853.152500", "084855.152500", "084857.152500", "084859.152500", "084901.152500", "084903.152500", "084905.152500", "084907.152500", "084909.152500", "084911.152500", "084913.152500", "084915.152500", "084917.152500", "084919.152500", "084921.152500", "084923.152500", "084925.152500", "084927.152500", "084929.152500", "084931.152500", "084933.152500"],
      "ContentTime": ["084342.377000", "084342.381000", "084342.383000", "084342.386000", "084342.388000", "084342.391000", "084342.393000", "084342.400000", "084342.403000", "084342.405000", "084342.408000", "084342.416000", "084342.418000", "084342.421000", "084342.428000", "084342.431000", "084342.433000", "084342.436000", "084342.438000", "084342.449000", "084342.451000", "084342.454000", "084342.457000", "084342.459000", "084422.373000", "084422.376000", "084422.379000", "084422.382000", "084422.384000", "084422.387000", "084422.389000", "084422.392000", "084422.394000", "084422.397000", "084422.399000", "084422.402000", "084422.405000", "084422.407000", "084422.410000", "084422.412000", "084422.415000", "084422.417000", "084422.420000", "084422.423000", "084502.372000", "084502.375000", "084502.378000", "084502.380000", "084502.383000", "084502.385000", "084502.388000", "084502.391000", "084502.393000", "084502.396000", "084502.398000", "084502.401000", "084502.403000", "084502.406000", "084502.408000", "084502.411000", "084502.414000", "084502.416000", "084502.418000", "084502.428000", "084542.372000", "084542.375000", "084542.378000", "084542.381000", "084542.383000", "084542.386000", "084542.388000", "084542.391000", "084542.393000", "084542.396000", "084542.398000", "084542.401000", "084542.403000", "084542.406000", "084542.408000", "084542.411000", "084542.413000", "084542.416000", "084542.418000", "084542.421000", "084622.373000", "084622.376000", "084622.379000", "084622.382000", "084622.384000", "084622.387000", "084622.389000", "084622.392000", "084622.394000", "084622.397000", "084622.399000", "084622.402000", "084622.405000", "084622.407000", "084622.410000", "084622.412000", "084622.415000", "084622.417000", "084622.420000", "084622.422000", "084702.373000", "084702.376000", "084702.391000", "084702.394000", "084702.396000", "084702.399000", "084702.402000", "084702.412000", "084702.415000", "084702.417000", "084702.420000", "084702.422000", "084702.425000", "084702.427000", "084702.430000", "084702.433000", "084702.435000", "084702.438000", "084702.440000", "084702.443000", "084742.373000", "084742.375000", "084742.378000", "084742.381000", "084742.383000", "084742.386000", "084742.388000", "084742.391000", "084742.393000", "084742.396000", "084742.398000", "084742.401000", "084742.404000", "084742.406000", "084742.409000", "084742.411000", "084742.414000", "084742.416000", "084742.419000", "084742.421000", "084822.372000", "084822.375000", "084822.378000", "084822.380000", "084822.383000", "084822.385000", "084822.388000", "084822.391000", "084822.393000", "084822.403000", "084822.406000", "084822.409000", "084822.411000", "084822.414000", "084822.416000", "084822.419000", "084822.421000", "084822.424000", "084822.426000", "084822.429000", "084902.373000", "084902.376000", "084902.379000", "084902.388000", "084902.390000", "084902.393000", "084902.395000", "084902.398000", "084902.401000", "084902.403000", "084902.409000", "084902.412000", "084902.414000", "084902.417000", "084902.419000", "084902.422000", "084902.425000", "084902.427000", "084902.430000", "084902.433000", "084934.196000", "084934.199000", "084934.202000", "084934.205000", "084934.208000", "084934.210000", "084934.213000", "084934.215000", "084934.218000", "084934.221000", "084934.223000", "084934.226000", "084934.229000", "084934.233000", "084934.235000", "084934.238000"],
      "InstanceCreationTime": ["084342.377000", "084342.381000", "084342.383000", "084342.386000", "084342.388000", "084342.391000", "084342.393000", "084342.400000", "084342.403000", "084342.405000", "084342.408000", "084342.416000", "084342.418000", "084342.421000", "084342.428000", "084342.431000", "084342.433000", "084342.436000", "084342.438000", "084342.449000", "084342.451000", "084342.454000", "084342.457000", "084342.459000", "084422.373000", "084422.376000", "084422.379000", "084422.382000", "084422.384000", "084422.387000", "084422.389000", "084422.392000", "084422.394000", "084422.397000", "084422.399000", "084422.402000", "084422.405000", "084422.407000", "084422.410000", "084422.412000", "084422.415000", "084422.417000", "084422.420000", "084422.423000", "084502.372000", "084502.375000", "084502.378000", "084502.380000", "084502.383000", "084502.385000", "084502.388000", "084502.391000", "084502.393000", "084502.396000", "084502.398000", "084502.401000", "084502.403000", "084502.406000", "084502.408000", "084502.411000", "084502.414000", "084502.416000", "084502.418000", "084502.428000", "084542.372000", "084542.375000", "084542.378000", "084542.381000", "084542.383000", "084542.386000", "084542.388000", "084542.391000", "084542.393000", "084542.396000", "084542.398000", "084542.401000", "084542.403000", "084542.406000", "084542.408000", "084542.411000", "084542.413000", "084542.416000", "084542.418000", "084542.421000", "084622.373000", "084622.376000", "084622.379000", "084622.382000", "084622.384000", "084622.387000", "084622.389000", "084622.392000", "084622.394000", "084622.397000", "084622.399000", "084622.402000", "084622.405000", "084622.407000", "084622.410000", "084622.412000", "084622.415000", "084622.417000", "084622.420000", "084622.422000", "084702.373000", "084702.376000", "084702.391000", "084702.394000", "084702.396000", "084702.399000", "084702.402000", "084702.412000", "084702.415000", "084702.417000", "084702.420000", "084702.422000", "084702.425000", "084702.427000", "084702.430000", "084702.433000", "084702.435000", "084702.438000", "084702.440000", "084702.443000", "084742.373000", "084742.375000", "084742.378000", "084742.381000", "084742.383000", "084742.386000", "084742.388000", "084742.391000", "084742.393000", "084742.396000", "084742.398000", "084742.401000", "084742.404000", "084742.406000", "084742.409000", "084742.411000", "084742.414000", "084742.416000", "084742.419000", "084742.421000", "084822.372000", "084822.375000", "084822.378000", "084822.380000", "084822.383000", "084822.385000", "084822.388000", "084822.391000", "084822.393000", "084822.403000", "084822.406000", "084822.409000", "084822.411000", "084822.414000", "084822.416000", "084822.419000", "084822.421000", "084822.424000", "084822.426000", "084822.429000", "084902.373000", "084902.376000", "084902.379000", "084902.388000", "084902.390000", "084902.393000", "084902.395000", "084902.398000", "084902.401000", "084902.403000", "084902.409000", "084902.412000", "084902.414000", "084902.417000", "084902.419000", "084902.422000", "084902.425000", "084902.427000", "084902.430000", "084902.433000", "084934.196000", "084934.199000", "084934.202000", "084934.205000", "084934.208000", "084934.210000", "084934.213000", "084934.215000", "084934.218000", "084934.221000", "084934.223000", "084934.226000", "084934.229000", "084934.233000", "084934.235000", "084934.238000"],
      "InstanceNumber": [1, 2, 3, 4, 5, 6, 7, 8, 9, 10, 11, 12, 13, 14, 15, 16, 17, 18, 19, 20, 21, 22, 23, 24, 25, 26, 27, 28, 29, 30, 31, 32, 33, 34, 35, 36, 37, 38, 39, 40, 41, 42, 43, 44, 45, 46, 47, 48, 49, 50, 51, 52, 53, 54, 55, 56, 57, 58, 59, 60, 61, 62, 63, 64, 65, 66, 67, 68, 69, 70, 71, 72, 73, 74, 75, 76, 77, 78, 79, 80, 81, 82, 83, 84, 85, 86, 87, 88, 89, 90, 91, 92, 93, 94, 95, 96, 97, 98, 99, 100, 101, 102, 103, 104, 105, 106, 107, 108, 109, 110, 111, 112, 113, 114, 115, 116, 117, 118, 119, 120, 121, 122, 123, 124, 125, 126, 127, 128, 129, 130, 131, 132, 133, 134, 135, 136, 137, 138, 139, 140, 141, 142, 143, 144, 145, 146, 147, 148, 149, 150, 151, 152, 153, 154, 155, 156, 157, 158, 159, 160, 161, 162, 163, 164, 165, 166, 167, 168, 169, 170, 171, 172, 173, 174, 175, 176, 177, 178, 179, 180, 181, 182, 183, 184, 185, 186, 187, 188, 189, 190, 191, 192, 193, 194, 195, 196, 197, 198, 199, 200],
      "LargestImagePixelValue": [1902, 1897, 1901, 1898, 1899, 1896, 1901, 1904, 1903, 1896, 1891, 1898, 1896, 1896, 1896, 1896, 1896, 1897, 1896, 1903, 1898, 1898, 1900, 1901, 1897, 1898, 1899, 1901, 1902, 1900, 1898, 1894, 1900, 1898, 1898, 1899, 1898, 1900, 1898, 1900, 1895, 1894, 1897, 1903, 1903, 1900, 1899, 1904, 1896, 1898, 1901, 1900, 1894, 1897, 1895, 1901, 1894, 1894, 1898, 1897, 1902, 1904, 1899, 1898, 1896, 1896, 1898, 1897, 1895, 1895, 1896, 1900, 1901, 1903, 1899, 1899, 1895, 1901, 1898, 1896, 1895, 1903, 1900, 1898, 1898, 1896, 1897, 1898, 1897, 1898, 1901, 1901, 1898, 1897, 1900, 1893, 1899, 1897, 1899, 1899, 1894, 1898, 1901, 1901, 1899, 1899, 1892, 1896, 1897, 1896, 1898, 1898, 1902, 1904, 1904, 1897, 1901, 1898, 1896, 1897, 1898, 1899, 1901, 1895, 1897, 1902, 1899, 1898, 1899, 1895, 1896, 1898, 1895, 1898, 1901, 1896, 1895, 1895, 1894, 1898, 1897, 1896, 1893, 1893, 1890, 1895, 1896, 1895, 1901, 1898, 1898, 1898, 1902, 1899, 1893, 1900, 1903, 1899, 1897, 1896, 1896, 1896, 1897, 1894, 1899, 1896, 1896, 1897, 1901, 1898, 1895, 1898, 1896, 1899, 1899, 1896, 1897, 1895, 1896, 1898, 1898, 1896, 1898, 1895, 1897, 1898, 1897, 1901, 1894, 1896, 1896, 1897, 1895, 1896, 1901, 1901, 1896, 1898, 1898, 1895],
      "WindowCenter": [909.0, 909.0, 909.0, 909.0, 909.0, 909.0, 909.0, 909.0, 909.0, 909.0, 909.0, 909.0, 909.0, 908.0, 909.0, 909.0, 909.0, 909.0, 909.0, 909.0, 909.0, 909.0, 909.0, 909.0, 909.0, 909.0, 909.0, 909.0, 909.0, 909.0, 909.0, 909.0, 909.0, 909.0, 909.0, 909.0, 909.0, 909.0, 909.0, 909.0, 910.0, 910.0, 909.0, 909.0, 909.0, 909.0, 909.0, 910.0, 910.0, 910.0, 910.0, 909.0, 910.0, 909.0, 909.0, 909.0, 910.0, 909.0, 910.0, 910.0, 909.0, 910.0, 909.0, 909.0, 909.0, 909.0, 909.0, 909.0, 909.0, 909.0, 909.0, 909.0, 909.0, 909.0, 909.0, 910.0, 909.0, 909.0, 909.0, 909.0, 909.0, 909.0, 909.0, 909.0, 909.0, 909.0, 909.0, 909.0, 909.0, 909.0, 909.0, 909.0, 909.0, 909.0, 909.0, 909.0, 909.0, 909.0, 910.0, 909.0, 909.0, 909.0, 909.0, 909.0, 910.0, 909.0, 909.0, 909.0, 909.0, 909.0, 909.0, 909.0, 910.0, 910.0, 909.0, 909.0, 909.0, 909.0, 909.0, 909.0, 909.0, 909.0, 909.0, 909.0, 909.0, 909.0, 909.0, 909.0, 909.0, 909.0, 909.0, 909.0, 909.0, 909.0, 909.0, 909.0, 909.0, 909.0, 909.0, 909.0, 909.0, 909.0, 909.0, 909.0, 909.0, 909.0, 909.0, 909.0, 909.0, 909.0, 909.0, 909.0, 909.0, 909.0, 909.0, 909.0, 909.0, 909.0, 909.0, 909.0, 909.0, 910.0, 909.0, 909.0, 909.0, 909.0, 909.0, 909.0, 909.0, 909.0, 909.0, 909.0, 909.0, 909.0, 909.0, 909.0, 909.0, 909.0, 909.0, 909.0, 909.0, 909.0, 909.0, 909.0, 909.0, 909.0, 909.0, 909.0, 909.0, 909.0, 908.0, 909.0, 909.0, 909.0, 909.0, 909.0, 909.0, 909.0, 909.0, 909.0],
      "WindowWidth": [2056.0, 2056.0, 2056.0, 2056.0, 2056.0, 2056.0, 2055.0, 2056.0, 2057.0, 2055.0, 2055.0, 2057.0, 2056.0, 2055.0, 2055.0, 2056.0, 2056.0, 2055.0, 2055.0, 2055.0, 2056.0, 2057.0, 2056.0, 2055.0, 2055.0, 2056.0, 2055.0, 2056.0, 2055.0, 2056.0, 2055.0, 2056.0, 2055.0, 2057.0, 2055.0, 2055.0, 2056.0, 2055.0, 2057.0, 2055.0, 2057.0, 2056.0, 2056.0, 2056.0, 2056.0, 2056.0, 2055.0, 2056.0, 2056.0, 2056.0, 2056.0, 2056.0, 2056.0, 2056.0, 2056.0, 2056.0, 2056.0, 2056.0, 2056.0, 2057.0, 2056.0, 2057.0, 2056.0, 2055.0, 2056.0, 2057.0, 2056.0, 2055.0, 2055.0, 2056.0, 2055.0, 2055.0, 2056.0, 2056.0, 2056.0, 2057.0, 2056.0, 2055.0, 2056.0, 2056.0, 2055.0, 2056.0, 2056.0, 2056.0, 2056.0, 2056.0, 2056.0, 2055.0, 2055.0, 2056.0, 2056.0, 2056.0, 2055.0, 2055.0, 2056.0, 2056.0, 2056.0, 2056.0, 2056.0, 2055.0, 2056.0, 2056.0, 2056.0, 2056.0, 2056.0, 2056.0, 2056.0, 2056.0, 2055.0, 2056.0, 2056.0, 2055.0, 2056.0, 2056.0, 2056.0, 2056.0, 2056.0, 2056.0, 2056.0, 2056.0, 2055.0, 2056.0, 2055.0, 2056.0, 2055.0, 2055.0, 2055.0, 2056.0, 2056.0, 2055.0, 2056.0, 2056.0, 2056.0, 2055.0, 2055.0, 2056.0, 2056.0, 2056.0, 2055.0, 2056.0, 2055.0, 2056.0, 2056.0, 2055.0, 2056.0, 2055.0, 2056.0, 2056.0, 2056.0, 2056.0, 2056.0, 2056.0, 2056.0, 2056.0, 2056.0, 2056.0, 2055.0, 2056.0, 2055.0, 2056.0, 2056.0, 2056.0, 2055.0, 2055.0, 2056.0, 2056.0, 2056.0, 2055.0, 2055.0, 2056.0, 2056.0, 2055.0, 2056.0, 2055.0, 2055.0, 2056.0, 2056.0, 2055.0, 2056.0, 2055.0, 2055.0, 2055.0, 2056.0, 2055.0, 2056.0, 2056.0, 2056.0, 2055.0, 2056.0, 2056.0, 2054.0, 2056.0, 2055.0, 2056.0, 2056.0, 2056.0, 2056.0, 2055.0, 2055.0, 2055.0]
    },
    "slices": {}
  }
}