{
  "AcquisitionMatrixPE": 80,
  "AcquisitionNumber": 1,
  "AcquisitionTime": "08:50:48.445000",
  "BandwidthPerPixelPhaseEncode": 25,
  "BaseResolution": 80,
  "BodyPartExamined": "BRAIN",
  "CoilCombinationMethod": "Sum of Squares",
  "ConsistencyInfo": "N4_VE11E_LATEST_20181129",
  "ConversionSoftware": "dcm2niix",
  "ConversionSoftwareVersion": "v1.0.20220720",
  "DerivedVendorReportedEchoSpacing": 0.0005,
  "DeviceSerialNumber": "66112",
  "DwellTime": 2.7e-06,
  "EchoTime": 0.03,
  "EchoTrainLength": 80,
  "EffectiveEchoSpacing": 0.0005,
  "FlipAngle": 77,
  "HeudiconvVersion": "0.13.1",
  "ImageOrientationPatientDICOM": [0.995424, 0.095516, 0.00283541, -0.0918171, 0.947812, 0.305323],
  "ImageOrientationText": "Tra>Cor(17.7)>Sag(-1.5)",
  "ImageType": [
    "ORIGINAL",
    "PRIMARY",
    "M",
    "ND",
    "NORM",
    "MOSAIC"
],
  "ImagingFrequency": 123.259,
  "InPlanePhaseEncodingDirectionDICOM": "COL",
  "InstitutionAddress": "Maynard 3,Hanover,NH,US,03755",
  "InstitutionName": "Dartmouth College - PBS",
  "InstitutionalDepartmentName": "Department",
  "MRAcquisitionType": "2D",
  "MagneticFieldStrength": 3,
  "Manufacturer": "Siemens",
  "ManufacturersModelName": "Prisma",
  "MatrixCoilMode": "SENSE",
  "Modality": "MR",
  "NonlinearGradientCorrection": false,
  "PartialFourier": 1,
  "PatientPosition": "HFS",
  "PercentPhaseFOV": 100,
  "PercentSampling": 100,
  "PhaseEncodingDirection": "j-",
  "PhaseEncodingSteps": 80,
  "PhaseResolution": 1,
  "PixelBandwidth": 2315,
  "ProcedureStepDescription": "dbic^QA",
  "ProtocolName": "func-bold_fa-77",
  "PulseSequenceDetails": "%SiemensSeq%\\ep2d_bold",
  "ReceiveCoilActiveElements": "HC1-7;NC1,2",
  "ReceiveCoilName": "HeadNeck_64",
  "ReconMatrixPE": 80,
  "RepetitionTime": 2,
  "SAR": 0.0282577,
  "ScanOptions": "FS",
  "ScanningSequence": "EP",
  "SequenceName": "*epfid2d1_80",
  "SequenceVariant": "SK",
  "SeriesDescription": "func-bold_fa-77",
  "SeriesNumber": 6,
  "ShimSetting": [4216, -7741, -7497, -96, -151, -274, -61, 101],
  "SliceThickness": 3.5,
  "SliceTiming": [0.99, 0, 1.0575, 0.0675, 1.1225, 0.1325, 1.1875, 0.1975, 1.255, 0.265, 1.32, 0.33, 1.3875, 0.3975, 1.4525, 0.4625, 1.5175, 0.5275, 1.585, 0.595, 1.65, 0.66, 1.7175, 0.7275, 1.7825, 0.7925, 1.8475, 0.8575, 1.915, 0.925],
  "SoftwareVersions": "syngo MR E11",
  "SpacingBetweenSlices": 3.99,
  "StationName": "AWP66112",
  "TotalReadoutTime": 0.0395,
  "TxRefAmp": 214.144,
  "dcmmeta_affine": [
    [-2.986271619796753, -0.2754512429237366, -0.10563823580741882, 131.40655517578125],
    [-0.2865479290485382, 2.8434362411499023, 1.2137011289596558, -114.38616943359375],
    [0.008506233803927898, -0.9159678220748901, 3.7994565963745117, -26.63710594177246],
    [0.0, 0.0, 0.0, 1.0]
],
  "dcmmeta_reorient_transform": [
    [0.0, -1.0, 0.0, 79.0],
    [1.0, 0.0, 0.0, 0.0],
    [0.0, 0.0, 1.0, 0.0],
    [0.0, 0.0, 0.0, 1.0]
],
  "dcmmeta_shape": [80, 80, 30, 200],
  "dcmmeta_slice_dim": 2,
  "dcmmeta_version": 0.6,
  "global": {
    "const": {
      "AccessionNumber": "qa64",
      "AcquisitionMatrix": [80, 0, 0, 80],
      "AngioFlag": "N",
      "BitsAllocated": 16,
      "BitsStored": 12,
      "BodyPartExamined": "BRAIN",
      "Columns": 480,
      "EchoNumbers": 1,
      "EchoTime": 30.0,
      "EchoTrainLength": 80,
      "FlipAngle": 77.0,
      "HighBit": 11,
      "ImageOrientationPatient": [0.99542385903958, 0.09551597404314, 0.00283541131949, -0.0918170768902, 0.94781207813485, 0.30532259813685],
      "ImagePositionPatient": [-651.80997082553, -736.24212270853, -283.89336672311],
      "ImageType": [
        "ORIGINAL",
        "PRIMARY",
        "M",
        "ND",
        "NORM",
        "MOSAIC"
],
      "ImagedNucleus": "1H",
      "ImagingFrequency": 123.25914,
      "InPlanePhaseEncodingDirection": "COL",
      "MRAcquisitionType": "2D",
      "MagneticFieldStrength": 3.0,
      "Manufacturer": "SIEMENS",
      "ManufacturerModelName": "Prisma",
      "Modality": "MR",
      "NumberOfAverages": 1.0,
      "NumberOfPhaseEncodingSteps": 80,
      "PercentPhaseFieldOfView": 100.0,
      "PercentSampling": 100.0,
      "PerformedProcedureStepStartTime": "084000.678000",
      "PhotometricInterpretation": "MONOCHROME2",
      "PixelBandwidth": 2315.0,
      "PixelRepresentation": 0,
      "PixelSpacing": [3.0, 3.0],
      "ProtocolName": "func-bold_fa-77",
      "RepetitionTime": 2000.0,
      "Rows": 480,
      "SAR": 0.02825768072438,
      "SamplesPerPixel": 1,
      "ScanOptions": "FS",
      "ScanningSequence": "EP",
      "SequenceName": "*epfid2d1_80",
      "SequenceVariant": "SK",
      "SeriesDescription": "func-bold_fa-77",
      "SeriesNumber": 6,
      "SeriesTime": "085132.047000",
      "SliceLocation": -63.638772365743,
      "SliceThickness": 3.5,
      "SmallestImagePixelValue": 0,
      "SoftwareVersions": "syngo MR E11",
      "SpacingBetweenSlices": 3.9899999391945,
      "SpecificCharacterSet": "ISO_IR 100",
      "StudyID": "2",
      "StudyTime": "084000.613000",
      "TransmitCoilName": "Body",
      "VariableFlipAngleFlag": "N",
      "WindowCenterWidthExplanation": "Algo1"
    },
    "slices": {}
  },
  "time": {
    "samples": {
      "AcquisitionNumber": [1, 2, 3, 4, 5, 6, 7, 8, 9, 10, 11, 12, 13, 14, 15, 16, 17, 18, 19, 20, 21, 22, 23, 24, 25, 26, 27, 28, 29, 30, 31, 32, 33, 34, 35, 36, 37, 38, 39, 40, 41, 42, 43, 44, 45, 46, 47, 48, 49, 50, 51, 52, 53, 54, 55, 56, 57, 58, 59, 60, 61, 62, 63, 64, 65, 66, 67, 68, 69, 70, 71, 72, 73, 74, 75, 76, 77, 78, 79, 80, 81, 82, 83, 84, 85, 86, 87, 88, 89, 90, 91, 92, 93, 94, 95, 96, 97, 98, 99, 100, 101, 102, 103, 104, 105, 106, 107, 108, 109, 110, 111, 112, 113, 114, 115, 116, 117, 118, 119, 120, 121, 122, 123, 124, 125, 126, 127, 128, 129, 130, 131, 132, 133, 134, 135, 136, 137, 138, 139, 140, 141, 142, 143, 144, 145, 146, 147, 148, 149, 150, 151, 152, 153, 154, 155, 156, 157, 158, 159, 160, 161, 162, 163, 164, 165, 166, 167, 168, 169, 170, 171, 172, 173, 174, 175, 176, 177, 178, 179, 180, 181, 182, 183, 184, 185, 186, 187, 188, 189, 190, 191, 192, 193, 194, 195, 196, 197, 198, 199, 200],
      "AcquisitionTime": ["085048.445000", "085050.445000", "085052.445000", "085054.445000", "085056.445000", "085058.445000", "085100.445000", "085102.445000", "085104.445000", "085106.445000", "085108.445000", "085110.445000", "085112.445000", "085114.445000", "085116.445000", "085118.445000", "085120.445000", "085122.445000", "085124.445000", "085126.445000", "085128.445000", "085130.445000", "085132.445000", "085134.445000", "085136.445000", "085138.445000", "085140.445000", "085142.445000", "085144.445000", "085146.445000", "085148.445000", "085150.445000", "085152.445000", "085154.445000", "085156.445000", "085158.445000", "085200.445000", "085202.445000", "085204.445000", "085206.445000", "085208.445000", "085210.445000", "085212.445000", "085214.445000", "085216.445000", "085218.445000", "085220.445000", "085222.445000", "085224.445000", "085226.445000", "085228.445000", "085230.445000", "085232.445000", "085234.445000", "085236.445000", "085238.445000", "085240.445000", "085242.445000", "085244.445000", "085246.445000", "085248.445000", "085250.445000", "085252.445000", "085254.445000", "085256.445000", "085258.445000", "085300.445000", "085302.445000", "085304.445000", "085306.445000", "085308.445000", "085310.445000", "085312.445000", "085314.445000", "085316.445000", "085318.445000", "085320.445000", "085322.445000", "085324.445000", "085326.445000", "085328.445000", "085330.445000", "085332.445000", "085334.445000", "085336.445000", "085338.445000", "085340.445000", "085342.445000", "085344.445000", "085346.445000", "085348.445000", "085350.445000", "085352.445000", "085354.445000", "085356.445000", "085358.445000", "085400.445000", "085402.445000", "085404.445000", "085406.445000", "085408.445000", "085410.445000", "085412.445000", "085414.445000", "085416.445000", "085418.445000", "085420.445000", "085422.445000", "085424.445000", "085426.445000", "085428.445000", "085430.445000", "085432.445000", "085434.445000", "085436.445000", "085438.445000", "085440.445000", "085442.445000", "085444.445000", "085446.445000", "085448.445000", "085450.445000", "085452.445000", "085454.445000", "085456.445000", "085458.445000", "085500.445000", "085502.445000", "085504.445000", "085506.445000", "085508.445000", "085510.445000", "085512.445000", "085514.445000", "085516.445000", "085518.445000", "085520.445000", "085522.445000", "085524.445000", "085526.445000", "085528.445000", "085530.445000", "085532.445000", "085534.445000", "085536.445000", "085538.445000", "085540.445000", "085542.445000", "085544.445000", "085546.445000", "085548.445000", "085550.445000", "085552.445000", "085554.445000", "085556.445000", "085558.445000", "085600.445000", "085602.445000", "085604.445000", "085606.445000", "085608.445000", "085610.445000", "085612.445000", "085614.445000", "085616.445000", "085618.445000", "085620.445000", "085622.445000", "085624.445000", "085626.445000", "085628.445000", "085630.445000", "085632.445000", "085634.445000", "085636.445000", "085638.445000", "085640.445000", "085642.445000", "085644.445000", "085646.445000", "085648.445000", "085650.445000", "085652.445000", "085654.445000", "085656.445000", "085658.445000", "085700.445000", "085702.445000", "085704.445000", "085706.445000", "085708.445000", "085710.445000", "085712.445000", "085714.445000", "085716.445000", "085718.445000", "085720.445000", "085722.445000", "085724.445000", "085726.445000"],
      "ContentTime": ["085132.050000", "085132.053000", "085132.056000", "085132.058000", "085132.061000", "085132.064000", "085132.071000", "085132.073000", "085132.075000", "085132.077000", "085132.080000", "085132.082000", "085132.085000", "085132.091000", "085132.094000", "085132.096000", "085132.098000", "085132.101000", "085132.103000", "085132.106000", "085132.108000", "085212.046000", "085212.049000", "085212.051000", "085212.054000", "085212.056000", "085212.058000", "085212.061000", "085212.063000", "085212.065000", "085212.068000", "085212.070000", "085212.079000", "085212.081000", "085212.083000", "085212.086000", "085212.088000", "085212.090000", "085212.093000", "085212.095000", "085212.097000", "085252.046000", "085252.049000", "085252.051000", "085252.059000", "085252.061000", "085252.064000", "085252.066000", "085252.068000", "085252.071000", "085252.073000", "085252.075000", "085252.078000", "085252.080000", "085252.082000", "085252.085000", "085252.087000", "085252.089000", "085252.092000", "085252.094000", "085252.096000", "085332.046000", "085332.049000", "085332.051000", "085332.054000", "085332.056000", "085332.059000", "085332.061000", "085332.063000", "085332.066000", "085332.068000", "085332.070000", "085332.073000", "085332.075000", "085332.077000", "085332.080000", "085332.082000", "085332.085000", "085332.087000", "085332.089000", "085332.091000", "085412.045000", "085412.048000", "085412.050000", "085412.052000", "085412.055000", "085412.057000", "085412.059000", "085412.062000", "085412.064000", "085412.067000", "085412.069000", "085412.071000", "085412.074000", "085412.076000", "085412.078000", "085412.081000", "085412.083000", "085412.085000", "085412.088000", "085412.090000", "085432.046000", "085432.049000", "085432.051000", "085432.054000", "085432.056000", "085432.059000", "085432.061000", "085432.064000", "085432.066000", "085432.068000", "085512.046000", "085512.049000", "085512.051000", "085512.054000", "085512.056000", "085512.058000", "085512.061000", "085512.063000", "085512.065000", "085512.068000", "085512.070000", "085512.073000", "085512.075000", "085512.077000", "085512.080000", "085512.082000", "085512.084000", "085512.087000", "085512.089000", "085512.091000", "085552.046000", "085552.049000", "085552.051000", "085552.054000", "085552.056000", "085552.058000", "085552.061000", "085552.063000", "085552.065000", "085552.068000", "085552.070000", "085552.072000", "085552.075000", "085552.077000", "085552.079000", "085552.082000", "085552.084000", "085552.086000", "085552.089000", "085552.091000", "085632.045000", "085632.048000", "085632.050000", "085632.053000", "085632.055000", "085632.057000", "085632.060000", "085632.062000", "085632.064000", "085632.067000", "085632.069000", "085632.072000", "085632.074000", "085632.076000", "085632.079000", "085632.081000", "085632.083000", "085632.085000", "085632.088000", "085632.090000", "085712.046000", "085712.049000", "085712.051000", "085712.054000", "085712.056000", "085712.058000", "085712.061000", "085712.063000", "085712.065000", "085712.068000", "085712.070000", "085712.072000", "085712.075000", "085712.077000", "085712.079000", "085712.082000", "085712.084000", "085712.086000", "085712.089000", "085712.091000", "085728.411000", "085728.414000", "085728.416000", "085728.419000", "085728.421000", "085728.424000", "085728.426000", "085728.428000", "085728.431000"],
      "InstanceCreationTime": ["085132.050000", "085132.053000", "085132.056000", "085132.058000", "085132.061000", "085132.064000", "085132.071000", "085132.073000", "085132.075000", "085132.077000", "085132.080000", "085132.082000", "085132.085000", "085132.091000", "085132.094000", "085132.096000", "085132.098000", "085132.101000", "085132.103000", "085132.106000", "085132.108000", "085212.046000", "085212.049000", "085212.051000", "085212.054000", "085212.056000", "085212.058000", "085212.061000", "085212.063000", "085212.065000", "085212.068000", "085212.070000", "085212.079000", "085212.081000", "085212.083000", "085212.086000", "085212.088000", "085212.090000", "085212.093000", "085212.095000", "085212.097000", "085252.046000", "085252.049000", "085252.051000", "085252.059000", "085252.061000", "085252.064000", "085252.066000", "085252.068000", "085252.071000", "085252.073000", "085252.075000", "085252.078000", "085252.080000", "085252.082000", "085252.085000", "085252.087000", "085252.089000", "085252.092000", "085252.094000", "085252.096000", "085332.046000", "085332.049000", "085332.051000", "085332.054000", "085332.056000", "085332.059000", "085332.061000", "085332.063000", "085332.066000", "085332.068000", "085332.070000", "085332.073000", "085332.075000", "085332.077000", "085332.080000", "085332.082000", "085332.085000", "085332.087000", "085332.089000", "085332.091000", "085412.045000", "085412.048000", "085412.050000", "085412.052000", "085412.055000", "085412.057000", "085412.059000", "085412.062000", "085412.064000", "085412.067000", "085412.069000", "085412.071000", "085412.074000", "085412.076000", "085412.078000", "085412.081000", "085412.083000", "085412.085000", "085412.088000", "085412.090000", "085432.046000", "085432.049000", "085432.051000", "085432.054000", "085432.056000", "085432.059000", "085432.061000", "085432.064000", "085432.066000", "085432.068000", "085512.046000", "085512.049000", "085512.051000", "085512.054000", "085512.056000", "085512.058000", "085512.061000", "085512.063000", "085512.065000", "085512.068000", "085512.070000", "085512.073000", "085512.075000", "085512.077000", "085512.080000", "085512.082000", "085512.084000", "085512.087000", "085512.089000", "085512.091000", "085552.046000", "085552.049000", "085552.051000", "085552.054000", "085552.056000", "085552.058000", "085552.061000", "085552.063000", "085552.065000", "085552.068000", "085552.070000", "085552.072000", "085552.075000", "085552.077000", "085552.079000", "085552.082000", "085552.084000", "085552.086000", "085552.089000", "085552.091000", "085632.045000", "085632.048000", "085632.050000", "085632.053000", "085632.055000", "085632.057000", "085632.060000", "085632.062000", "085632.064000", "085632.067000", "085632.069000", "085632.072000", "085632.074000", "085632.076000", "085632.079000", "085632.081000", "085632.083000", "085632.085000", "085632.088000", "085632.090000", "085712.046000", "085712.049000", "085712.051000", "085712.054000", "085712.056000", "085712.058000", "085712.061000", "085712.063000", "085712.065000", "085712.068000", "085712.070000", "085712.072000", "085712.075000", "085712.077000", "085712.079000", "085712.082000", "085712.084000", "085712.086000", "085712.089000", "085712.091000", "085728.411000", "085728.414000", "085728.416000", "085728.419000", "085728.421000", "085728.424000", "085728.426000", "085728.428000", "085728.431000"],
      "InstanceNumber": [1, 2, 3, 4, 5, 6, 7, 8, 9, 10, 11, 12, 13, 14, 15, 16, 17, 18, 19, 20, 21, 22, 23, 24, 25, 26, 27, 28, 29, 30, 31, 32, 33, 34, 35, 36, 37, 38, 39, 40, 41, 42, 43, 44, 45, 46, 47, 48, 49, 50, 51, 52, 53, 54, 55, 56, 57, 58, 59, 60, 61, 62, 63, 64, 65, 66, 67, 68, 69, 70, 71, 72, 73, 74, 75, 76, 77, 78, 79, 80, 81, 82, 83, 84, 85, 86, 87, 88, 89, 90, 91, 92, 93, 94, 95, 96, 97, 98, 99, 100, 101, 102, 103, 104, 105, 106, 107, 108, 109, 110, 111, 112, 113, 114, 115, 116, 117, 118, 119, 120, 121, 122, 123, 124, 125, 126, 127, 128, 129, 130, 131, 132, 133, 134, 135, 136, 137, 138, 139, 140, 141, 142, 143, 144, 145, 146, 147, 148, 149, 150, 151, 152, 153, 154, 155, 156, 157, 158, 159, 160, 161, 162, 163, 164, 165, 166, 167, 168, 169, 170, 171, 172, 173, 174, 175, 176, 177, 178, 179, 180, 181, 182, 183, 184, 185, 186, 187, 188, 189, 190, 191, 192, 193, 194, 195, 196, 197, 198, 199, 200],
      "LargestImagePixelValue": [4081, 4082, 4083, 4078, 4083, 4083, 4082, 4085, 4081, 4084, 4075, 4083, 4081, 4081, 4077, 4079, 4080, 4077, 4080, 4078, 4077, 4079, 4081, 4077, 4078, 4080, 4079, 4078, 4079, 4079, 4074, 4076, 4075, 4077, 4077, 4082, 4078, 4078, 4080, 4079, 4076, 4077, 4072, 4077, 4077, 4078, 4076, 4075, 4081, 4076, 4079, 4068, 4076, 4076, 4078, 4075, 4079, 4075, 4078, 4075, 4072, 4078, 4072, 4074, 4076, 4075, 4070, 4074, 4075, 4075, 4068, 4073, 4070, 4074, 4075, 4077, 4076, 4073, 4073, 4070, 4071, 4069, 4071, 4073, 4074, 4070, 4072, 4072, 4071, 4069, 4071, 4070, 4074, 4069, 4072, 4071, 4071, 4077, 4070, 4072, 4071, 4076, 4070, 4068, 4073, 4071, 4073, 4070, 4067, 4071, 4071, 4069, 4067, 4069, 4067, 4065, 4069, 4067, 4067, 4069, 4069, 4068, 4071, 4066, 4071, 4068, 4072, 4064, 4069, 4070, 4068, 4070, 4068, 4069, 4068, 4066, 4067, 4069, 4070, 4067, 4069, 4065, 4073, 4069, 4069, 4067, 4067, 4067, 4063, 4068, 4069, 4068, 4067, 4067, 4070, 4065, 4068, 4064, 4064, 4065, 4064, 4063, 4066, 4066, 4067, 4067, 4066, 4065, 4067, 4067, 4066, 4067, 4067, 4065, 4068, 4067, 4063, 4063, 4065, 4068, 4062, 4067, 4064, 4068, 4064, 4065, 4065, 4067, 4063, 4067, 4060, 4064, 4061, 4064, 4066, 4061, 4065, 4066, 4062, 4066],
      "WindowCenter": [1433.0, 1433.0, 1433.0, 1432.0, 1433.0, 1433.0, 1433.0, 1433.0, 1433.0, 1433.0, 1433.0, 1432.0, 1432.0, 1432.0, 1433.0, 1432.0, 1432.0, 1432.0, 1432.0, 1432.0, 1433.0, 1432.0, 1431.0, 1431.0, 1432.0, 1432.0, 1432.0, 1432.0, 1432.0, 1432.0, 1432.0, 1431.0, 1431.0, 1431.0, 1431.0, 1432.0, 1431.0, 1431.0, 1431.0, 1432.0, 1432.0, 1430.0, 1431.0, 1431.0, 1431.0, 1431.0, 1431.0, 1431.0, 1430.0, 1431.0, 1431.0, 1431.0, 1431.0, 1430.0, 1431.0, 1430.0, 1430.0, 1430.0, 1430.0, 1431.0, 1430.0, 1430.0, 1431.0, 1430.0, 1430.0, 1429.0, 1429.0, 1430.0, 1430.0, 1430.0, 1430.0, 1429.0, 1430.0, 1430.0, 1430.0, 1430.0, 1429.0, 1429.0, 1429.0, 1429.0, 1430.0, 1429.0, 1430.0, 1429.0, 1430.0, 1430.0, 1429.0, 1429.0, 1430.0, 1429.0, 1429.0, 1428.0, 1429.0, 1429.0, 1428.0, 1428.0, 1429.0, 1429.0, 1429.0, 1429.0, 1428.0, 1429.0, 1429.0, 1429.0, 1428.0, 1429.0, 1428.0, 1428.0, 1429.0, 1429.0, 1428.0, 1429.0, 1428.0, 1429.0, 1427.0, 1428.0, 1427.0, 1428.0, 1428.0, 1428.0, 1429.0, 1428.0, 1427.0, 1428.0, 1428.0, 1428.0, 1427.0, 1427.0, 1427.0, 1428.0, 1427.0, 1428.0, 1428.0, 1427.0, 1428.0, 1428.0, 1428.0, 1428.0, 1427.0, 1427.0, 1428.0, 1427.0, 1427.0, 1427.0, 1427.0, 1428.0, 1427.0, 1427.0, 1427.0, 1427.0, 1427.0, 1427.0, 1426.0, 1426.0, 1426.0, 1426.0, 1426.0, 1426.0, 1426.0, 1427.0, 1426.0, 1427.0, 1427.0, 1426.0, 1426.0, 1426.0, 1426.0, 1426.0, 1426.0, 1426.0, 1426.0, 1426.0, 1426.0, 1426.0, 1426.0, 1426.0, 1425.0, 1426.0, 1425.0, 1426.0, 1425.0, 1425.0, 1425.0, 1425.0, 1426.0, 1426.0, 1426.0, 1426.0, 1426.0, 1426.0, 1426.0, 1425.0, 1425.0, 1426.0, 1426.0, 1425.0, 1425.0, 1425.0, 1425.0, 1425.0],
      "WindowWidth": [3378.0, 3377.0, 3377.0, 3377.0, 3377.0, 3377.0, 3377.0, 3377.0, 3377.0, 3377.0, 3377.0, 3377.0, 3377.0, 3377.0, 3376.0, 3377.0, 3377.0, 3377.0, 3377.0, 3377.0, 3376.0, 3377.0, 3376.0, 3376.0, 3376.0, 3376.0, 3376.0, 3376.0, 3376.0, 3376.0, 3376.0, 3376.0, 3376.0, 3376.0, 3376.0, 3375.0, 3376.0, 3376.0, 3376.0, 3375.0, 3375.0, 3376.0, 3375.0, 3375.0, 3375.0, 3375.0, 3375.0, 3375.0, 3375.0, 3375.0, 3375.0, 3375.0, 3375.0, 3375.0, 3375.0, 3375.0, 3375.0, 3375.0, 3375.0, 3374.0, 3375.0, 3375.0, 3374.0, 3374.0, 3374.0, 3375.0, 3375.0, 3374.0, 3374.0, 3374.0, 3374.0, 3375.0, 3374.0, 3374.0, 3374.0, 3374.0, 3374.0, 3374.0, 3374.0, 3374.0, 3374.0, 3374.0, 3374.0, 3374.0, 3373.0, 3373.0, 3374.0, 3373.0, 3373.0, 3374.0, 3373.0, 3374.0, 3374.0, 3373.0, 3374.0, 3374.0, 3373.0, 3373.0, 3373.0, 3373.0, 3373.0, 3373.0, 3373.0, 3373.0, 3373.0, 3373.0, 3373.0, 3373.0, 3373.0, 3373.0, 3373.0, 3373.0, 3373.0, 3372.0, 3373.0, 3372.0, 3373.0, 3372.0, 3372.0, 3372.0, 3372.0, 3372.0, 3373.0, 3372.0, 3372.0, 3372.0, 3372.0, 3372.0, 3372.0, 3372.0, 3372.0, 3372.0, 3372.0, 3372.0, 3372.0, 3372.0, 3372.0, 3372.0, 3372.0, 3372.0, 3372.0, 3372.0, 3371.0, 3371.0, 3371.0, 3371.0, 3371.0, 3371.0, 3371.0, 3371.0, 3371.0, 3371.0, 3371.0, 3371.0, 3371.0, 3371.0, 3371.0, 3371.0, 3371.0, 3371.0, 3371.0, 3371.0, 3371.0, 3371.0, 3371.0, 3371.0, 3371.0, 3370.0, 3371.0, 3370.0, 3371.0, 3371.0, 3370.0, 3370.0, 3370.0, 3370.0, 3370.0, 3370.0, 3370.0, 3370.0, 3370.0, 3370.0, 3370.0, 3370.0, 3370.0, 3370.0, 3370.0, 3370.0, 3370.0, 3370.0, 3370.0, 3370.0, 3370.0, 3369.0, 3369.0, 3370.0, 3370.0, 3370.0, 3370.0, 3370.0]
    },
    "slices": {}
  }
}