{
  "AcquisitionMatrixPE": 80,
  "AcquisitionNumber": 1,
  "AcquisitionTime": "09:58:26.525000",
  "BandwidthPerPixelPhaseEncode": 25,
  "BaseResolution": 80,
  "BodyPartExamined": "BRAIN",
  "CoilCombinationMethod": "Sum of Squares",
  "ConsistencyInfo": "N4_VE11C_LATEST_20160120",
  "ConversionSoftware": "dcm2niix",
  "ConversionSoftwareVersion": "v1.0.20220720",
  "DerivedVendorReportedEchoSpacing": 0.0005,
  "DeviceSerialNumber": "66112",
  "DwellTime": 2.7e-06,
  "EchoTime": 0.03,
  "EchoTrainLength": 80,
  "EffectiveEchoSpacing": 0.0005,
  "FlipAngle": 10,
  "HeudiconvVersion": "0.13.1",
  "ImageComments": "Reference volume for motion correction.",
  "ImageOrientationPatientDICOM": [0.986365, 0.164396, 0.00761768, -0.158697, 0.93787, 0.308569],
  "ImageOrientationText": "Tra>Cor(17.8)>Sag(-2.5)",
  "ImageType": [
    "ORIGINAL",
    "PRIMARY",
    "M",
    "ND",
    "NORM",
    "MOCO",
    "MOSAIC"
],
  "ImagingFrequency": 123.252,
  "InPlanePhaseEncodingDirectionDICOM": "COL",
  "InstitutionAddress": "Maynard 3,Hanover,NH,US,03755",
  "InstitutionName": "Dartmouth College - PBS",
  "InstitutionalDepartmentName": "Department",
  "MRAcquisitionType": "2D",
  "MagneticFieldStrength": 3,
  "Manufacturer": "Siemens",
  "ManufacturersModelName": "Prisma",
  "MatrixCoilMode": "SENSE",
  "Modality": "MR",
  "NonlinearGradientCorrection": false,
  "PartialFourier": 1,
  "PatientPosition": "HFS",
  "PercentPhaseFOV": 100,
  "PercentSampling": 100,
  "PhaseEncodingDirection": "j-",
  "PhaseEncodingSteps": 80,
  "PhaseResolution": 1,
  "PixelBandwidth": 2315,
  "ProcedureStepDescription": "dbic^QA",
  "ProtocolName": "func-bold_acq-32ch-10flip_MoCo",
  "PulseSequenceDetails": "%SiemensSeq%\\ep2d_bold",
  "ReceiveCoilActiveElements": "HEA;HEP",
  "ReceiveCoilName": "Head_32",
  "ReconMatrixPE": 80,
  "RepetitionTime": 2,
  "SAR": 0.0116718,
  "ScanOptions": "FS",
  "ScanningSequence": "EP",
  "SequenceName": "*epfid2d1_80",
  "SequenceVariant": "SK",
  "SeriesDescription": "MoCoSeries",
  "SeriesNumber": 11,
  "ShimSetting": [4146, -7684, -7501, 286, -43, -128, -78, 64],
  "SliceThickness": 3.5,
  "SliceTiming": [0.99, 0, 1.055, 0.065, 1.12, 0.13, 1.1875, 0.1975, 1.2525, 0.2625, 1.32, 0.33, 1.385, 0.395, 1.45, 0.46, 1.5175, 0.5275, 1.5825, 0.5925, 1.65, 0.66, 1.715, 0.725, 1.78, 0.79, 1.8475, 0.8575, 1.9125, 0.9225],
  "SoftwareVersions": "syngo MR E11",
  "SpacingBetweenSlices": 3.99,
  "StationName": "AWP66112",
  "TotalReadoutTime": 0.0395,
  "TxRefAmp": 239.084,
  "dcmmeta_affine": [
    [-2.959095001220703, -0.4760894775390625, -0.17389655113220215, 140.30307006835938],
    [-0.49318790435791016, 2.813610792160034, 1.2192264795303345, -97.90673828125],
    [0.022853052243590355, -0.9257069230079651, 3.7951741218566895, -20.15852928161621],
    [0.0, 0.0, 0.0, 1.0]
],
  "dcmmeta_reorient_transform": [
    [0.0, -1.0, 0.0, 79.0],
    [1.0, 0.0, 0.0, 0.0],
    [0.0, 0.0, 1.0, 0.0],
    [0.0, 0.0, 0.0, 1.0]
],
  "dcmmeta_shape": [80, 80, 30, 200],
  "dcmmeta_slice_dim": 2,
  "dcmmeta_version": 0.6,
  "global": {
    "const": {
      "AccessionNumber": "qa",
      "AcquisitionMatrix": [80, 0, 0, 80],
      "AngioFlag": "N",
      "BitsAllocated": 16,
      "BitsStored": 12,
      "BodyPartExamined": "BRAIN",
      "Columns": 480,
      "EchoNumbers": 1,
      "EchoTime": 30.0,
      "EchoTrainLength": 80,
      "FlipAngle": 10.0,
      "HighBit": 11,
      "ImageOrientationPatient": [0.98636501130574, 0.16439597125575, 0.00761768381532, -0.1586964970075, 0.93787025334378, 0.30856897078357],
      "ImagePositionPatient": [-599.29311378969, -785.72824552773, -283.00136854509],
      "ImageType": [
        "ORIGINAL",
        "PRIMARY",
        "M",
        "ND",
        "NORM",
        "MOCO",
        "MOSAIC"
],
      "ImagedNucleus": "1H",
      "ImagingFrequency": 123.252428,
      "InPlanePhaseEncodingDirection": "COL",
      "MRAcquisitionType": "2D",
      "MagneticFieldStrength": 3.0,
      "Manufacturer": "SIEMENS",
      "ManufacturerModelName": "Prisma",
      "Modality": "MR",
      "NumberOfAverages": 1.0,
      "NumberOfPhaseEncodingSteps": 80,
      "PercentPhaseFieldOfView": 100.0,
      "PercentSampling": 100.0,
      "PerformedProcedureStepStartTime": "092635.686000",
      "PhotometricInterpretation": "MONOCHROME2",
      "PixelBandwidth": 2315.0,
      "PixelRepresentation": 0,
      "PixelSpacing": [3.0, 3.0],
      "ProtocolName": "func-bold_acq-32ch-10flip",
      "RepetitionTime": 2000.0,
      "Rows": 480,
      "SAR": 0.01167182387006,
      "SamplesPerPixel": 1,
      "ScanOptions": "FS",
      "ScanningSequence": "EP",
      "SequenceName": "*epfid2d1_80",
      "SequenceVariant": "SK",
      "SeriesDescription": "MoCoSeries",
      "SeriesNumber": 11,
      "SeriesTime": "095913.811000",
      "SliceLocation": -55.2064755715,
      "SliceThickness": 3.5,
      "SmallestImagePixelValue": 0,
      "SoftwareVersions": "syngo MR E11",
      "SpacingBetweenSlices": 3.99000000765,
      "SpecificCharacterSet": "ISO_IR 100",
      "StudyID": "7",
      "StudyTime": "092635.558000",
      "TransmitCoilName": "Body",
      "VariableFlipAngleFlag": "N",
      "WindowCenterWidthExplanation": "Algo1",
      "dBdt": 0.0},
    "slices": {}
  },
  "time": {
    "samples": {
      "AcquisitionNumber": [1, 2, 3, 4, 5, 6, 7, 8, 9, 10, 11, 12, 13, 14, 15, 16, 17, 18, 19, 20, 21, 22, 23, 24, 25, 26, 27, 28, 29, 30, 31, 32, 33, 34, 35, 36, 37, 38, 39, 40, 41, 42, 43, 44, 45, 46, 47, 48, 49, 50, 51, 52, 53, 54, 55, 56, 57, 58, 59, 60, 61, 62, 63, 64, 65, 66, 67, 68, 69, 70, 71, 72, 73, 74, 75, 76, 77, 78, 79, 80, 81, 82, 83, 84, 85, 86, 87, 88, 89, 90, 91, 92, 93, 94, 95, 96, 97, 98, 99, 100, 101, 102, 103, 104, 105, 106, 107, 108, 109, 110, 111, 112, 113, 114, 115, 116, 117, 118, 119, 120, 121, 122, 123, 124, 125, 126, 127, 128, 129, 130, 131, 132, 133, 134, 135, 136, 137, 138, 139, 140, 141, 142, 143, 144, 145, 146, 147, 148, 149, 150, 151, 152, 153, 154, 155, 156, 157, 158, 159, 160, 161, 162, 163, 164, 165, 166, 167, 168, 169, 170, 171, 172, 173, 174, 175, 176, 177, 178, 179, 180, 181, 182, 183, 184, 185, 186, 187, 188, 189, 190, 191, 192, 193, 194, 195, 196, 197, 198, 199, 200],
      "AcquisitionTime": ["095826.525000", "095828.525000", "095830.525000", "095832.525000", "095834.525000", "095836.525000", "095838.525000", "095840.525000", "095842.525000", "095844.525000", "095846.525000", "095848.525000", "095850.525000", "095852.525000", "095854.525000", "095856.525000", "095858.525000", "095900.525000", "095902.525000", "095904.525000", "095906.525000", "095908.525000", "095910.525000", "095912.525000", "095914.525000", "095916.525000", "095918.525000", "095920.525000", "095922.525000", "095924.525000", "095926.525000", "095928.525000", "095930.525000", "095932.525000", "095934.525000", "095936.525000", "095938.525000", "095940.525000", "095942.525000", "095944.525000", "095946.525000", "095948.525000", "095950.525000", "095952.525000", "095954.525000", "095956.525000", "095958.525000", "100000.525000", "100002.525000", "100004.525000", "100006.525000", "100008.525000", "100010.525000", "100012.525000", "100014.525000", "100016.525000", "100018.525000", "100020.525000", "100022.525000", "100024.525000", "100026.525000", "100028.525000", "100030.525000", "100032.525000", "100034.525000", "100036.525000", "100038.525000", "100040.525000", "100042.525000", "100044.525000", "100046.525000", "100048.525000", "100050.525000", "100052.525000", "100054.525000", "100056.525000", "100058.525000", "100100.525000", "100102.525000", "100104.525000", "100106.525000", "100108.525000", "100110.525000", "100112.525000", "100114.525000", "100116.525000", "100118.525000", "100120.525000", "100122.525000", "100124.525000", "100126.525000", "100128.525000", "100130.525000", "100132.525000", "100134.525000", "100136.525000", "100138.525000", "100140.525000", "100142.525000", "100144.525000", "100146.525000", "100148.525000", "100150.525000", "100152.525000", "100154.525000", "100156.525000", "100158.525000", "100200.525000", "100202.525000", "100204.525000", "100206.525000", "100208.525000", "100210.525000", "100212.525000", "100214.525000", "100216.525000", "100218.525000", "100220.525000", "100222.525000", "100224.525000", "100226.525000", "100228.525000", "100230.525000", "100232.525000", "100234.525000", "100236.525000", "100238.525000", "100240.525000", "100242.525000", "100244.525000", "100246.525000", "100248.525000", "100250.525000", "100252.525000", "100254.525000", "100256.525000", "100258.525000", "100300.525000", "100302.525000", "100304.525000", "100306.525000", "100308.525000", "100310.525000", "100312.525000", "100314.525000", "100316.525000", "100318.525000", "100320.525000", "100322.525000", "100324.525000", "100326.525000", "100328.525000", "100330.525000", "100332.525000", "100334.525000", "100336.525000", "100338.525000", "100340.525000", "100342.525000", "100344.525000", "100346.525000", "100348.525000", "100350.525000", "100352.525000", "100354.525000", "100356.525000", "100358.525000", "100400.525000", "100402.525000", "100404.525000", "100406.525000", "100408.525000", "100410.525000", "100412.525000", "100414.525000", "100416.525000", "100418.525000", "100420.525000", "100422.525000", "100424.525000", "100426.525000", "100428.525000", "100430.525000", "100432.525000", "100434.525000", "100436.525000", "100438.525000", "100440.525000", "100442.525000", "100444.525000", "100446.525000", "100448.525000", "100450.525000", "100452.525000", "100454.525000", "100456.525000", "100458.525000", "100500.525000", "100502.525000", "100504.525000"],
      "ContentTime": ["095913.813000", "095913.816000", "095913.818000", "095913.821000", "095913.823000", "095913.826000", "095913.829000", "095913.831000", "095913.834000", "095913.837000", "095913.839000", "095913.843000", "095913.846000", "095913.848000", "095913.851000", "095913.854000", "095913.856000", "095913.859000", "095913.861000", "095913.864000", "095913.866000", "095913.869000", "095913.871000", "095953.775000", "095953.778000", "095953.781000", "095953.783000", "095953.786000", "095953.788000", "095953.791000", "095953.793000", "095953.796000", "095953.799000", "095953.801000", "095953.804000", "095953.806000", "095953.809000", "095953.811000", "095953.814000", "095953.816000", "095953.819000", "095953.821000", "095953.824000", "100033.785000", "100033.788000", "100033.790000", "100033.803000", "100033.806000", "100033.808000", "100033.811000", "100033.813000", "100033.816000", "100033.819000", "100033.821000", "100033.824000", "100033.826000", "100033.829000", "100033.832000", "100033.835000", "100033.837000", "100033.841000", "100033.844000", "100033.847000", "100113.777000", "100113.780000", "100113.782000", "100113.785000", "100113.787000", "100113.790000", "100113.801000", "100113.804000", "100113.807000", "100113.809000", "100113.812000", "100113.814000", "100113.817000", "100113.819000", "100113.822000", "100113.824000", "100113.827000", "100113.830000", "100113.833000", "100113.835000", "100153.776000", "100153.779000", "100153.781000", "100153.784000", "100153.787000", "100153.789000", "100153.792000", "100153.794000", "100153.797000", "100153.799000", "100153.802000", "100153.804000", "100153.807000", "100153.809000", "100153.812000", "100153.814000", "100153.817000", "100153.819000", "100153.822000", "100153.825000", "100233.780000", "100233.783000", "100233.785000", "100233.788000", "100233.790000", "100233.793000", "100233.796000", "100233.798000", "100233.801000", "100233.803000", "100233.806000", "100233.808000", "100233.811000", "100233.813000", "100233.816000", "100233.818000", "100233.821000", "100233.824000", "100233.827000", "100233.829000", "100313.778000", "100313.781000", "100313.783000", "100313.786000", "100313.788000", "100313.791000", "100313.794000", "100313.796000", "100313.799000", "100313.801000", "100313.804000", "100313.806000", "100313.809000", "100313.811000", "100313.814000", "100313.825000", "100313.827000", "100313.830000", "100313.833000", "100313.835000", "100353.787000", "100353.790000", "100353.793000", "100353.795000", "100353.798000", "100353.800000", "100353.803000", "100353.805000", "100353.808000", "100353.810000", "100353.813000", "100353.815000", "100353.818000", "100353.821000", "100353.823000", "100353.826000", "100353.828000", "100353.831000", "100353.834000", "100353.837000", "100433.787000", "100433.790000", "100433.792000", "100433.795000", "100433.798000", "100433.800000", "100433.803000", "100433.805000", "100433.808000", "100433.820000", "100433.823000", "100433.826000", "100433.828000", "100433.831000", "100433.833000", "100433.837000", "100433.840000", "100433.843000", "100433.845000", "100433.848000", "100506.134000", "100506.137000", "100506.139000", "100506.142000", "100506.144000", "100506.147000", "100506.150000", "100506.152000", "100506.155000", "100506.158000", "100506.160000", "100506.163000", "100506.165000", "100506.168000", "100506.170000", "100506.173000", "100506.176000"],
      "InstanceCreationTime": ["095913.813000", "095913.816000", "095913.818000", "095913.821000", "095913.823000", "095913.826000", "095913.829000", "095913.831000", "095913.834000", "095913.837000", "095913.839000", "095913.843000", "095913.846000", "095913.848000", "095913.851000", "095913.854000", "095913.856000", "095913.859000", "095913.861000", "095913.864000", "095913.866000", "095913.869000", "095913.871000", "095953.775000", "095953.778000", "095953.781000", "095953.783000", "095953.786000", "095953.788000", "095953.791000", "095953.793000", "095953.796000", "095953.799000", "095953.801000", "095953.804000", "095953.806000", "095953.809000", "095953.811000", "095953.814000", "095953.816000", "095953.819000", "095953.821000", "095953.824000", "100033.785000", "100033.788000", "100033.790000", "100033.803000", "100033.806000", "100033.808000", "100033.811000", "100033.813000", "100033.816000", "100033.819000", "100033.821000", "100033.824000", "100033.826000", "100033.829000", "100033.832000", "100033.835000", "100033.837000", "100033.841000", "100033.844000", "100033.847000", "100113.777000", "100113.780000", "100113.782000", "100113.785000", "100113.787000", "100113.790000", "100113.801000", "100113.804000", "100113.807000", "100113.809000", "100113.812000", "100113.814000", "100113.817000", "100113.819000", "100113.822000", "100113.824000", "100113.827000", "100113.830000", "100113.833000", "100113.835000", "100153.776000", "100153.779000", "100153.781000", "100153.784000", "100153.787000", "100153.789000", "100153.792000", "100153.794000", "100153.797000", "100153.799000", "100153.802000", "100153.804000", "100153.807000", "100153.809000", "100153.812000", "100153.814000", "100153.817000", "100153.819000", "100153.822000", "100153.825000", "100233.780000", "100233.783000", "100233.785000", "100233.788000", "100233.790000", "100233.793000", "100233.796000", "100233.798000", "100233.801000", "100233.803000", "100233.806000", "100233.808000", "100233.811000", "100233.813000", "100233.816000", "100233.818000", "100233.821000", "100233.824000", "100233.827000", "100233.829000", "100313.778000", "100313.781000", "100313.783000", "100313.786000", "100313.788000", "100313.791000", "100313.794000", "100313.796000", "100313.799000", "100313.801000", "100313.804000", "100313.806000", "100313.809000", "100313.811000", "100313.814000", "100313.825000", "100313.827000", "100313.830000", "100313.833000", "100313.835000", "100353.787000", "100353.790000", "100353.793000", "100353.795000", "100353.798000", "100353.800000", "100353.803000", "100353.805000", "100353.808000", "100353.810000", "100353.813000", "100353.815000", "100353.818000", "100353.821000", "100353.823000", "100353.826000", "100353.828000", "100353.831000", "100353.834000", "100353.837000", "100433.787000", "100433.790000", "100433.792000", "100433.795000", "100433.798000", "100433.800000", "100433.803000", "100433.805000", "100433.808000", "100433.820000", "100433.823000", "100433.826000", "100433.828000", "100433.831000", "100433.833000", "100433.837000", "100433.840000", "100433.843000", "100433.845000", "100433.848000", "100506.134000", "100506.137000", "100506.139000", "100506.142000", "100506.144000", "100506.147000", "100506.150000", "100506.152000", "100506.155000", "100506.158000", "100506.160000", "100506.163000", "100506.165000", "100506.168000", "100506.170000", "100506.173000", "100506.176000"],
      "InstanceNumber": [1, 2, 3, 4, 5, 6, 7, 8, 9, 10, 11, 12, 13, 14, 15, 16, 17, 18, 19, 20, 21, 22, 23, 24, 25, 26, 27, 28, 29, 30, 31, 32, 33, 34, 35, 36, 37, 38, 39, 40, 41, 42, 43, 44, 45, 46, 47, 48, 49, 50, 51, 52, 53, 54, 55, 56, 57, 58, 59, 60, 61, 62, 63, 64, 65, 66, 67, 68, 69, 70, 71, 72, 73, 74, 75, 76, 77, 78, 79, 80, 81, 82, 83, 84, 85, 86, 87, 88, 89, 90, 91, 92, 93, 94, 95, 96, 97, 98, 99, 100, 101, 102, 103, 104, 105, 106, 107, 108, 109, 110, 111, 112, 113, 114, 115, 116, 117, 118, 119, 120, 121, 122, 123, 124, 125, 126, 127, 128, 129, 130, 131, 132, 133, 134, 135, 136, 137, 138, 139, 140, 141, 142, 143, 144, 145, 146, 147, 148, 149, 150, 151, 152, 153, 154, 155, 156, 157, 158, 159, 160, 161, 162, 163, 164, 165, 166, 167, 168, 169, 170, 171, 172, 173, 174, 175, 176, 177, 178, 179, 180, 181, 182, 183, 184, 185, 186, 187, 188, 189, 190, 191, 192, 193, 194, 195, 196, 197, 198, 199, 200],
      "LargestImagePixelValue": [324, 323, 325, 325, 327, 324, 326, 324, 328, 325, 325, 324, 325, 326, 326, 326, 326, 326, 326, 325, 323, 326, 325, 323, 325, 325, 326, 324, 326, 326, 325, 325, 325, 325, 326, 327, 325, 325, 326, 325, 326, 324, 326, 326, 325, 325, 326, 325, 325, 324, 325, 325, 325, 326, 325, 326, 326, 323, 326, 324, 326, 324, 326, 326, 325, 325, 323, 324, 324, 324, 325, 326, 325, 325, 324, 325, 325, 325, 326, 325, 324, 325, 326, 326, 325, 326, 326, 326, 326, 326, 327, 326, 325, 327, 324, 325, 325, 325, 324, 323, 326, 325, 322, 324, 325, 326, 323, 326, 325, 326, 325, 324, 326, 323, 324, 324, 325, 326, 325, 324, 324, 326, 324, 324, 326, 325, 325, 325, 324, 326, 326, 324, 325, 325, 325, 325, 324, 325, 326, 325, 324, 325, 324, 325, 326, 326, 326, 325, 326, 325, 327, 326, 324, 324, 326, 324, 324, 325, 325, 324, 325, 324, 326, 323, 324, 324, 324, 325, 325, 324, 324, 324, 325, 325, 326, 323, 323, 325, 325, 325, 325, 326, 324, 324, 325, 325, 324, 324, 324, 325, 325, 325, 324, 323, 324, 326, 324, 325, 324, 323],
      "WindowCenter": [260.0, 259.0, 260.0, 260.0, 260.0, 260.0, 260.0, 260.0, 260.0, 260.0, 260.0, 260.0, 260.0, 260.0, 260.0, 260.0, 260.0, 260.0, 260.0, 260.0, 260.0, 260.0, 260.0, 260.0, 260.0, 259.0, 260.0, 260.0, 260.0, 260.0, 260.0, 259.0, 260.0, 260.0, 260.0, 260.0, 260.0, 260.0, 260.0, 260.0, 260.0, 260.0, 260.0, 259.0, 260.0, 260.0, 260.0, 260.0, 260.0, 260.0, 260.0, 260.0, 260.0, 260.0, 260.0, 260.0, 260.0, 260.0, 260.0, 260.0, 260.0, 260.0, 260.0, 260.0, 260.0, 260.0, 259.0, 260.0, 260.0, 260.0, 260.0, 260.0, 260.0, 260.0, 260.0, 260.0, 260.0, 260.0, 260.0, 260.0, 260.0, 260.0, 260.0, 260.0, 260.0, 259.0, 260.0, 260.0, 260.0, 260.0, 260.0, 260.0, 259.0, 259.0, 260.0, 260.0, 260.0, 260.0, 259.0, 260.0, 260.0, 260.0, 260.0, 259.0, 259.0, 260.0, 260.0, 260.0, 260.0, 260.0, 259.0, 259.0, 260.0, 260.0, 260.0, 260.0, 260.0, 259.0, 259.0, 260.0, 260.0, 259.0, 259.0, 259.0, 259.0, 260.0, 259.0, 260.0, 260.0, 259.0, 260.0, 260.0, 259.0, 260.0, 260.0, 259.0, 259.0, 259.0, 260.0, 260.0, 259.0, 259.0, 259.0, 260.0, 259.0, 259.0, 259.0, 260.0, 259.0, 259.0, 259.0, 259.0, 259.0, 259.0, 259.0, 259.0, 259.0, 259.0, 260.0, 259.0, 259.0, 259.0, 259.0, 259.0, 259.0, 259.0, 259.0, 259.0, 259.0, 259.0, 259.0, 259.0, 259.0, 259.0, 259.0, 259.0, 259.0, 259.0, 259.0, 259.0, 259.0, 259.0, 259.0, 259.0, 259.0, 259.0, 259.0, 259.0, 259.0, 259.0, 259.0, 259.0, 259.0, 259.0, 259.0, 259.0, 259.0, 259.0, 259.0, 259.0],
      "WindowWidth": [574.0, 573.0, 574.0, 574.0, 574.0, 574.0, 574.0, 574.0, 574.0, 574.0, 574.0, 574.0, 574.0, 574.0, 574.0, 574.0, 573.0, 573.0, 574.0, 574.0, 574.0, 574.0, 573.0, 574.0, 573.0, 573.0, 574.0, 573.0, 574.0, 574.0, 574.0, 573.0, 574.0, 574.0, 574.0, 574.0, 574.0, 574.0, 574.0, 574.0, 573.0, 573.0, 574.0, 573.0, 574.0, 574.0, 574.0, 574.0, 574.0, 574.0, 573.0, 574.0, 573.0, 574.0, 574.0, 573.0, 574.0, 573.0, 573.0, 573.0, 574.0, 573.0, 574.0, 574.0, 574.0, 574.0, 573.0, 574.0, 573.0, 574.0, 573.0, 574.0, 573.0, 574.0, 574.0, 574.0, 574.0, 574.0, 574.0, 573.0, 574.0, 573.0, 573.0, 573.0, 573.0, 573.0, 574.0, 573.0, 573.0, 573.0, 573.0, 573.0, 572.0, 572.0, 573.0, 573.0, 574.0, 573.0, 573.0, 573.0, 573.0, 573.0, 573.0, 573.0, 573.0, 573.0, 573.0, 574.0, 573.0, 573.0, 572.0, 573.0, 573.0, 573.0, 573.0, 573.0, 574.0, 572.0, 573.0, 573.0, 574.0, 573.0, 573.0, 573.0, 573.0, 573.0, 572.0, 573.0, 573.0, 572.0, 573.0, 573.0, 572.0, 573.0, 573.0, 572.0, 572.0, 572.0, 573.0, 573.0, 572.0, 572.0, 572.0, 573.0, 572.0, 572.0, 573.0, 573.0, 572.0, 572.0, 572.0, 572.0, 572.0, 572.0, 573.0, 572.0, 572.0, 572.0, 573.0, 572.0, 572.0, 572.0, 572.0, 572.0, 573.0, 572.0, 572.0, 572.0, 572.0, 572.0, 572.0, 572.0, 572.0, 572.0, 572.0, 572.0, 572.0, 572.0, 572.0, 572.0, 572.0, 572.0, 572.0, 572.0, 572.0, 572.0, 572.0, 572.0, 572.0, 572.0, 572.0, 572.0, 572.0, 572.0, 572.0, 572.0, 572.0, 572.0, 572.0, 572.0]
    },
    "slices": {}
  }
}