{
  "AcquisitionMatrixPE": 80,
  "AcquisitionNumber": 1,
  "AcquisitionTime": "09:58:26.525000",
  "BandwidthPerPixelPhaseEncode": 25,
  "BaseResolution": 80,
  "BodyPartExamined": "BRAIN",
  "CoilCombinationMethod": "Sum of Squares",
  "ConsistencyInfo": "N4_VE11C_LATEST_20160120",
  "ConversionSoftware": "dcm2niix",
  "ConversionSoftwareVersion": "v1.0.20220720",
  "DerivedVendorReportedEchoSpacing": 0.0005,
  "DeviceSerialNumber": "66112",
  "DwellTime": 2.7e-06,
  "EchoTime": 0.03,
  "EchoTrainLength": 80,
  "EffectiveEchoSpacing": 0.0005,
  "FlipAngle": 10,
  "HeudiconvVersion": "0.13.1",
  "ImageOrientationPatientDICOM": [0.986365, 0.164396, 0.00761768, -0.158697, 0.93787, 0.308569],
  "ImageOrientationText": "Tra>Cor(17.8)>Sag(-2.5)",
  "ImageType": [
    "ORIGINAL",
    "PRIMARY",
    "M",
    "ND",
    "NORM",
    "MOSAIC"
],
  "ImagingFrequency": 123.252,
  "InPlanePhaseEncodingDirectionDICOM": "COL",
  "InstitutionAddress": "Maynard 3,Hanover,NH,US,03755",
  "InstitutionName": "Dartmouth College - PBS",
  "InstitutionalDepartmentName": "Department",
  "MRAcquisitionType": "2D",
  "MagneticFieldStrength": 3,
  "Manufacturer": "Siemens",
  "ManufacturersModelName": "Prisma",
  "MatrixCoilMode": "SENSE",
  "Modality": "MR",
  "NonlinearGradientCorrection": false,
  "PartialFourier": 1,
  "PatientPosition": "HFS",
  "PercentPhaseFOV": 100,
  "PercentSampling": 100,
  "PhaseEncodingDirection": "j-",
  "PhaseEncodingSteps": 80,
  "PhaseResolution": 1,
  "PixelBandwidth": 2315,
  "ProcedureStepDescription": "dbic^QA",
  "ProtocolName": "func-bold_acq-32ch-10flip",
  "PulseSequenceDetails": "%SiemensSeq%\\ep2d_bold",
  "ReceiveCoilActiveElements": "HEA;HEP",
  "ReceiveCoilName": "Head_32",
  "ReconMatrixPE": 80,
  "RepetitionTime": 2,
  "SAR": 0.0116718,
  "ScanOptions": "FS",
  "ScanningSequence": "EP",
  "SequenceName": "*epfid2d1_80",
  "SequenceVariant": "SK",
  "SeriesDescription": "func-bold_acq-32ch-10flip",
  "SeriesNumber": 10,
  "ShimSetting": [4146, -7684, -7501, 286, -43, -128, -78, 64],
  "SliceThickness": 3.5,
  "SliceTiming": [0.99, 0, 1.055, 0.065, 1.12, 0.13, 1.1875, 0.1975, 1.2525, 0.2625, 1.32, 0.33, 1.385, 0.395, 1.45, 0.46, 1.5175, 0.5275, 1.5825, 0.5925, 1.65, 0.66, 1.715, 0.725, 1.78, 0.79, 1.8475, 0.8575, 1.9125, 0.9225],
  "SoftwareVersions": "syngo MR E11",
  "SpacingBetweenSlices": 3.99,
  "StationName": "AWP66112",
  "TotalReadoutTime": 0.0395,
  "TxRefAmp": 239.084,
  "dcmmeta_affine": [
    [-2.959095001220703, -0.4760894775390625, -0.17389655113220215, 140.30307006835938],
    [-0.49318790435791016, 2.813610792160034, 1.2192264795303345, -97.90673828125],
    [0.022853052243590355, -0.9257069230079651, 3.7951741218566895, -20.15852928161621],
    [0.0, 0.0, 0.0, 1.0]
],
  "dcmmeta_reorient_transform": [
    [0.0, -1.0, 0.0, 79.0],
    [1.0, 0.0, 0.0, 0.0],
    [0.0, 0.0, 1.0, 0.0],
    [0.0, 0.0, 0.0, 1.0]
],
  "dcmmeta_shape": [80, 80, 30, 200],
  "dcmmeta_slice_dim": 2,
  "dcmmeta_version": 0.6,
  "global": {
    "const": {
      "AccessionNumber": "qa",
      "AcquisitionMatrix": [80, 0, 0, 80],
      "AngioFlag": "N",
      "BitsAllocated": 16,
      "BitsStored": 12,
      "BodyPartExamined": "BRAIN",
      "Columns": 480,
      "EchoNumbers": 1,
      "EchoTime": 30.0,
      "EchoTrainLength": 80,
      "FlipAngle": 10.0,
      "HighBit": 11,
      "ImageOrientationPatient": [0.98636501130574, 0.16439597125575, 0.00761768381532, -0.1586964970075, 0.93787025334378, 0.30856897078357],
      "ImagePositionPatient": [-599.29311378969, -785.72824552773, -283.00136854509],
      "ImageType": [
        "ORIGINAL",
        "PRIMARY",
        "M",
        "ND",
        "NORM",
        "MOSAIC"
],
      "ImagedNucleus": "1H",
      "ImagingFrequency": 123.252428,
      "InPlanePhaseEncodingDirection": "COL",
      "MRAcquisitionType": "2D",
      "MagneticFieldStrength": 3.0,
      "Manufacturer": "SIEMENS",
      "ManufacturerModelName": "Prisma",
      "Modality": "MR",
      "NumberOfAverages": 1.0,
      "NumberOfPhaseEncodingSteps": 80,
      "PercentPhaseFieldOfView": 100.0,
      "PercentSampling": 100.0,
      "PerformedProcedureStepStartTime": "092635.686000",
      "PhotometricInterpretation": "MONOCHROME2",
      "PixelBandwidth": 2315.0,
      "PixelRepresentation": 0,
      "PixelSpacing": [3.0, 3.0],
      "ProtocolName": "func-bold_acq-32ch-10flip",
      "RepetitionTime": 2000.0,
      "Rows": 480,
      "SAR": 0.01167182387006,
      "SamplesPerPixel": 1,
      "ScanOptions": "FS",
      "ScanningSequence": "EP",
      "SequenceName": "*epfid2d1_80",
      "SequenceVariant": "SK",
      "SeriesDescription": "func-bold_acq-32ch-10flip",
      "SeriesNumber": 10,
      "SeriesTime": "095913.703000",
      "SliceLocation": -55.2064755715,
      "SliceThickness": 3.5,
      "SmallestImagePixelValue": 0,
      "SoftwareVersions": "syngo MR E11",
      "SpacingBetweenSlices": 3.99000000765,
      "SpecificCharacterSet": "ISO_IR 100",
      "StudyID": "7",
      "StudyTime": "092635.558000",
      "TransmitCoilName": "Body",
      "VariableFlipAngleFlag": "N",
      "WindowCenterWidthExplanation": "Algo1",
      "dBdt": 0.0},
    "slices": {}
  },
  "time": {
    "samples": {
      "AcquisitionNumber": [1, 2, 3, 4, 5, 6, 7, 8, 9, 10, 11, 12, 13, 14, 15, 16, 17, 18, 19, 20, 21, 22, 23, 24, 25, 26, 27, 28, 29, 30, 31, 32, 33, 34, 35, 36, 37, 38, 39, 40, 41, 42, 43, 44, 45, 46, 47, 48, 49, 50, 51, 52, 53, 54, 55, 56, 57, 58, 59, 60, 61, 62, 63, 64, 65, 66, 67, 68, 69, 70, 71, 72, 73, 74, 75, 76, 77, 78, 79, 80, 81, 82, 83, 84, 85, 86, 87, 88, 89, 90, 91, 92, 93, 94, 95, 96, 97, 98, 99, 100, 101, 102, 103, 104, 105, 106, 107, 108, 109, 110, 111, 112, 113, 114, 115, 116, 117, 118, 119, 120, 121, 122, 123, 124, 125, 126, 127, 128, 129, 130, 131, 132, 133, 134, 135, 136, 137, 138, 139, 140, 141, 142, 143, 144, 145, 146, 147, 148, 149, 150, 151, 152, 153, 154, 155, 156, 157, 158, 159, 160, 161, 162, 163, 164, 165, 166, 167, 168, 169, 170, 171, 172, 173, 174, 175, 176, 177, 178, 179, 180, 181, 182, 183, 184, 185, 186, 187, 188, 189, 190, 191, 192, 193, 194, 195, 196, 197, 198, 199, 200],
      "AcquisitionTime": ["095826.525000", "095828.525000", "095830.525000", "095832.525000", "095834.525000", "095836.525000", "095838.525000", "095840.525000", "095842.525000", "095844.525000", "095846.525000", "095848.525000", "095850.525000", "095852.525000", "095854.525000", "095856.525000", "095858.525000", "095900.525000", "095902.525000", "095904.525000", "095906.525000", "095908.525000", "095910.525000", "095912.525000", "095914.525000", "095916.525000", "095918.525000", "095920.525000", "095922.525000", "095924.525000", "095926.525000", "095928.525000", "095930.525000", "095932.525000", "095934.525000", "095936.525000", "095938.525000", "095940.525000", "095942.525000", "095944.525000", "095946.525000", "095948.525000", "095950.525000", "095952.525000", "095954.525000", "095956.525000", "095958.525000", "100000.525000", "100002.525000", "100004.525000", "100006.525000", "100008.525000", "100010.525000", "100012.525000", "100014.525000", "100016.525000", "100018.525000", "100020.525000", "100022.525000", "100024.525000", "100026.525000", "100028.525000", "100030.525000", "100032.525000", "100034.525000", "100036.525000", "100038.525000", "100040.525000", "100042.525000", "100044.525000", "100046.525000", "100048.525000", "100050.525000", "100052.525000", "100054.525000", "100056.525000", "100058.525000", "100100.525000", "100102.525000", "100104.525000", "100106.525000", "100108.525000", "100110.525000", "100112.525000", "100114.525000", "100116.525000", "100118.525000", "100120.525000", "100122.525000", "100124.525000", "100126.525000", "100128.525000", "100130.525000", "100132.525000", "100134.525000", "100136.525000", "100138.525000", "100140.525000", "100142.525000", "100144.525000", "100146.525000", "100148.525000", "100150.525000", "100152.525000", "100154.525000", "100156.525000", "100158.525000", "100200.525000", "100202.525000", "100204.525000", "100206.525000", "100208.525000", "100210.525000", "100212.525000", "100214.525000", "100216.525000", "100218.525000", "100220.525000", "100222.525000", "100224.525000", "100226.525000", "100228.525000", "100230.525000", "100232.525000", "100234.525000", "100236.525000", "100238.525000", "100240.525000", "100242.525000", "100244.525000", "100246.525000", "100248.525000", "100250.525000", "100252.525000", "100254.525000", "100256.525000", "100258.525000", "100300.525000", "100302.525000", "100304.525000", "100306.525000", "100308.525000", "100310.525000", "100312.525000", "100314.525000", "100316.525000", "100318.525000", "100320.525000", "100322.525000", "100324.525000", "100326.525000", "100328.525000", "100330.525000", "100332.525000", "100334.525000", "100336.525000", "100338.525000", "100340.525000", "100342.525000", "100344.525000", "100346.525000", "100348.525000", "100350.525000", "100352.525000", "100354.525000", "100356.525000", "100358.525000", "100400.525000", "100402.525000", "100404.525000", "100406.525000", "100408.525000", "100410.525000", "100412.525000", "100414.525000", "100416.525000", "100418.525000", "100420.525000", "100422.525000", "100424.525000", "100426.525000", "100428.525000", "100430.525000", "100432.525000", "100434.525000", "100436.525000", "100438.525000", "100440.525000", "100442.525000", "100444.525000", "100446.525000", "100448.525000", "100450.525000", "100452.525000", "100454.525000", "100456.525000", "100458.525000", "100500.525000", "100502.525000", "100504.525000"],
      "ContentTime": ["095913.706000", "095913.710000", "095913.720000", "095913.722000", "095913.725000", "095913.727000", "095913.729000", "095913.732000", "095913.734000", "095913.737000", "095913.739000", "095913.742000", "095913.744000", "095913.747000", "095913.749000", "095913.761000", "095913.763000", "095913.766000", "095913.768000", "095913.771000", "095913.773000", "095913.776000", "095913.779000", "095953.701000", "095953.704000", "095953.707000", "095953.709000", "095953.712000", "095953.717000", "095953.720000", "095953.722000", "095953.725000", "095953.727000", "095953.729000", "095953.732000", "095953.735000", "095953.737000", "095953.739000", "095953.742000", "095953.744000", "095953.747000", "095953.749000", "095953.752000", "100033.701000", "100033.704000", "100033.707000", "100033.709000", "100033.712000", "100033.714000", "100033.717000", "100033.719000", "100033.722000", "100033.724000", "100033.727000", "100033.729000", "100033.732000", "100033.734000", "100033.737000", "100033.739000", "100033.742000", "100033.744000", "100033.747000", "100033.759000", "100113.701000", "100113.704000", "100113.707000", "100113.709000", "100113.712000", "100113.714000", "100113.717000", "100113.719000", "100113.721000", "100113.724000", "100113.726000", "100113.729000", "100113.731000", "100113.734000", "100113.736000", "100113.739000", "100113.741000", "100113.744000", "100113.746000", "100113.749000", "100153.701000", "100153.704000", "100153.707000", "100153.709000", "100153.712000", "100153.714000", "100153.716000", "100153.719000", "100153.721000", "100153.724000", "100153.726000", "100153.729000", "100153.731000", "100153.734000", "100153.736000", "100153.739000", "100153.741000", "100153.744000", "100153.746000", "100153.749000", "100233.701000", "100233.704000", "100233.706000", "100233.709000", "100233.711000", "100233.714000", "100233.716000", "100233.719000", "100233.721000", "100233.724000", "100233.726000", "100233.729000", "100233.731000", "100233.734000", "100233.736000", "100233.739000", "100233.741000", "100233.744000", "100233.746000", "100233.749000", "100313.701000", "100313.704000", "100313.707000", "100313.709000", "100313.712000", "100313.714000", "100313.717000", "100313.719000", "100313.722000", "100313.724000", "100313.727000", "100313.729000", "100313.731000", "100313.734000", "100313.736000", "100313.739000", "100313.741000", "100313.744000", "100313.746000", "100313.749000", "100353.702000", "100353.704000", "100353.717000", "100353.719000", "100353.722000", "100353.724000", "100353.727000", "100353.729000", "100353.732000", "100353.734000", "100353.736000", "100353.739000", "100353.742000", "100353.744000", "100353.746000", "100353.749000", "100353.751000", "100353.754000", "100353.756000", "100353.759000", "100433.701000", "100433.704000", "100433.707000", "100433.709000", "100433.712000", "100433.714000", "100433.717000", "100433.719000", "100433.722000", "100433.724000", "100433.727000", "100433.729000", "100433.732000", "100433.734000", "100433.737000", "100433.739000", "100433.742000", "100433.744000", "100433.747000", "100433.749000", "100506.058000", "100506.061000", "100506.064000", "100506.066000", "100506.069000", "100506.071000", "100506.079000", "100506.082000", "100506.084000", "100506.087000", "100506.090000", "100506.092000", "100506.095000", "100506.097000", "100506.100000", "100506.102000", "100506.105000"],
      "InstanceCreationTime": ["095913.706000", "095913.710000", "095913.720000", "095913.722000", "095913.725000", "095913.727000", "095913.729000", "095913.732000", "095913.734000", "095913.737000", "095913.739000", "095913.742000", "095913.744000", "095913.747000", "095913.749000", "095913.761000", "095913.763000", "095913.766000", "095913.768000", "095913.771000", "095913.773000", "095913.776000", "095913.779000", "095953.701000", "095953.704000", "095953.707000", "095953.709000", "095953.712000", "095953.717000", "095953.720000", "095953.722000", "095953.725000", "095953.727000", "095953.729000", "095953.732000", "095953.735000", "095953.737000", "095953.739000", "095953.742000", "095953.744000", "095953.747000", "095953.749000", "095953.752000", "100033.701000", "100033.704000", "100033.707000", "100033.709000", "100033.712000", "100033.714000", "100033.717000", "100033.719000", "100033.722000", "100033.724000", "100033.727000", "100033.729000", "100033.732000", "100033.734000", "100033.737000", "100033.739000", "100033.742000", "100033.744000", "100033.747000", "100033.759000", "100113.701000", "100113.704000", "100113.707000", "100113.709000", "100113.712000", "100113.714000", "100113.717000", "100113.719000", "100113.721000", "100113.724000", "100113.726000", "100113.729000", "100113.731000", "100113.734000", "100113.736000", "100113.739000", "100113.741000", "100113.744000", "100113.746000", "100113.749000", "100153.701000", "100153.704000", "100153.707000", "100153.709000", "100153.712000", "100153.714000", "100153.716000", "100153.719000", "100153.721000", "100153.724000", "100153.726000", "100153.729000", "100153.731000", "100153.734000", "100153.736000", "100153.739000", "100153.741000", "100153.744000", "100153.746000", "100153.749000", "100233.701000", "100233.704000", "100233.706000", "100233.709000", "100233.711000", "100233.714000", "100233.716000", "100233.719000", "100233.721000", "100233.724000", "100233.726000", "100233.729000", "100233.731000", "100233.734000", "100233.736000", "100233.739000", "100233.741000", "100233.744000", "100233.746000", "100233.749000", "100313.701000", "100313.704000", "100313.707000", "100313.709000", "100313.712000", "100313.714000", "100313.717000", "100313.719000", "100313.722000", "100313.724000", "100313.727000", "100313.729000", "100313.731000", "100313.734000", "100313.736000", "100313.739000", "100313.741000", "100313.744000", "100313.746000", "100313.749000", "100353.702000", "100353.704000", "100353.717000", "100353.719000", "100353.722000", "100353.724000", "100353.727000", "100353.729000", "100353.732000", "100353.734000", "100353.736000", "100353.739000", "100353.742000", "100353.744000", "100353.746000", "100353.749000", "100353.751000", "100353.754000", "100353.756000", "100353.759000", "100433.701000", "100433.704000", "100433.707000", "100433.709000", "100433.712000", "100433.714000", "100433.717000", "100433.719000", "100433.722000", "100433.724000", "100433.727000", "100433.729000", "100433.732000", "100433.734000", "100433.737000", "100433.739000", "100433.742000", "100433.744000", "100433.747000", "100433.749000", "100506.058000", "100506.061000", "100506.064000", "100506.066000", "100506.069000", "100506.071000", "100506.079000", "100506.082000", "100506.084000", "100506.087000", "100506.090000", "100506.092000", "100506.095000", "100506.097000", "100506.100000", "100506.102000", "100506.105000"],
      "InstanceNumber": [1, 2, 3, 4, 5, 6, 7, 8, 9, 10, 11, 12, 13, 14, 15, 16, 17, 18, 19, 20, 21, 22, 23, 24, 25, 26, 27, 28, 29, 30, 31, 32, 33, 34, 35, 36, 37, 38, 39, 40, 41, 42, 43, 44, 45, 46, 47, 48, 49, 50, 51, 52, 53, 54, 55, 56, 57, 58, 59, 60, 61, 62, 63, 64, 65, 66, 67, 68, 69, 70, 71, 72, 73, 74, 75, 76, 77, 78, 79, 80, 81, 82, 83, 84, 85, 86, 87, 88, 89, 90, 91, 92, 93, 94, 95, 96, 97, 98, 99, 100, 101, 102, 103, 104, 105, 106, 107, 108, 109, 110, 111, 112, 113, 114, 115, 116, 117, 118, 119, 120, 121, 122, 123, 124, 125, 126, 127, 128, 129, 130, 131, 132, 133, 134, 135, 136, 137, 138, 139, 140, 141, 142, 143, 144, 145, 146, 147, 148, 149, 150, 151, 152, 153, 154, 155, 156, 157, 158, 159, 160, 161, 162, 163, 164, 165, 166, 167, 168, 169, 170, 171, 172, 173, 174, 175, 176, 177, 178, 179, 180, 181, 182, 183, 184, 185, 186, 187, 188, 189, 190, 191, 192, 193, 194, 195, 196, 197, 198, 199, 200],
      "LargestImagePixelValue": [324, 324, 325, 325, 327, 324, 326, 324, 328, 325, 326, 324, 326, 327, 326, 326, 326, 326, 326, 326, 324, 326, 325, 324, 326, 326, 326, 324, 326, 326, 325, 326, 325, 325, 326, 327, 325, 325, 326, 325, 326, 324, 326, 326, 325, 326, 326, 325, 325, 324, 326, 325, 326, 327, 326, 326, 326, 323, 326, 324, 326, 324, 326, 326, 325, 325, 324, 324, 325, 324, 325, 326, 325, 325, 324, 325, 325, 325, 326, 325, 324, 325, 326, 326, 325, 326, 326, 326, 326, 326, 327, 326, 325, 327, 324, 325, 325, 325, 324, 323, 325, 325, 322, 324, 325, 326, 323, 326, 325, 326, 325, 324, 326, 323, 324, 324, 325, 326, 325, 324, 324, 326, 324, 324, 326, 325, 325, 326, 324, 326, 326, 324, 325, 325, 325, 325, 324, 325, 326, 325, 324, 325, 324, 325, 326, 326, 326, 325, 326, 325, 326, 326, 324, 324, 326, 324, 324, 325, 325, 324, 325, 324, 326, 323, 324, 324, 324, 325, 325, 324, 324, 324, 325, 325, 326, 323, 323, 325, 325, 325, 325, 326, 324, 324, 325, 325, 324, 324, 324, 325, 325, 325, 324, 323, 324, 325, 324, 325, 324, 323],
      "WindowCenter": [260.0, 259.0, 260.0, 260.0, 260.0, 260.0, 260.0, 260.0, 260.0, 260.0, 260.0, 260.0, 260.0, 260.0, 260.0, 260.0, 260.0, 260.0, 260.0, 260.0, 260.0, 260.0, 260.0, 260.0, 260.0, 259.0, 260.0, 260.0, 260.0, 260.0, 260.0, 259.0, 260.0, 260.0, 260.0, 260.0, 260.0, 260.0, 260.0, 260.0, 260.0, 260.0, 260.0, 259.0, 260.0, 260.0, 260.0, 260.0, 260.0, 260.0, 260.0, 260.0, 260.0, 260.0, 260.0, 260.0, 260.0, 260.0, 260.0, 260.0, 260.0, 260.0, 260.0, 260.0, 260.0, 260.0, 259.0, 260.0, 260.0, 260.0, 260.0, 260.0, 260.0, 260.0, 260.0, 260.0, 260.0, 260.0, 260.0, 260.0, 260.0, 260.0, 260.0, 260.0, 260.0, 259.0, 260.0, 260.0, 260.0, 260.0, 260.0, 260.0, 259.0, 259.0, 260.0, 260.0, 260.0, 260.0, 259.0, 260.0, 260.0, 260.0, 260.0, 259.0, 259.0, 260.0, 260.0, 260.0, 260.0, 260.0, 259.0, 259.0, 260.0, 260.0, 260.0, 259.0, 260.0, 259.0, 259.0, 260.0, 260.0, 259.0, 259.0, 259.0, 259.0, 260.0, 259.0, 260.0, 260.0, 259.0, 260.0, 260.0, 259.0, 260.0, 260.0, 259.0, 259.0, 259.0, 260.0, 260.0, 259.0, 259.0, 259.0, 260.0, 259.0, 259.0, 259.0, 260.0, 259.0, 259.0, 259.0, 259.0, 259.0, 259.0, 259.0, 259.0, 259.0, 259.0, 260.0, 259.0, 259.0, 259.0, 259.0, 259.0, 259.0, 259.0, 259.0, 259.0, 259.0, 259.0, 259.0, 259.0, 259.0, 259.0, 259.0, 259.0, 259.0, 259.0, 259.0, 259.0, 259.0, 259.0, 259.0, 259.0, 259.0, 259.0, 259.0, 259.0, 259.0, 259.0, 259.0, 259.0, 259.0, 259.0, 259.0, 259.0, 259.0, 259.0, 259.0, 259.0],
      "WindowWidth": [574.0, 573.0, 574.0, 574.0, 574.0, 574.0, 574.0, 574.0, 574.0, 574.0, 574.0, 574.0, 574.0, 574.0, 574.0, 574.0, 573.0, 573.0, 574.0, 574.0, 574.0, 574.0, 573.0, 574.0, 573.0, 573.0, 574.0, 573.0, 574.0, 574.0, 574.0, 573.0, 574.0, 574.0, 574.0, 574.0, 574.0, 574.0, 574.0, 574.0, 573.0, 573.0, 574.0, 573.0, 574.0, 574.0, 574.0, 574.0, 574.0, 574.0, 573.0, 574.0, 573.0, 574.0, 574.0, 573.0, 574.0, 573.0, 573.0, 573.0, 574.0, 573.0, 574.0, 574.0, 574.0, 574.0, 573.0, 574.0, 573.0, 574.0, 573.0, 573.0, 573.0, 574.0, 574.0, 574.0, 574.0, 574.0, 574.0, 573.0, 574.0, 573.0, 573.0, 573.0, 573.0, 573.0, 574.0, 573.0, 573.0, 573.0, 573.0, 573.0, 572.0, 572.0, 573.0, 573.0, 574.0, 573.0, 572.0, 573.0, 573.0, 573.0, 573.0, 573.0, 573.0, 573.0, 573.0, 574.0, 573.0, 573.0, 572.0, 573.0, 573.0, 573.0, 573.0, 572.0, 574.0, 572.0, 573.0, 573.0, 574.0, 573.0, 573.0, 573.0, 573.0, 573.0, 572.0, 573.0, 573.0, 572.0, 573.0, 573.0, 572.0, 573.0, 573.0, 572.0, 572.0, 572.0, 573.0, 573.0, 572.0, 572.0, 572.0, 573.0, 572.0, 572.0, 573.0, 573.0, 572.0, 572.0, 572.0, 572.0, 572.0, 572.0, 573.0, 572.0, 572.0, 572.0, 573.0, 572.0, 572.0, 572.0, 572.0, 572.0, 573.0, 572.0, 572.0, 572.0, 572.0, 572.0, 572.0, 572.0, 572.0, 572.0, 572.0, 572.0, 572.0, 572.0, 572.0, 572.0, 572.0, 572.0, 572.0, 572.0, 572.0, 572.0, 572.0, 572.0, 572.0, 572.0, 572.0, 572.0, 572.0, 572.0, 572.0, 572.0, 572.0, 572.0, 572.0, 572.0]
    },
    "slices": {}
  }
}