{
  "AcquisitionMatrixPE": 80,
  "AcquisitionNumber": 1,
  "AcquisitionTime": "09:36:32.205000",
  "BandwidthPerPixelPhaseEncode": 48.077,
  "BaseResolution": 80,
  "BodyPartExamined": "BRAIN",
  "CoilCombinationMethod": "Sum of Squares",
  "ConsistencyInfo": "N4_VE11C_LATEST_20160120",
  "ConversionSoftware": "dcm2niix",
  "ConversionSoftwareVersion": "v1.0.20220720",
  "DerivedVendorReportedEchoSpacing": 0.000519999,
  "DeviceSerialNumber": "66112",
  "DwellTime": 2.7e-06,
  "EchoTime": 0.035,
  "EchoTrainLength": 39,
  "EffectiveEchoSpacing": 0.00026,
  "FlipAngle": 90,
  "HeudiconvVersion": "0.13.1",
  "ImageComments": "Reference volume for motion correction.",
  "ImageOrientationPatientDICOM": [0.986365, 0.164396, 0.00761768, -0.158697, 0.93787, 0.308569],
  "ImageOrientationText": "Tra>Cor(17.8)>Sag(-2.5)",
  "ImageType": [
    "ORIGINAL",
    "PRIMARY",
    "M",
    "ND",
    "NORM",
    "MOCO",
    "MOSAIC"
],
  "ImagingFrequency": 123.252,
  "InPlanePhaseEncodingDirectionDICOM": "COL",
  "InstitutionAddress": "Maynard 3,Hanover,NH,US,03755",
  "InstitutionName": "Dartmouth College - PBS",
  "InstitutionalDepartmentName": "Department",
  "MRAcquisitionType": "2D",
  "MagneticFieldStrength": 3,
  "Manufacturer": "Siemens",
  "ManufacturersModelName": "Prisma",
  "MatrixCoilMode": "GRAPPA",
  "Modality": "MR",
  "NonlinearGradientCorrection": false,
  "ParallelReductionFactorInPlane": 2,
  "PartialFourier": 1,
  "PatientPosition": "HFS",
  "PercentPhaseFOV": 100,
  "PercentSampling": 100,
  "PhaseEncodingDirection": "j-",
  "PhaseEncodingSteps": 79,
  "PhaseResolution": 1,
  "PixelBandwidth": 2315,
  "ProcedureStepDescription": "dbic^QA",
  "ProtocolName": "func-bold_task-rest_acq-p2_MoCo",
  "PulseSequenceDetails": "%SiemensSeq%\\ep2d_bold",
  "ReceiveCoilActiveElements": "HEA;HEP",
  "ReceiveCoilName": "Head_32",
  "ReconMatrixPE": 80,
  "RefLinesPE": 24,
  "RepetitionTime": 2,
  "SAR": 0.0553683,
  "ScanOptions": "FS",
  "ScanningSequence": "EP",
  "SequenceName": "*epfid2d1_80",
  "SequenceVariant": "SK",
  "SeriesDescription": "MoCoSeries",
  "SeriesNumber": 6,
  "ShimSetting": [4146, -7684, -7501, 286, -43, -128, -78, 64],
  "SliceThickness": 3.5,
  "SliceTiming": [0.99, 0, 1.055, 0.065, 1.1225, 0.1325, 1.1875, 0.1975, 1.255, 0.265, 1.32, 0.33, 1.385, 0.395, 1.4525, 0.4625, 1.5175, 0.5275, 1.585, 0.595, 1.65, 0.66, 1.715, 0.725, 1.7825, 0.7925, 1.8475, 0.8575, 1.9125, 0.925],
  "SoftwareVersions": "syngo MR E11",
  "SpacingBetweenSlices": 3.99,
  "StationName": "AWP66112",
  "TaskName": "rest",
  "TotalReadoutTime": 0.02054,
  "TxRefAmp": 239.084,
  "dcmmeta_affine": [
    [-2.959095001220703, -0.4760894775390625, -0.17389655113220215, 140.81100463867188],
    [-0.49318790435791016, 2.813610792160034, 1.2192264795303345, -100.90764617919922],
    [0.022853052243590355, -0.9257069230079651, 3.7951741218566895, -19.173585891723633],
    [0.0, 0.0, 0.0, 1.0]
],
  "dcmmeta_reorient_transform": [
    [0.0, -1.0, 0.0, 79.0],
    [1.0, 0.0, 0.0, 0.0],
    [0.0, 0.0, 1.0, 0.0],
    [0.0, 0.0, 0.0, 1.0]
],
  "dcmmeta_shape": [80, 80, 30, 200],
  "dcmmeta_slice_dim": 2,
  "dcmmeta_version": 0.6,
  "global": {
    "const": {
      "AccessionNumber": "qa",
      "AcquisitionMatrix": [80, 0, 0, 80],
      "AngioFlag": "N",
      "BitsAllocated": 16,
      "BitsStored": 12,
      "BodyPartExamined": "BRAIN",
      "Columns": 480,
      "EchoNumbers": 1,
      "EchoTime": 35.0,
      "EchoTrainLength": 39,
      "FlipAngle": 90.0,
      "HighBit": 11,
      "ImageOrientationPatient": [0.98636501130574, 0.16439597125575, 0.00761768381532, -0.1586964970075, 0.93787025334378, 0.30856897078357],
      "ImagePositionPatient": [-599.80104168428, -782.72734096764, -282.0164251552],
      "ImageType": [
        "ORIGINAL",
        "PRIMARY",
        "M",
        "ND",
        "NORM",
        "MOCO",
        "MOSAIC"
],
      "ImagedNucleus": "1H",
      "ImagingFrequency": 123.252424,
      "InPlanePhaseEncodingDirection": "COL",
      "MRAcquisitionType": "2D",
      "MagneticFieldStrength": 3.0,
      "Manufacturer": "SIEMENS",
      "ManufacturerModelName": "Prisma",
      "Modality": "MR",
      "NumberOfAverages": 1.0,
      "NumberOfPhaseEncodingSteps": 79,
      "PercentPhaseFieldOfView": 100.0,
      "PercentSampling": 100.0,
      "PerformedProcedureStepStartTime": "092635.686000",
      "PhotometricInterpretation": "MONOCHROME2",
      "PixelBandwidth": 2315.0,
      "PixelRepresentation": 0,
      "PixelSpacing": [3.0, 3.0],
      "ProtocolName": "func-bold_task-rest_acq-p2",
      "RepetitionTime": 2000.0,
      "Rows": 480,
      "SAR": 0.05536825442596,
      "SamplesPerPixel": 1,
      "ScanOptions": "FS",
      "ScanningSequence": "EP",
      "SequenceName": "*epfid2d1_80",
      "SequenceVariant": "SK",
      "SeriesDescription": "MoCoSeries",
      "SeriesNumber": 6,
      "SeriesTime": "093713.836000",
      "SliceLocation": -55.208750607318,
      "SliceThickness": 3.5,
      "SmallestImagePixelValue": 0,
      "SoftwareVersions": "syngo MR E11",
      "SpacingBetweenSlices": 3.9900000128536,
      "SpecificCharacterSet": "ISO_IR 100",
      "StudyID": "7",
      "StudyTime": "092635.558000",
      "TransmitCoilName": "Body",
      "VariableFlipAngleFlag": "N",
      "WindowCenterWidthExplanation": "Algo1",
      "dBdt": 0.0},
    "slices": {}
  },
  "time": {
    "samples": {
      "AcquisitionNumber": [1, 2, 3, 4, 5, 6, 7, 8, 9, 10, 11, 12, 13, 14, 15, 16, 17, 18, 19, 20, 21, 22, 23, 24, 25, 26, 27, 28, 29, 30, 31, 32, 33, 34, 35, 36, 37, 38, 39, 40, 41, 42, 43, 44, 45, 46, 47, 48, 49, 50, 51, 52, 53, 54, 55, 56, 57, 58, 59, 60, 61, 62, 63, 64, 65, 66, 67, 68, 69, 70, 71, 72, 73, 74, 75, 76, 77, 78, 79, 80, 81, 82, 83, 84, 85, 86, 87, 88, 89, 90, 91, 92, 93, 94, 95, 96, 97, 98, 99, 100, 101, 102, 103, 104, 105, 106, 107, 108, 109, 110, 111, 112, 113, 114, 115, 116, 117, 118, 119, 120, 121, 122, 123, 124, 125, 126, 127, 128, 129, 130, 131, 132, 133, 134, 135, 136, 137, 138, 139, 140, 141, 142, 143, 144, 145, 146, 147, 148, 149, 150, 151, 152, 153, 154, 155, 156, 157, 158, 159, 160, 161, 162, 163, 164, 165, 166, 167, 168, 169, 170, 171, 172, 173, 174, 175, 176, 177, 178, 179, 180, 181, 182, 183, 184, 185, 186, 187, 188, 189, 190, 191, 192, 193, 194, 195, 196, 197, 198, 199, 200],
      "AcquisitionTime": ["093632.205000", "093634.205000", "093636.205000", "093638.205000", "093640.205000", "093642.205000", "093644.205000", "093646.205000", "093648.205000", "093650.205000", "093652.205000", "093654.205000", "093656.205000", "093658.205000", "093700.205000", "093702.205000", "093704.205000", "093706.205000", "093708.205000", "093710.205000", "093712.205000", "093714.205000", "093716.205000", "093718.205000", "093720.205000", "093722.205000", "093724.205000", "093726.205000", "093728.205000", "093730.205000", "093732.205000", "093734.205000", "093736.205000", "093738.205000", "093740.205000", "093742.205000", "093744.205000", "093746.205000", "093748.205000", "093750.205000", "093752.205000", "093754.205000", "093756.205000", "093758.205000", "093800.205000", "093802.205000", "093804.205000", "093806.205000", "093808.205000", "093810.205000", "093812.205000", "093814.205000", "093816.205000", "093818.205000", "093820.205000", "093822.205000", "093824.205000", "093826.205000", "093828.205000", "093830.205000", "093832.205000", "093834.205000", "093836.205000", "093838.205000", "093840.205000", "093842.205000", "093844.205000", "093846.205000", "093848.205000", "093850.205000", "093852.205000", "093854.205000", "093856.205000", "093858.205000", "093900.205000", "093902.205000", "093904.205000", "093906.205000", "093908.205000", "093910.205000", "093912.205000", "093914.205000", "093916.205000", "093918.205000", "093920.205000", "093922.205000", "093924.205000", "093926.205000", "093928.205000", "093930.205000", "093932.205000", "093934.205000", "093936.205000", "093938.205000", "093940.205000", "093942.205000", "093944.205000", "093946.205000", "093948.205000", "093950.205000", "093952.205000", "093954.205000", "093956.205000", "093958.205000", "094000.205000", "094002.205000", "094004.205000", "094006.205000", "094008.205000", "094010.205000", "094012.205000", "094014.205000", "094016.205000", "094018.205000", "094020.205000", "094022.205000", "094024.205000", "094026.205000", "094028.205000", "094030.205000", "094032.205000", "094034.205000", "094036.205000", "094038.205000", "094040.205000", "094042.205000", "094044.205000", "094046.205000", "094048.205000", "094050.205000", "094052.205000", "094054.205000", "094056.205000", "094058.205000", "094100.205000", "094102.205000", "094104.205000", "094106.205000", "094108.205000", "094110.205000", "094112.205000", "094114.205000", "094116.205000", "094118.205000", "094120.205000", "094122.205000", "094124.205000", "094126.205000", "094128.205000", "094130.205000", "094132.205000", "094134.205000", "094136.205000", "094138.205000", "094140.205000", "094142.205000", "094144.205000", "094146.205000", "094148.205000", "094150.205000", "094152.205000", "094154.205000", "094156.205000", "094158.205000", "094200.205000", "094202.205000", "094204.205000", "094206.205000", "094208.205000", "094210.205000", "094212.205000", "094214.205000", "094216.205000", "094218.205000", "094220.205000", "094222.205000", "094224.205000", "094226.205000", "094228.205000", "094230.205000", "094232.205000", "094234.205000", "094236.205000", "094238.205000", "094240.205000", "094242.205000", "094244.205000", "094246.205000", "094248.205000", "094250.205000", "094252.205000", "094254.205000", "094256.205000", "094258.205000", "094300.205000", "094302.205000", "094304.205000", "094306.205000", "094308.205000", "094310.205000"],
      "ContentTime": ["093713.838000", "093713.841000", "093713.844000", "093713.846000", "093713.849000", "093713.851000", "093713.854000", "093713.856000", "093713.859000", "093713.862000", "093713.864000", "093713.867000", "093713.869000", "093713.872000", "093713.874000", "093713.877000", "093713.879000", "093713.882000", "093713.884000", "093713.887000", "093713.890000", "093753.778000", "093753.791000", "093753.794000", "093753.796000", "093753.799000", "093753.802000", "093753.804000", "093753.807000", "093753.809000", "093753.812000", "093753.814000", "093753.817000", "093753.819000", "093753.822000", "093753.825000", "093753.827000", "093753.830000", "093753.832000", "093753.835000", "093753.837000", "093833.808000", "093833.811000", "093833.813000", "093833.816000", "093833.818000", "093833.821000", "093833.823000", "093833.826000", "093833.829000", "093833.831000", "093833.834000", "093833.836000", "093833.839000", "093833.841000", "093833.844000", "093833.847000", "093833.849000", "093833.852000", "093833.854000", "093833.857000", "093913.781000", "093913.783000", "093913.786000", "093913.788000", "093913.791000", "093913.794000", "093913.796000", "093913.799000", "093913.801000", "093913.804000", "093913.807000", "093913.809000", "093913.812000", "093913.814000", "093913.817000", "093913.819000", "093913.822000", "093913.825000", "093913.827000", "093913.830000", "093953.784000", "093953.787000", "093953.790000", "093953.792000", "093953.795000", "093953.798000", "093953.800000", "093953.803000", "093953.805000", "093953.808000", "093953.811000", "093953.813000", "093953.816000", "093953.818000", "093953.821000", "093953.824000", "093953.826000", "093953.829000", "093953.831000", "093953.834000", "094033.782000", "094033.785000", "094033.788000", "094033.790000", "094033.793000", "094033.796000", "094033.798000", "094033.801000", "094033.803000", "094033.806000", "094033.808000", "094033.811000", "094033.814000", "094033.816000", "094033.819000", "094033.821000", "094033.824000", "094033.826000", "094033.829000", "094033.832000", "094113.776000", "094113.778000", "094113.781000", "094113.784000", "094113.786000", "094113.789000", "094113.791000", "094113.794000", "094113.796000", "094113.799000", "094113.802000", "094113.804000", "094113.807000", "094113.809000", "094113.812000", "094113.815000", "094113.817000", "094113.820000", "094113.822000", "094113.825000", "094153.780000", "094153.782000", "094153.785000", "094153.788000", "094153.790000", "094153.793000", "094153.795000", "094153.798000", "094153.801000", "094153.803000", "094153.806000", "094153.808000", "094153.811000", "094153.813000", "094153.816000", "094153.819000", "094153.821000", "094153.824000", "094153.826000", "094153.829000", "094233.783000", "094233.786000", "094233.789000", "094233.791000", "094233.794000", "094233.796000", "094233.799000", "094233.802000", "094233.804000", "094233.807000", "094233.809000", "094233.812000", "094233.815000", "094233.817000", "094233.820000", "094233.822000", "094233.825000", "094233.827000", "094233.830000", "094233.922000", "094311.696000", "094311.699000", "094311.701000", "094311.704000", "094311.707000", "094311.709000", "094311.712000", "094311.714000", "094311.717000", "094311.720000", "094311.723000", "094311.726000", "094311.728000", "094311.731000", "094311.734000", "094311.736000", "094311.739000", "094311.742000", "094311.744000"],
      "InstanceCreationTime": ["093713.838000", "093713.841000", "093713.844000", "093713.846000", "093713.849000", "093713.851000", "093713.854000", "093713.856000", "093713.859000", "093713.862000", "093713.864000", "093713.867000", "093713.869000", "093713.872000", "093713.874000", "093713.877000", "093713.879000", "093713.882000", "093713.884000", "093713.887000", "093713.890000", "093753.778000", "093753.791000", "093753.794000", "093753.796000", "093753.799000", "093753.802000", "093753.804000", "093753.807000", "093753.809000", "093753.812000", "093753.814000", "093753.817000", "093753.819000", "093753.822000", "093753.825000", "093753.827000", "093753.830000", "093753.832000", "093753.835000", "093753.837000", "093833.808000", "093833.811000", "093833.813000", "093833.816000", "093833.818000", "093833.821000", "093833.823000", "093833.826000", "093833.829000", "093833.831000", "093833.834000", "093833.836000", "093833.839000", "093833.841000", "093833.844000", "093833.847000", "093833.849000", "093833.852000", "093833.854000", "093833.857000", "093913.781000", "093913.783000", "093913.786000", "093913.788000", "093913.791000", "093913.794000", "093913.796000", "093913.799000", "093913.801000", "093913.804000", "093913.807000", "093913.809000", "093913.812000", "093913.814000", "093913.817000", "093913.819000", "093913.822000", "093913.825000", "093913.827000", "093913.830000", "093953.784000", "093953.787000", "093953.790000", "093953.792000", "093953.795000", "093953.798000", "093953.800000", "093953.803000", "093953.805000", "093953.808000", "093953.811000", "093953.813000", "093953.816000", "093953.818000", "093953.821000", "093953.824000", "093953.826000", "093953.829000", "093953.831000", "093953.834000", "094033.782000", "094033.785000", "094033.788000", "094033.790000", "094033.793000", "094033.796000", "094033.798000", "094033.801000", "094033.803000", "094033.806000", "094033.808000", "094033.811000", "094033.814000", "094033.816000", "094033.819000", "094033.821000", "094033.824000", "094033.826000", "094033.829000", "094033.832000", "094113.776000", "094113.778000", "094113.781000", "094113.784000", "094113.786000", "094113.789000", "094113.791000", "094113.794000", "094113.796000", "094113.799000", "094113.802000", "094113.804000", "094113.807000", "094113.809000", "094113.812000", "094113.815000", "094113.817000", "094113.820000", "094113.822000", "094113.825000", "094153.780000", "094153.782000", "094153.785000", "094153.788000", "094153.790000", "094153.793000", "094153.795000", "094153.798000", "094153.801000", "094153.803000", "094153.806000", "094153.808000", "094153.811000", "094153.813000", "094153.816000", "094153.819000", "094153.821000", "094153.824000", "094153.826000", "094153.829000", "094233.783000", "094233.786000", "094233.789000", "094233.791000", "094233.794000", "094233.796000", "094233.799000", "094233.802000", "094233.804000", "094233.807000", "094233.809000", "094233.812000", "094233.815000", "094233.817000", "094233.820000", "094233.822000", "094233.825000", "094233.827000", "094233.830000", "094233.922000", "094311.696000", "094311.699000", "094311.701000", "094311.704000", "094311.707000", "094311.709000", "094311.712000", "094311.714000", "094311.717000", "094311.720000", "094311.723000", "094311.726000", "094311.728000", "094311.731000", "094311.734000", "094311.736000", "094311.739000", "094311.742000", "094311.744000"],
      "InstanceNumber": [1, 2, 3, 4, 5, 6, 7, 8, 9, 10, 11, 12, 13, 14, 15, 16, 17, 18, 19, 20, 21, 22, 23, 24, 25, 26, 27, 28, 29, 30, 31, 32, 33, 34, 35, 36, 37, 38, 39, 40, 41, 42, 43, 44, 45, 46, 47, 48, 49, 50, 51, 52, 53, 54, 55, 56, 57, 58, 59, 60, 61, 62, 63, 64, 65, 66, 67, 68, 69, 70, 71, 72, 73, 74, 75, 76, 77, 78, 79, 80, 81, 82, 83, 84, 85, 86, 87, 88, 89, 90, 91, 92, 93, 94, 95, 96, 97, 98, 99, 100, 101, 102, 103, 104, 105, 106, 107, 108, 109, 110, 111, 112, 113, 114, 115, 116, 117, 118, 119, 120, 121, 122, 123, 124, 125, 126, 127, 128, 129, 130, 131, 132, 133, 134, 135, 136, 137, 138, 139, 140, 141, 142, 143, 144, 145, 146, 147, 148, 149, 150, 151, 152, 153, 154, 155, 156, 157, 158, 159, 160, 161, 162, 163, 164, 165, 166, 167, 168, 169, 170, 171, 172, 173, 174, 175, 176, 177, 178, 179, 180, 181, 182, 183, 184, 185, 186, 187, 188, 189, 190, 191, 192, 193, 194, 195, 196, 197, 198, 199, 200],
      "LargestImagePixelValue": [1871, 1882, 1870, 1874, 1869, 1875, 1876, 1875, 1879, 1867, 1876, 1878, 1867, 1877, 1876, 1877, 1873, 1870, 1875, 1867, 1872, 1878, 1877, 1877, 1878, 1873, 1877, 1880, 1875, 1876, 1873, 1873, 1872, 1874, 1878, 1869, 1869, 1875, 1875, 1876, 1882, 1871, 1873, 1869, 1875, 1871, 1875, 1876, 1865, 1872, 1875, 1865, 1866, 1872, 1870, 1873, 1879, 1878, 1873, 1871, 1868, 1876, 1874, 1873, 1864, 1875, 1872, 1868, 1869, 1879, 1876, 1869, 1869, 1874, 1874, 1865, 1872, 1879, 1867, 1872, 1879, 1879, 1873, 1865, 1865, 1869, 1878, 1873, 1869, 1866, 1874, 1868, 1871, 1874, 1866, 1879, 1873, 1867, 1874, 1872, 1868, 1871, 1865, 1869, 1873, 1866, 1872, 1867, 1869, 1869, 1873, 1870, 1864, 1872, 1868, 1880, 1872, 1877, 1867, 1869, 1862, 1870, 1875, 1873, 1868, 1870, 1865, 1865, 1866, 1870, 1872, 1882, 1878, 1871, 1870, 1873, 1873, 1870, 1869, 1866, 1872, 1867, 1863, 1864, 1871, 1867, 1869, 1861, 1879, 1864, 1872, 1865, 1871, 1867, 1865, 1867, 1871, 1873, 1866, 1871, 1858, 1866, 1870, 1873, 1870, 1873, 1870, 1868, 1873, 1869, 1873, 1876, 1873, 1870, 1870, 1865, 1872, 1876, 1870, 1869, 1867, 1872, 1871, 1870, 1863, 1866, 1866, 1871, 1865, 1866, 1866, 1867, 1867, 1869, 1874, 1866, 1871, 1873, 1867, 1874],
      "WindowCenter": [944.0, 944.0, 944.0, 944.0, 944.0, 944.0, 944.0, 944.0, 944.0, 944.0, 944.0, 944.0, 944.0, 944.0, 944.0, 944.0, 944.0, 944.0, 944.0, 944.0, 944.0, 944.0, 944.0, 944.0, 944.0, 944.0, 943.0, 944.0, 944.0, 944.0, 943.0, 944.0, 944.0, 944.0, 944.0, 943.0, 944.0, 943.0, 945.0, 943.0, 944.0, 943.0, 943.0, 945.0, 943.0, 944.0, 943.0, 944.0, 945.0, 943.0, 943.0, 944.0, 943.0, 943.0, 943.0, 944.0, 944.0, 944.0, 944.0, 943.0, 944.0, 943.0, 943.0, 943.0, 943.0, 944.0, 944.0, 943.0, 943.0, 944.0, 944.0, 943.0, 944.0, 944.0, 943.0, 943.0, 944.0, 943.0, 944.0, 944.0, 943.0, 944.0, 944.0, 944.0, 944.0, 944.0, 944.0, 944.0, 944.0, 944.0, 944.0, 943.0, 943.0, 943.0, 943.0, 943.0, 944.0, 943.0, 943.0, 944.0, 943.0, 943.0, 944.0, 943.0, 943.0, 944.0, 944.0, 944.0, 943.0, 943.0, 943.0, 944.0, 943.0, 944.0, 944.0, 944.0, 943.0, 943.0, 943.0, 943.0, 943.0, 944.0, 943.0, 943.0, 943.0, 943.0, 943.0, 943.0, 943.0, 943.0, 943.0, 943.0, 943.0, 943.0, 943.0, 943.0, 943.0, 943.0, 943.0, 943.0, 943.0, 943.0, 943.0, 943.0, 943.0, 943.0, 943.0, 943.0, 943.0, 943.0, 943.0, 943.0, 943.0, 943.0, 943.0, 943.0, 943.0, 943.0, 943.0, 943.0, 943.0, 943.0, 943.0, 943.0, 943.0, 943.0, 943.0, 943.0, 943.0, 943.0, 943.0, 943.0, 943.0, 943.0, 943.0, 943.0, 943.0, 943.0, 943.0, 943.0, 943.0, 945.0, 943.0, 943.0, 943.0, 943.0, 943.0, 943.0, 943.0, 942.0, 942.0, 943.0, 943.0, 943.0, 942.0, 943.0, 943.0, 943.0, 943.0, 943.0],
      "WindowWidth": [2035.0, 2034.0, 2035.0, 2034.0, 2034.0, 2034.0, 2035.0, 2034.0, 2035.0, 2035.0, 2035.0, 2034.0, 2034.0, 2034.0, 2034.0, 2034.0, 2034.0, 2034.0, 2034.0, 2034.0, 2035.0, 2034.0, 2034.0, 2035.0, 2035.0, 2035.0, 2034.0, 2034.0, 2034.0, 2034.0, 2034.0, 2034.0, 2034.0, 2034.0, 2034.0, 2033.0, 2034.0, 2034.0, 2035.0, 2033.0, 2034.0, 2033.0, 2033.0, 2035.0, 2033.0, 2034.0, 2033.0, 2034.0, 2034.0, 2033.0, 2033.0, 2034.0, 2033.0, 2033.0, 2033.0, 2034.0, 2034.0, 2034.0, 2033.0, 2033.0, 2034.0, 2032.0, 2032.0, 2033.0, 2033.0, 2034.0, 2033.0, 2032.0, 2033.0, 2033.0, 2033.0, 2032.0, 2033.0, 2034.0, 2033.0, 2032.0, 2034.0, 2032.0, 2033.0, 2033.0, 2032.0, 2033.0, 2033.0, 2033.0, 2033.0, 2034.0, 2033.0, 2033.0, 2033.0, 2033.0, 2033.0, 2032.0, 2032.0, 2032.0, 2032.0, 2032.0, 2034.0, 2032.0, 2032.0, 2033.0, 2032.0, 2032.0, 2033.0, 2032.0, 2032.0, 2033.0, 2033.0, 2033.0, 2032.0, 2032.0, 2032.0, 2033.0, 2032.0, 2033.0, 2033.0, 2033.0, 2032.0, 2032.0, 2033.0, 2033.0, 2033.0, 2033.0, 2033.0, 2032.0, 2033.0, 2032.0, 2033.0, 2032.0, 2033.0, 2033.0, 2033.0, 2032.0, 2032.0, 2033.0, 2032.0, 2033.0, 2032.0, 2032.0, 2032.0, 2032.0, 2032.0, 2032.0, 2031.0, 2032.0, 2032.0, 2032.0, 2032.0, 2032.0, 2031.0, 2032.0, 2032.0, 2032.0, 2033.0, 2033.0, 2032.0, 2032.0, 2031.0, 2032.0, 2032.0, 2032.0, 2031.0, 2032.0, 2032.0, 2032.0, 2031.0, 2031.0, 2033.0, 2031.0, 2032.0, 2031.0, 2031.0, 2031.0, 2032.0, 2031.0, 2031.0, 2032.0, 2031.0, 2032.0, 2032.0, 2031.0, 2032.0, 2033.0, 2031.0, 2032.0, 2031.0, 2031.0, 2031.0, 2031.0, 2032.0, 2031.0, 2031.0, 2031.0, 2032.0, 2032.0, 2031.0, 2032.0, 2031.0, 2032.0, 2032.0, 2032.0]
    },
    "slices": {}
  }
}