{
  "AcquisitionMatrixPE": 80,
  "AcquisitionNumber": 1,
  "AcquisitionTime": "09:51:39.552500",
  "BandwidthPerPixelPhaseEncode": 25,
  "BaseResolution": 80,
  "BodyPartExamined": "BRAIN",
  "CoilCombinationMethod": "Sum of Squares",
  "ConsistencyInfo": "N4_VE11C_LATEST_20160120",
  "ConversionSoftware": "dcm2niix",
  "ConversionSoftwareVersion": "v1.0.20220720",
  "DerivedVendorReportedEchoSpacing": 0.0005,
  "DeviceSerialNumber": "66112",
  "DwellTime": 2.7e-06,
  "EchoTime": 0.03,
  "EchoTrainLength": 80,
  "EffectiveEchoSpacing": 0.0005,
  "FlipAngle": 77,
  "HeudiconvVersion": "0.13.1",
  "ImageComments": "Reference volume for motion correction.",
  "ImageOrientationPatientDICOM": [0.986365, 0.164396, 0.00761768, -0.158697, 0.93787, 0.308569],
  "ImageOrientationText": "Tra>Cor(17.8)>Sag(-2.5)",
  "ImageType": [
    "ORIGINAL",
    "PRIMARY",
    "M",
    "ND",
    "NORM",
    "MOCO",
    "MOSAIC"
],
  "ImagingFrequency": 123.252,
  "InPlanePhaseEncodingDirectionDICOM": "COL",
  "InstitutionAddress": "Maynard 3,Hanover,NH,US,03755",
  "InstitutionName": "Dartmouth College - PBS",
  "InstitutionalDepartmentName": "Department",
  "MRAcquisitionType": "2D",
  "MagneticFieldStrength": 3,
  "Manufacturer": "Siemens",
  "ManufacturersModelName": "Prisma",
  "MatrixCoilMode": "SENSE",
  "Modality": "MR",
  "NonlinearGradientCorrection": false,
  "PartialFourier": 1,
  "PatientPosition": "HFS",
  "PercentPhaseFOV": 100,
  "PercentSampling": 100,
  "PhaseEncodingDirection": "j-",
  "PhaseEncodingSteps": 80,
  "PhaseResolution": 1,
  "PixelBandwidth": 2315,
  "ProcedureStepDescription": "dbic^QA",
  "ProtocolName": "func-bold_acq-32ch-77flip_MoCo",
  "PulseSequenceDetails": "%SiemensSeq%\\ep2d_bold",
  "ReceiveCoilActiveElements": "HEA;HEP",
  "ReceiveCoilName": "Head_32",
  "ReconMatrixPE": 80,
  "RepetitionTime": 2,
  "SAR": 0.0435111,
  "ScanOptions": "FS",
  "ScanningSequence": "EP",
  "SequenceName": "*epfid2d1_80",
  "SequenceVariant": "SK",
  "SeriesDescription": "MoCoSeries",
  "SeriesNumber": 9,
  "ShimSetting": [4146, -7684, -7501, 286, -43, -128, -78, 64],
  "SliceThickness": 3.5,
  "SliceTiming": [0.9875, 0, 1.055, 0.065, 1.12, 0.13, 1.1875, 0.1975, 1.2525, 0.2625, 1.3175, 0.33, 1.385, 0.395, 1.45, 0.46, 1.5175, 0.5275, 1.5825, 0.5925, 1.6475, 0.6575, 1.715, 0.725, 1.78, 0.79, 1.8475, 0.8575, 1.9125, 0.9225],
  "SoftwareVersions": "syngo MR E11",
  "SpacingBetweenSlices": 3.99,
  "StationName": "AWP66112",
  "TotalReadoutTime": 0.0395,
  "TxRefAmp": 239.084,
  "dcmmeta_affine": [
    [-2.959095001220703, -0.4760894775390625, -0.17389655113220215, 140.30307006835938],
    [-0.49318790435791016, 2.813610792160034, 1.2192264795303345, -97.90673828125],
    [0.022853052243590355, -0.9257069230079651, 3.7951741218566895, -20.15852928161621],
    [0.0, 0.0, 0.0, 1.0]
],
  "dcmmeta_reorient_transform": [
    [0.0, -1.0, 0.0, 79.0],
    [1.0, 0.0, 0.0, 0.0],
    [0.0, 0.0, 1.0, 0.0],
    [0.0, 0.0, 0.0, 1.0]
],
  "dcmmeta_shape": [80, 80, 30, 200],
  "dcmmeta_slice_dim": 2,
  "dcmmeta_version": 0.6,
  "global": {
    "const": {
      "AccessionNumber": "qa",
      "AcquisitionMatrix": [80, 0, 0, 80],
      "AngioFlag": "N",
      "BitsAllocated": 16,
      "BitsStored": 12,
      "BodyPartExamined": "BRAIN",
      "Columns": 480,
      "EchoNumbers": 1,
      "EchoTime": 30.0,
      "EchoTrainLength": 80,
      "FlipAngle": 77.0,
      "HighBit": 11,
      "ImageOrientationPatient": [0.98636501130574, 0.16439597125575, 0.00761768381532, -0.1586964970075, 0.93787025334378, 0.30856897078357],
      "ImagePositionPatient": [-599.29311378969, -785.72824552773, -283.00136854509],
      "ImageType": [
        "ORIGINAL",
        "PRIMARY",
        "M",
        "ND",
        "NORM",
        "MOCO",
        "MOSAIC"
],
      "ImagedNucleus": "1H",
      "ImagingFrequency": 123.252424,
      "InPlanePhaseEncodingDirection": "COL",
      "MRAcquisitionType": "2D",
      "MagneticFieldStrength": 3.0,
      "Manufacturer": "SIEMENS",
      "ManufacturerModelName": "Prisma",
      "Modality": "MR",
      "NumberOfAverages": 1.0,
      "NumberOfPhaseEncodingSteps": 80,
      "PercentPhaseFieldOfView": 100.0,
      "PercentSampling": 100.0,
      "PerformedProcedureStepStartTime": "092635.686000",
      "PhotometricInterpretation": "MONOCHROME2",
      "PixelBandwidth": 2315.0,
      "PixelRepresentation": 0,
      "PixelSpacing": [3.0, 3.0],
      "ProtocolName": "func-bold_acq-32ch-77flip",
      "RepetitionTime": 2000.0,
      "Rows": 480,
      "SAR": 0.0435111390082,
      "SamplesPerPixel": 1,
      "ScanOptions": "FS",
      "ScanningSequence": "EP",
      "SequenceName": "*epfid2d1_80",
      "SequenceVariant": "SK",
      "SeriesDescription": "MoCoSeries",
      "SeriesNumber": 9,
      "SeriesTime": "095233.947000",
      "SliceLocation": -55.2064755715,
      "SliceThickness": 3.5,
      "SmallestImagePixelValue": 0,
      "SoftwareVersions": "syngo MR E11",
      "SpacingBetweenSlices": 3.99000000765,
      "SpecificCharacterSet": "ISO_IR 100",
      "StudyID": "7",
      "StudyTime": "092635.558000",
      "TransmitCoilName": "Body",
      "VariableFlipAngleFlag": "N",
      "WindowCenterWidthExplanation": "Algo1",
      "dBdt": 0.0},
    "slices": {}
  },
  "time": {
    "samples": {
      "AcquisitionNumber": [1, 2, 3, 4, 5, 6, 7, 8, 9, 10, 11, 12, 13, 14, 15, 16, 17, 18, 19, 20, 21, 22, 23, 24, 25, 26, 27, 28, 29, 30, 31, 32, 33, 34, 35, 36, 37, 38, 39, 40, 41, 42, 43, 44, 45, 46, 47, 48, 49, 50, 51, 52, 53, 54, 55, 56, 57, 58, 59, 60, 61, 62, 63, 64, 65, 66, 67, 68, 69, 70, 71, 72, 73, 74, 75, 76, 77, 78, 79, 80, 81, 82, 83, 84, 85, 86, 87, 88, 89, 90, 91, 92, 93, 94, 95, 96, 97, 98, 99, 100, 101, 102, 103, 104, 105, 106, 107, 108, 109, 110, 111, 112, 113, 114, 115, 116, 117, 118, 119, 120, 121, 122, 123, 124, 125, 126, 127, 128, 129, 130, 131, 132, 133, 134, 135, 136, 137, 138, 139, 140, 141, 142, 143, 144, 145, 146, 147, 148, 149, 150, 151, 152, 153, 154, 155, 156, 157, 158, 159, 160, 161, 162, 163, 164, 165, 166, 167, 168, 169, 170, 171, 172, 173, 174, 175, 176, 177, 178, 179, 180, 181, 182, 183, 184, 185, 186, 187, 188, 189, 190, 191, 192, 193, 194, 195, 196, 197, 198, 199, 200],
      "AcquisitionTime": ["095139.552500", "095141.552500", "095143.552500", "095145.552500", "095147.552500", "095149.552500", "095151.552500", "095153.552500", "095155.552500", "095157.552500", "095159.552500", "095201.552500", "095203.552500", "095205.552500", "095207.552500", "095209.552500", "095211.552500", "095213.552500", "095215.552500", "095217.552500", "095219.552500", "095221.552500", "095223.552500", "095225.552500", "095227.552500", "095229.552500", "095231.552500", "095233.552500", "095235.552500", "095237.552500", "095239.552500", "095241.552500", "095243.552500", "095245.552500", "095247.552500", "095249.552500", "095251.552500", "095253.552500", "095255.552500", "095257.552500", "095259.552500", "095301.552500", "095303.552500", "095305.552500", "095307.552500", "095309.552500", "095311.552500", "095313.552500", "095315.552500", "095317.552500", "095319.552500", "095321.552500", "095323.552500", "095325.552500", "095327.552500", "095329.552500", "095331.552500", "095333.552500", "095335.552500", "095337.552500", "095339.552500", "095341.552500", "095343.552500", "095345.552500", "095347.552500", "095349.552500", "095351.552500", "095353.552500", "095355.552500", "095357.552500", "095359.552500", "095401.552500", "095403.552500", "095405.552500", "095407.552500", "095409.552500", "095411.552500", "095413.552500", "095415.552500", "095417.552500", "095419.552500", "095421.552500", "095423.552500", "095425.552500", "095427.552500", "095429.552500", "095431.552500", "095433.552500", "095435.552500", "095437.552500", "095439.552500", "095441.552500", "095443.552500", "095445.552500", "095447.552500", "095449.552500", "095451.552500", "095453.552500", "095455.552500", "095457.552500", "095459.552500", "095501.552500", "095503.552500", "095505.552500", "095507.552500", "095509.552500", "095511.552500", "095513.552500", "095515.552500", "095517.552500", "095519.552500", "095521.552500", "095523.552500", "095525.552500", "095527.552500", "095529.552500", "095531.552500", "095533.552500", "095535.552500", "095537.552500", "095539.552500", "095541.552500", "095543.552500", "095545.552500", "095547.552500", "095549.552500", "095551.552500", "095553.552500", "095555.552500", "095557.552500", "095559.552500", "095601.552500", "095603.552500", "095605.552500", "095607.552500", "095609.552500", "095611.552500", "095613.552500", "095615.552500", "095617.552500", "095619.552500", "095621.552500", "095623.552500", "095625.552500", "095627.552500", "095629.552500", "095631.552500", "095633.552500", "095635.552500", "095637.552500", "095639.552500", "095641.552500", "095643.552500", "095645.552500", "095647.552500", "095649.552500", "095651.552500", "095653.552500", "095655.552500", "095657.552500", "095659.552500", "095701.552500", "095703.552500", "095705.552500", "095707.552500", "095709.552500", "095711.552500", "095713.552500", "095715.552500", "095717.552500", "095719.552500", "095721.552500", "095723.552500", "095725.552500", "095727.552500", "095729.552500", "095731.552500", "095733.552500", "095735.552500", "095737.552500", "095739.552500", "095741.552500", "095743.552500", "095745.552500", "095747.552500", "095749.552500", "095751.552500", "095753.552500", "095755.552500", "095757.552500", "095759.552500", "095801.552500", "095803.552500", "095805.552500", "095807.552500", "095809.552500", "095811.552500", "095813.552500", "095815.552500", "095817.552500"],
      "ContentTime": ["095233.949000", "095233.952000", "095233.955000", "095233.957000", "095233.960000", "095233.963000", "095233.965000", "095233.968000", "095233.970000", "095233.973000", "095233.976000", "095233.978000", "095233.986000", "095233.989000", "095233.991000", "095233.994000", "095233.996000", "095234.000000", "095234.002000", "095234.005000", "095234.007000", "095234.010000", "095234.013000", "095234.015000", "095234.024000", "095234.026000", "095234.029000", "095313.934000", "095313.937000", "095313.940000", "095313.942000", "095313.945000", "095313.947000", "095313.950000", "095313.952000", "095313.955000", "095313.958000", "095313.960000", "095313.963000", "095313.965000", "095313.968000", "095313.970000", "095313.973000", "095313.976000", "095313.978000", "095313.981000", "095313.983000", "095353.922000", "095353.925000", "095353.928000", "095353.930000", "095353.933000", "095353.935000", "095353.938000", "095353.941000", "095353.943000", "095353.946000", "095353.948000", "095353.951000", "095353.953000", "095353.956000", "095353.958000", "095353.961000", "095353.963000", "095353.971000", "095353.973000", "095353.976000", "095433.917000", "095433.920000", "095433.922000", "095433.925000", "095433.928000", "095433.930000", "095433.933000", "095433.935000", "095433.938000", "095433.940000", "095433.943000", "095433.945000", "095433.948000", "095433.950000", "095433.953000", "095433.956000", "095433.958000", "095433.961000", "095433.963000", "095433.966000", "095513.947000", "095513.949000", "095513.952000", "095513.955000", "095513.957000", "095513.960000", "095513.962000", "095513.965000", "095513.967000", "095513.970000", "095513.973000", "095513.975000", "095513.979000", "095513.982000", "095513.985000", "095513.987000", "095513.990000", "095513.992000", "095513.995000", "095513.998000", "095553.928000", "095553.930000", "095553.933000", "095553.935000", "095553.938000", "095553.941000", "095553.943000", "095553.946000", "095553.948000", "095553.951000", "095553.953000", "095553.956000", "095553.960000", "095553.962000", "095553.965000", "095553.967000", "095553.970000", "095553.973000", "095553.975000", "095553.978000", "095633.926000", "095633.929000", "095633.931000", "095633.934000", "095633.936000", "095633.939000", "095633.942000", "095633.944000", "095633.947000", "095633.956000", "095633.958000", "095633.961000", "095633.964000", "095633.966000", "095633.969000", "095633.971000", "095633.974000", "095633.977000", "095633.979000", "095633.982000", "095713.919000", "095713.922000", "095713.924000", "095713.927000", "095713.930000", "095713.932000", "095713.935000", "095713.937000", "095713.942000", "095713.945000", "095713.947000", "095713.950000", "095713.952000", "095713.955000", "095713.958000", "095713.960000", "095713.963000", "095713.965000", "095713.968000", "095713.970000", "095753.916000", "095753.919000", "095753.922000", "095753.924000", "095753.927000", "095753.929000", "095753.932000", "095753.935000", "095753.937000", "095753.940000", "095753.942000", "095753.945000", "095753.947000", "095753.950000", "095753.952000", "095753.955000", "095753.957000", "095753.960000", "095753.962000", "095753.965000", "095819.603000", "095819.607000", "095819.610000", "095819.612000", "095819.615000", "095819.618000", "095819.621000", "095819.624000", "095819.627000", "095819.630000", "095819.633000", "095819.636000", "095819.638000"],
      "InstanceCreationTime": ["095233.949000", "095233.952000", "095233.955000", "095233.957000", "095233.960000", "095233.963000", "095233.965000", "095233.968000", "095233.970000", "095233.973000", "095233.976000", "095233.978000", "095233.986000", "095233.989000", "095233.991000", "095233.994000", "095233.996000", "095234.000000", "095234.002000", "095234.005000", "095234.007000", "095234.010000", "095234.013000", "095234.015000", "095234.024000", "095234.026000", "095234.029000", "095313.934000", "095313.937000", "095313.940000", "095313.942000", "095313.945000", "095313.947000", "095313.950000", "095313.952000", "095313.955000", "095313.958000", "095313.960000", "095313.963000", "095313.965000", "095313.968000", "095313.970000", "095313.973000", "095313.976000", "095313.978000", "095313.981000", "095313.983000", "095353.922000", "095353.925000", "095353.928000", "095353.930000", "095353.933000", "095353.935000", "095353.938000", "095353.941000", "095353.943000", "095353.946000", "095353.948000", "095353.951000", "095353.953000", "095353.956000", "095353.958000", "095353.961000", "095353.963000", "095353.971000", "095353.973000", "095353.976000", "095433.917000", "095433.920000", "095433.922000", "095433.925000", "095433.928000", "095433.930000", "095433.933000", "095433.935000", "095433.938000", "095433.940000", "095433.943000", "095433.945000", "095433.948000", "095433.950000", "095433.953000", "095433.956000", "095433.958000", "095433.961000", "095433.963000", "095433.966000", "095513.947000", "095513.949000", "095513.952000", "095513.955000", "095513.957000", "095513.960000", "095513.962000", "095513.965000", "095513.967000", "095513.970000", "095513.973000", "095513.975000", "095513.979000", "095513.982000", "095513.985000", "095513.987000", "095513.990000", "095513.992000", "095513.995000", "095513.998000", "095553.928000", "095553.930000", "095553.933000", "095553.935000", "095553.938000", "095553.941000", "095553.943000", "095553.946000", "095553.948000", "095553.951000", "095553.953000", "095553.956000", "095553.960000", "095553.962000", "095553.965000", "095553.967000", "095553.970000", "095553.973000", "095553.975000", "095553.978000", "095633.926000", "095633.929000", "095633.931000", "095633.934000", "095633.936000", "095633.939000", "095633.942000", "095633.944000", "095633.947000", "095633.956000", "095633.958000", "095633.961000", "095633.964000", "095633.966000", "095633.969000", "095633.971000", "095633.974000", "095633.977000", "095633.979000", "095633.982000", "095713.919000", "095713.922000", "095713.924000", "095713.927000", "095713.930000", "095713.932000", "095713.935000", "095713.937000", "095713.942000", "095713.945000", "095713.947000", "095713.950000", "095713.952000", "095713.955000", "095713.958000", "095713.960000", "095713.963000", "095713.965000", "095713.968000", "095713.970000", "095753.916000", "095753.919000", "095753.922000", "095753.924000", "095753.927000", "095753.929000", "095753.932000", "095753.935000", "095753.937000", "095753.940000", "095753.942000", "095753.945000", "095753.947000", "095753.950000", "095753.952000", "095753.955000", "095753.957000", "095753.960000", "095753.962000", "095753.965000", "095819.603000", "095819.607000", "095819.610000", "095819.612000", "095819.615000", "095819.618000", "095819.621000", "095819.624000", "095819.627000", "095819.630000", "095819.633000", "095819.636000", "095819.638000"],
      "InstanceNumber": [1, 2, 3, 4, 5, 6, 7, 8, 9, 10, 11, 12, 13, 14, 15, 16, 17, 18, 19, 20, 21, 22, 23, 24, 25, 26, 27, 28, 29, 30, 31, 32, 33, 34, 35, 36, 37, 38, 39, 40, 41, 42, 43, 44, 45, 46, 47, 48, 49, 50, 51, 52, 53, 54, 55, 56, 57, 58, 59, 60, 61, 62, 63, 64, 65, 66, 67, 68, 69, 70, 71, 72, 73, 74, 75, 76, 77, 78, 79, 80, 81, 82, 83, 84, 85, 86, 87, 88, 89, 90, 91, 92, 93, 94, 95, 96, 97, 98, 99, 100, 101, 102, 103, 104, 105, 106, 107, 108, 109, 110, 111, 112, 113, 114, 115, 116, 117, 118, 119, 120, 121, 122, 123, 124, 125, 126, 127, 128, 129, 130, 131, 132, 133, 134, 135, 136, 137, 138, 139, 140, 141, 142, 143, 144, 145, 146, 147, 148, 149, 150, 151, 152, 153, 154, 155, 156, 157, 158, 159, 160, 161, 162, 163, 164, 165, 166, 167, 168, 169, 170, 171, 172, 173, 174, 175, 176, 177, 178, 179, 180, 181, 182, 183, 184, 185, 186, 187, 188, 189, 190, 191, 192, 193, 194, 195, 196, 197, 198, 199, 200],
      "LargestImagePixelValue": [1902, 1899, 1902, 1904, 1904, 1904, 1904, 1901, 1903, 1902, 1903, 1901, 1901, 1901, 1900, 1901, 1901, 1903, 1902, 1901, 1902, 1900, 1901, 1903, 1905, 1902, 1904, 1903, 1902, 1903, 1902, 1904, 1901, 1901, 1901, 1903, 1899, 1903, 1902, 1901, 1902, 1902, 1901, 1901, 1901, 1900, 1902, 1901, 1901, 1903, 1903, 1906, 1904, 1904, 1903, 1901, 1903, 1901, 1901, 1903, 1902, 1905, 1904, 1904, 1903, 1904, 1903, 1902, 1901, 1901, 1899, 1902, 1899, 1901, 1903, 1901, 1903, 1901, 1901, 1903, 1899, 1899, 1900, 1900, 1902, 1900, 1900, 1904, 1901, 1901, 1900, 1898, 1897, 1902, 1900, 1899, 1902, 1900, 1903, 1899, 1899, 1901, 1900, 1898, 1900, 1901, 1899, 1899, 1900, 1898, 1902, 1902, 1900, 1899, 1901, 1902, 1899, 1901, 1900, 1899, 1901, 1900, 1901, 1899, 1902, 1901, 1902, 1901, 1901, 1901, 1900, 1900, 1901, 1899, 1899, 1901, 1901, 1901, 1901, 1903, 1899, 1898, 1898, 1900, 1903, 1900, 1900, 1899, 1901, 1901, 1899, 1898, 1898, 1899, 1899, 1900, 1903, 1902, 1898, 1899, 1899, 1899, 1898, 1900, 1900, 1901, 1900, 1900, 1900, 1902, 1899, 1901, 1898, 1900, 1898, 1898, 1898, 1900, 1898, 1900, 1902, 1901, 1902, 1902, 1903, 1899, 1900, 1902, 1901, 1899, 1901, 1900, 1899, 1901, 1901, 1901, 1901, 1901, 1902, 1899],
      "WindowCenter": [935.0, 934.0, 935.0, 934.0, 935.0, 935.0, 935.0, 934.0, 933.0, 934.0, 934.0, 934.0, 934.0, 934.0, 934.0, 934.0, 934.0, 934.0, 934.0, 934.0, 933.0, 934.0, 934.0, 934.0, 934.0, 934.0, 933.0, 933.0, 934.0, 934.0, 934.0, 934.0, 934.0, 934.0, 934.0, 934.0, 934.0, 935.0, 935.0, 933.0, 934.0, 934.0, 933.0, 933.0, 934.0, 934.0, 934.0, 933.0, 934.0, 934.0, 934.0, 934.0, 935.0, 933.0, 934.0, 934.0, 934.0, 934.0, 934.0, 934.0, 934.0, 934.0, 934.0, 934.0, 934.0, 934.0, 934.0, 934.0, 934.0, 934.0, 934.0, 932.0, 933.0, 932.0, 933.0, 934.0, 934.0, 934.0, 934.0, 934.0, 934.0, 933.0, 934.0, 933.0, 933.0, 934.0, 934.0, 933.0, 932.0, 934.0, 933.0, 934.0, 933.0, 934.0, 932.0, 934.0, 934.0, 934.0, 933.0, 934.0, 934.0, 934.0, 933.0, 934.0, 933.0, 934.0, 933.0, 933.0, 933.0, 933.0, 933.0, 933.0, 933.0, 933.0, 933.0, 933.0, 933.0, 933.0, 932.0, 933.0, 933.0, 933.0, 933.0, 933.0, 933.0, 933.0, 933.0, 933.0, 933.0, 932.0, 933.0, 933.0, 933.0, 933.0, 933.0, 933.0, 933.0, 933.0, 932.0, 933.0, 933.0, 933.0, 933.0, 933.0, 933.0, 933.0, 933.0, 932.0, 933.0, 933.0, 933.0, 932.0, 933.0, 933.0, 932.0, 932.0, 932.0, 933.0, 933.0, 932.0, 933.0, 933.0, 932.0, 932.0, 932.0, 933.0, 933.0, 932.0, 932.0, 932.0, 933.0, 933.0, 933.0, 933.0, 932.0, 933.0, 932.0, 932.0, 932.0, 933.0, 933.0, 934.0, 933.0, 933.0, 934.0, 933.0, 933.0, 933.0, 933.0, 932.0, 932.0, 933.0, 933.0, 933.0, 933.0, 932.0, 932.0, 933.0, 932.0, 932.0],
      "WindowWidth": [2015.0, 2015.0, 2016.0, 2016.0, 2016.0, 2016.0, 2016.0, 2014.0, 2014.0, 2015.0, 2014.0, 2015.0, 2014.0, 2014.0, 2015.0, 2015.0, 2015.0, 2015.0, 2015.0, 2015.0, 2014.0, 2014.0, 2014.0, 2015.0, 2015.0, 2015.0, 2014.0, 2014.0, 2015.0, 2015.0, 2015.0, 2014.0, 2014.0, 2015.0, 2015.0, 2015.0, 2015.0, 2016.0, 2016.0, 2014.0, 2015.0, 2015.0, 2014.0, 2014.0, 2015.0, 2015.0, 2015.0, 2014.0, 2015.0, 2015.0, 2016.0, 2016.0, 2016.0, 2014.0, 2016.0, 2014.0, 2014.0, 2015.0, 2016.0, 2014.0, 2016.0, 2014.0, 2015.0, 2016.0, 2015.0, 2015.0, 2015.0, 2015.0, 2014.0, 2014.0, 2014.0, 2012.0, 2013.0, 2012.0, 2013.0, 2014.0, 2014.0, 2014.0, 2014.0, 2014.0, 2014.0, 2013.0, 2014.0, 2013.0, 2013.0, 2013.0, 2014.0, 2013.0, 2012.0, 2013.0, 2013.0, 2013.0, 2013.0, 2013.0, 2012.0, 2013.0, 2013.0, 2013.0, 2013.0, 2013.0, 2013.0, 2013.0, 2013.0, 2013.0, 2013.0, 2013.0, 2013.0, 2013.0, 2013.0, 2013.0, 2013.0, 2013.0, 2013.0, 2013.0, 2013.0, 2013.0, 2013.0, 2013.0, 2012.0, 2013.0, 2013.0, 2012.0, 2013.0, 2013.0, 2013.0, 2013.0, 2013.0, 2013.0, 2013.0, 2012.0, 2012.0, 2012.0, 2013.0, 2013.0, 2013.0, 2012.0, 2013.0, 2012.0, 2012.0, 2013.0, 2012.0, 2012.0, 2012.0, 2012.0, 2012.0, 2012.0, 2012.0, 2012.0, 2013.0, 2012.0, 2012.0, 2012.0, 2012.0, 2013.0, 2011.0, 2012.0, 2012.0, 2012.0, 2012.0, 2012.0, 2012.0, 2013.0, 2012.0, 2011.0, 2012.0, 2012.0, 2012.0, 2012.0, 2011.0, 2012.0, 2012.0, 2012.0, 2012.0, 2012.0, 2012.0, 2012.0, 2011.0, 2012.0, 2011.0, 2012.0, 2013.0, 2014.0, 2013.0, 2013.0, 2014.0, 2013.0, 2012.0, 2012.0, 2012.0, 2011.0, 2011.0, 2012.0, 2012.0, 2012.0, 2012.0, 2011.0, 2011.0, 2012.0, 2011.0, 2011.0]
    },
    "slices": {}
  }
}