{
  "AcquisitionMatrixPE": 80,
  "AcquisitionNumber": 1,
  "AcquisitionTime": "09:51:39.552500",
  "BandwidthPerPixelPhaseEncode": 25,
  "BaseResolution": 80,
  "BodyPartExamined": "BRAIN",
  "CoilCombinationMethod": "Sum of Squares",
  "ConsistencyInfo": "N4_VE11C_LATEST_20160120",
  "ConversionSoftware": "dcm2niix",
  "ConversionSoftwareVersion": "v1.0.20220720",
  "DerivedVendorReportedEchoSpacing": 0.0005,
  "DeviceSerialNumber": "66112",
  "DwellTime": 2.7e-06,
  "EchoTime": 0.03,
  "EchoTrainLength": 80,
  "EffectiveEchoSpacing": 0.0005,
  "FlipAngle": 77,
  "HeudiconvVersion": "0.13.1",
  "ImageOrientationPatientDICOM": [0.986365, 0.164396, 0.00761768, -0.158697, 0.93787, 0.308569],
  "ImageOrientationText": "Tra>Cor(17.8)>Sag(-2.5)",
  "ImageType": [
    "ORIGINAL",
    "PRIMARY",
    "M",
    "ND",
    "NORM",
    "MOSAIC"
],
  "ImagingFrequency": 123.252,
  "InPlanePhaseEncodingDirectionDICOM": "COL",
  "InstitutionAddress": "Maynard 3,Hanover,NH,US,03755",
  "InstitutionName": "Dartmouth College - PBS",
  "InstitutionalDepartmentName": "Department",
  "MRAcquisitionType": "2D",
  "MagneticFieldStrength": 3,
  "Manufacturer": "Siemens",
  "ManufacturersModelName": "Prisma",
  "MatrixCoilMode": "SENSE",
  "Modality": "MR",
  "NonlinearGradientCorrection": false,
  "PartialFourier": 1,
  "PatientPosition": "HFS",
  "PercentPhaseFOV": 100,
  "PercentSampling": 100,
  "PhaseEncodingDirection": "j-",
  "PhaseEncodingSteps": 80,
  "PhaseResolution": 1,
  "PixelBandwidth": 2315,
  "ProcedureStepDescription": "dbic^QA",
  "ProtocolName": "func-bold_acq-32ch-77flip",
  "PulseSequenceDetails": "%SiemensSeq%\\ep2d_bold",
  "ReceiveCoilActiveElements": "HEA;HEP",
  "ReceiveCoilName": "Head_32",
  "ReconMatrixPE": 80,
  "RepetitionTime": 2,
  "SAR": 0.0435111,
  "ScanOptions": "FS",
  "ScanningSequence": "EP",
  "SequenceName": "*epfid2d1_80",
  "SequenceVariant": "SK",
  "SeriesDescription": "func-bold_acq-32ch-77flip",
  "SeriesNumber": 8,
  "ShimSetting": [4146, -7684, -7501, 286, -43, -128, -78, 64],
  "SliceThickness": 3.5,
  "SliceTiming": [0.9875, 0, 1.055, 0.065, 1.12, 0.13, 1.1875, 0.1975, 1.2525, 0.2625, 1.3175, 0.33, 1.385, 0.395, 1.45, 0.46, 1.5175, 0.5275, 1.5825, 0.5925, 1.6475, 0.6575, 1.715, 0.725, 1.78, 0.79, 1.8475, 0.8575, 1.9125, 0.9225],
  "SoftwareVersions": "syngo MR E11",
  "SpacingBetweenSlices": 3.99,
  "StationName": "AWP66112",
  "TotalReadoutTime": 0.0395,
  "TxRefAmp": 239.084,
  "dcmmeta_affine": [
    [-2.959095001220703, -0.4760894775390625, -0.17389655113220215, 140.30307006835938],
    [-0.49318790435791016, 2.813610792160034, 1.2192264795303345, -97.90673828125],
    [0.022853052243590355, -0.9257069230079651, 3.7951741218566895, -20.15852928161621],
    [0.0, 0.0, 0.0, 1.0]
],
  "dcmmeta_reorient_transform": [
    [0.0, -1.0, 0.0, 79.0],
    [1.0, 0.0, 0.0, 0.0],
    [0.0, 0.0, 1.0, 0.0],
    [0.0, 0.0, 0.0, 1.0]
],
  "dcmmeta_shape": [80, 80, 30, 200],
  "dcmmeta_slice_dim": 2,
  "dcmmeta_version": 0.6,
  "global": {
    "const": {
      "AccessionNumber": "qa",
      "AcquisitionMatrix": [80, 0, 0, 80],
      "AngioFlag": "N",
      "BitsAllocated": 16,
      "BitsStored": 12,
      "BodyPartExamined": "BRAIN",
      "Columns": 480,
      "EchoNumbers": 1,
      "EchoTime": 30.0,
      "EchoTrainLength": 80,
      "FlipAngle": 77.0,
      "HighBit": 11,
      "ImageOrientationPatient": [0.98636501130574, 0.16439597125575, 0.00761768381532, -0.1586964970075, 0.93787025334378, 0.30856897078357],
      "ImagePositionPatient": [-599.29311378969, -785.72824552773, -283.00136854509],
      "ImageType": [
        "ORIGINAL",
        "PRIMARY",
        "M",
        "ND",
        "NORM",
        "MOSAIC"
],
      "ImagedNucleus": "1H",
      "ImagingFrequency": 123.252424,
      "InPlanePhaseEncodingDirection": "COL",
      "MRAcquisitionType": "2D",
      "MagneticFieldStrength": 3.0,
      "Manufacturer": "SIEMENS",
      "ManufacturerModelName": "Prisma",
      "Modality": "MR",
      "NumberOfAverages": 1.0,
      "NumberOfPhaseEncodingSteps": 80,
      "PercentPhaseFieldOfView": 100.0,
      "PercentSampling": 100.0,
      "PerformedProcedureStepStartTime": "092635.686000",
      "PhotometricInterpretation": "MONOCHROME2",
      "PixelBandwidth": 2315.0,
      "PixelRepresentation": 0,
      "PixelSpacing": [3.0, 3.0],
      "ProtocolName": "func-bold_acq-32ch-77flip",
      "RepetitionTime": 2000.0,
      "Rows": 480,
      "SAR": 0.0435111390082,
      "SamplesPerPixel": 1,
      "ScanOptions": "FS",
      "ScanningSequence": "EP",
      "SequenceName": "*epfid2d1_80",
      "SequenceVariant": "SK",
      "SeriesDescription": "func-bold_acq-32ch-77flip",
      "SeriesNumber": 8,
      "SeriesTime": "095233.845000",
      "SliceLocation": -55.2064755715,
      "SliceThickness": 3.5,
      "SmallestImagePixelValue": 0,
      "SoftwareVersions": "syngo MR E11",
      "SpacingBetweenSlices": 3.99000000765,
      "SpecificCharacterSet": "ISO_IR 100",
      "StudyID": "7",
      "StudyTime": "092635.558000",
      "TransmitCoilName": "Body",
      "VariableFlipAngleFlag": "N",
      "WindowCenterWidthExplanation": "Algo1",
      "dBdt": 0.0},
    "slices": {}
  },
  "time": {
    "samples": {
      "AcquisitionNumber": [1, 2, 3, 4, 5, 6, 7, 8, 9, 10, 11, 12, 13, 14, 15, 16, 17, 18, 19, 20, 21, 22, 23, 24, 25, 26, 27, 28, 29, 30, 31, 32, 33, 34, 35, 36, 37, 38, 39, 40, 41, 42, 43, 44, 45, 46, 47, 48, 49, 50, 51, 52, 53, 54, 55, 56, 57, 58, 59, 60, 61, 62, 63, 64, 65, 66, 67, 68, 69, 70, 71, 72, 73, 74, 75, 76, 77, 78, 79, 80, 81, 82, 83, 84, 85, 86, 87, 88, 89, 90, 91, 92, 93, 94, 95, 96, 97, 98, 99, 100, 101, 102, 103, 104, 105, 106, 107, 108, 109, 110, 111, 112, 113, 114, 115, 116, 117, 118, 119, 120, 121, 122, 123, 124, 125, 126, 127, 128, 129, 130, 131, 132, 133, 134, 135, 136, 137, 138, 139, 140, 141, 142, 143, 144, 145, 146, 147, 148, 149, 150, 151, 152, 153, 154, 155, 156, 157, 158, 159, 160, 161, 162, 163, 164, 165, 166, 167, 168, 169, 170, 171, 172, 173, 174, 175, 176, 177, 178, 179, 180, 181, 182, 183, 184, 185, 186, 187, 188, 189, 190, 191, 192, 193, 194, 195, 196, 197, 198, 199, 200],
      "AcquisitionTime": ["095139.552500", "095141.552500", "095143.552500", "095145.552500", "095147.552500", "095149.552500", "095151.552500", "095153.552500", "095155.552500", "095157.552500", "095159.552500", "095201.552500", "095203.552500", "095205.552500", "095207.552500", "095209.552500", "095211.552500", "095213.552500", "095215.552500", "095217.552500", "095219.552500", "095221.552500", "095223.552500", "095225.552500", "095227.552500", "095229.552500", "095231.552500", "095233.552500", "095235.552500", "095237.552500", "095239.552500", "095241.552500", "095243.552500", "095245.552500", "095247.552500", "095249.552500", "095251.552500", "095253.552500", "095255.552500", "095257.552500", "095259.552500", "095301.552500", "095303.552500", "095305.552500", "095307.552500", "095309.552500", "095311.552500", "095313.552500", "095315.552500", "095317.552500", "095319.552500", "095321.552500", "095323.552500", "095325.552500", "095327.552500", "095329.552500", "095331.552500", "095333.552500", "095335.552500", "095337.552500", "095339.552500", "095341.552500", "095343.552500", "095345.552500", "095347.552500", "095349.552500", "095351.552500", "095353.552500", "095355.552500", "095357.552500", "095359.552500", "095401.552500", "095403.552500", "095405.552500", "095407.552500", "095409.552500", "095411.552500", "095413.552500", "095415.552500", "095417.552500", "095419.552500", "095421.552500", "095423.552500", "095425.552500", "095427.552500", "095429.552500", "095431.552500", "095433.552500", "095435.552500", "095437.552500", "095439.552500", "095441.552500", "095443.552500", "095445.552500", "095447.552500", "095449.552500", "095451.552500", "095453.552500", "095455.552500", "095457.552500", "095459.552500", "095501.552500", "095503.552500", "095505.552500", "095507.552500", "095509.552500", "095511.552500", "095513.552500", "095515.552500", "095517.552500", "095519.552500", "095521.552500", "095523.552500", "095525.552500", "095527.552500", "095529.552500", "095531.552500", "095533.552500", "095535.552500", "095537.552500", "095539.552500", "095541.552500", "095543.552500", "095545.552500", "095547.552500", "095549.552500", "095551.552500", "095553.552500", "095555.552500", "095557.552500", "095559.552500", "095601.552500", "095603.552500", "095605.552500", "095607.552500", "095609.552500", "095611.552500", "095613.552500", "095615.552500", "095617.552500", "095619.552500", "095621.552500", "095623.552500", "095625.552500", "095627.552500", "095629.552500", "095631.552500", "095633.552500", "095635.552500", "095637.552500", "095639.552500", "095641.552500", "095643.552500", "095645.552500", "095647.552500", "095649.552500", "095651.552500", "095653.552500", "095655.552500", "095657.552500", "095659.552500", "095701.552500", "095703.552500", "095705.552500", "095707.552500", "095709.552500", "095711.552500", "095713.552500", "095715.552500", "095717.552500", "095719.552500", "095721.552500", "095723.552500", "095725.552500", "095727.552500", "095729.552500", "095731.552500", "095733.552500", "095735.552500", "095737.552500", "095739.552500", "095741.552500", "095743.552500", "095745.552500", "095747.552500", "095749.552500", "095751.552500", "095753.552500", "095755.552500", "095757.552500", "095759.552500", "095801.552500", "095803.552500", "095805.552500", "095807.552500", "095809.552500", "095811.552500", "095813.552500", "095815.552500", "095817.552500"],
      "ContentTime": ["095233.848000", "095233.852000", "095233.854000", "095233.857000", "095233.859000", "095233.862000", "095233.864000", "095233.867000", "095233.869000", "095233.872000", "095233.874000", "095233.876000", "095233.879000", "095233.881000", "095233.884000", "095233.886000", "095233.889000", "095233.891000", "095233.894000", "095233.896000", "095233.899000", "095233.901000", "095233.904000", "095233.906000", "095233.909000", "095233.911000", "095233.914000", "095313.843000", "095313.856000", "095313.859000", "095313.861000", "095313.864000", "095313.866000", "095313.869000", "095313.871000", "095313.874000", "095313.876000", "095313.879000", "095313.885000", "095313.888000", "095313.890000", "095313.893000", "095313.895000", "095313.898000", "095313.900000", "095313.903000", "095313.905000", "095353.843000", "095353.846000", "095353.849000", "095353.851000", "095353.854000", "095353.856000", "095353.859000", "095353.861000", "095353.864000", "095353.866000", "095353.869000", "095353.871000", "095353.874000", "095353.877000", "095353.879000", "095353.882000", "095353.884000", "095353.887000", "095353.889000", "095353.892000", "095433.843000", "095433.846000", "095433.849000", "095433.851000", "095433.854000", "095433.856000", "095433.859000", "095433.861000", "095433.864000", "095433.866000", "095433.868000", "095433.871000", "095433.873000", "095433.876000", "095433.878000", "095433.881000", "095433.883000", "095433.886000", "095433.888000", "095433.891000", "095513.843000", "095513.846000", "095513.849000", "095513.851000", "095513.854000", "095513.856000", "095513.859000", "095513.861000", "095513.871000", "095513.873000", "095513.876000", "095513.878000", "095513.881000", "095513.883000", "095513.886000", "095513.888000", "095513.891000", "095513.916000", "095513.918000", "095513.921000", "095553.843000", "095553.846000", "095553.849000", "095553.851000", "095553.854000", "095553.856000", "095553.858000", "095553.861000", "095553.864000", "095553.866000", "095553.869000", "095553.871000", "095553.874000", "095553.876000", "095553.879000", "095553.881000", "095553.884000", "095553.886000", "095553.889000", "095553.891000", "095633.843000", "095633.846000", "095633.849000", "095633.851000", "095633.854000", "095633.856000", "095633.859000", "095633.861000", "095633.864000", "095633.866000", "095633.869000", "095633.871000", "095633.874000", "095633.876000", "095633.879000", "095633.881000", "095633.884000", "095633.886000", "095633.889000", "095633.891000", "095713.843000", "095713.846000", "095713.849000", "095713.851000", "095713.854000", "095713.856000", "095713.859000", "095713.861000", "095713.864000", "095713.866000", "095713.869000", "095713.871000", "095713.874000", "095713.876000", "095713.879000", "095713.881000", "095713.884000", "095713.886000", "095713.889000", "095713.891000", "095753.843000", "095753.846000", "095753.849000", "095753.851000", "095753.854000", "095753.856000", "095753.859000", "095753.861000", "095753.864000", "095753.866000", "095753.869000", "095753.871000", "095753.873000", "095753.876000", "095753.878000", "095753.881000", "095753.883000", "095753.886000", "095753.888000", "095753.891000", "095819.530000", "095819.533000", "095819.536000", "095819.538000", "095819.541000", "095819.543000", "095819.546000", "095819.548000", "095819.551000", "095819.554000", "095819.556000", "095819.559000", "095819.568000"],
      "InstanceCreationTime": ["095233.848000", "095233.852000", "095233.854000", "095233.857000", "095233.859000", "095233.862000", "095233.864000", "095233.867000", "095233.869000", "095233.872000", "095233.874000", "095233.876000", "095233.879000", "095233.881000", "095233.884000", "095233.886000", "095233.889000", "095233.891000", "095233.894000", "095233.896000", "095233.899000", "095233.901000", "095233.904000", "095233.906000", "095233.909000", "095233.911000", "095233.914000", "095313.843000", "095313.856000", "095313.859000", "095313.861000", "095313.864000", "095313.866000", "095313.869000", "095313.871000", "095313.874000", "095313.876000", "095313.879000", "095313.885000", "095313.888000", "095313.890000", "095313.893000", "095313.895000", "095313.898000", "095313.900000", "095313.903000", "095313.905000", "095353.843000", "095353.846000", "095353.849000", "095353.851000", "095353.854000", "095353.856000", "095353.859000", "095353.861000", "095353.864000", "095353.866000", "095353.869000", "095353.871000", "095353.874000", "095353.877000", "095353.879000", "095353.882000", "095353.884000", "095353.887000", "095353.889000", "095353.892000", "095433.843000", "095433.846000", "095433.849000", "095433.851000", "095433.854000", "095433.856000", "095433.859000", "095433.861000", "095433.864000", "095433.866000", "095433.868000", "095433.871000", "095433.873000", "095433.876000", "095433.878000", "095433.881000", "095433.883000", "095433.886000", "095433.888000", "095433.891000", "095513.843000", "095513.846000", "095513.849000", "095513.851000", "095513.854000", "095513.856000", "095513.859000", "095513.861000", "095513.871000", "095513.873000", "095513.876000", "095513.878000", "095513.881000", "095513.883000", "095513.886000", "095513.888000", "095513.891000", "095513.916000", "095513.918000", "095513.921000", "095553.843000", "095553.846000", "095553.849000", "095553.851000", "095553.854000", "095553.856000", "095553.858000", "095553.861000", "095553.864000", "095553.866000", "095553.869000", "095553.871000", "095553.874000", "095553.876000", "095553.879000", "095553.881000", "095553.884000", "095553.886000", "095553.889000", "095553.891000", "095633.843000", "095633.846000", "095633.849000", "095633.851000", "095633.854000", "095633.856000", "095633.859000", "095633.861000", "095633.864000", "095633.866000", "095633.869000", "095633.871000", "095633.874000", "095633.876000", "095633.879000", "095633.881000", "095633.884000", "095633.886000", "095633.889000", "095633.891000", "095713.843000", "095713.846000", "095713.849000", "095713.851000", "095713.854000", "095713.856000", "095713.859000", "095713.861000", "095713.864000", "095713.866000", "095713.869000", "095713.871000", "095713.874000", "095713.876000", "095713.879000", "095713.881000", "095713.884000", "095713.886000", "095713.889000", "095713.891000", "095753.843000", "095753.846000", "095753.849000", "095753.851000", "095753.854000", "095753.856000", "095753.859000", "095753.861000", "095753.864000", "095753.866000", "095753.869000", "095753.871000", "095753.873000", "095753.876000", "095753.878000", "095753.881000", "095753.883000", "095753.886000", "095753.888000", "095753.891000", "095819.530000", "095819.533000", "095819.536000", "095819.538000", "095819.541000", "095819.543000", "095819.546000", "095819.548000", "095819.551000", "095819.554000", "095819.556000", "095819.559000", "095819.568000"],
      "InstanceNumber": [1, 2, 3, 4, 5, 6, 7, 8, 9, 10, 11, 12, 13, 14, 15, 16, 17, 18, 19, 20, 21, 22, 23, 24, 25, 26, 27, 28, 29, 30, 31, 32, 33, 34, 35, 36, 37, 38, 39, 40, 41, 42, 43, 44, 45, 46, 47, 48, 49, 50, 51, 52, 53, 54, 55, 56, 57, 58, 59, 60, 61, 62, 63, 64, 65, 66, 67, 68, 69, 70, 71, 72, 73, 74, 75, 76, 77, 78, 79, 80, 81, 82, 83, 84, 85, 86, 87, 88, 89, 90, 91, 92, 93, 94, 95, 96, 97, 98, 99, 100, 101, 102, 103, 104, 105, 106, 107, 108, 109, 110, 111, 112, 113, 114, 115, 116, 117, 118, 119, 120, 121, 122, 123, 124, 125, 126, 127, 128, 129, 130, 131, 132, 133, 134, 135, 136, 137, 138, 139, 140, 141, 142, 143, 144, 145, 146, 147, 148, 149, 150, 151, 152, 153, 154, 155, 156, 157, 158, 159, 160, 161, 162, 163, 164, 165, 166, 167, 168, 169, 170, 171, 172, 173, 174, 175, 176, 177, 178, 179, 180, 181, 182, 183, 184, 185, 186, 187, 188, 189, 190, 191, 192, 193, 194, 195, 196, 197, 198, 199, 200],
      "LargestImagePixelValue": [1902, 1899, 1902, 1904, 1903, 1903, 1903, 1901, 1902, 1902, 1903, 1901, 1901, 1901, 1900, 1901, 1900, 1902, 1902, 1902, 1902, 1900, 1901, 1903, 1905, 1903, 1904, 1903, 1901, 1902, 1902, 1903, 1901, 1901, 1900, 1903, 1899, 1902, 1901, 1901, 1901, 1901, 1901, 1901, 1901, 1900, 1902, 1901, 1901, 1902, 1902, 1905, 1903, 1903, 1902, 1901, 1903, 1900, 1900, 1902, 1901, 1903, 1903, 1902, 1902, 1903, 1902, 1901, 1901, 1901, 1899, 1901, 1898, 1900, 1902, 1900, 1902, 1899, 1900, 1902, 1898, 1898, 1900, 1899, 1901, 1899, 1899, 1902, 1900, 1900, 1900, 1897, 1897, 1901, 1899, 1898, 1901, 1899, 1901, 1898, 1899, 1900, 1899, 1897, 1898, 1900, 1898, 1898, 1899, 1897, 1901, 1901, 1899, 1898, 1900, 1900, 1898, 1900, 1899, 1899, 1900, 1899, 1900, 1898, 1900, 1899, 1900, 1899, 1899, 1899, 1899, 1899, 1900, 1898, 1898, 1899, 1899, 1899, 1899, 1901, 1898, 1897, 1897, 1898, 1900, 1898, 1899, 1897, 1899, 1898, 1897, 1897, 1896, 1897, 1897, 1898, 1901, 1899, 1896, 1897, 1897, 1897, 1897, 1898, 1898, 1899, 1898, 1898, 1898, 1900, 1897, 1898, 1896, 1898, 1896, 1896, 1896, 1898, 1896, 1898, 1900, 1898, 1899, 1899, 1900, 1897, 1897, 1899, 1898, 1897, 1898, 1897, 1897, 1899, 1898, 1898, 1898, 1898, 1899, 1896],
      "WindowCenter": [935.0, 934.0, 935.0, 934.0, 935.0, 935.0, 935.0, 934.0, 933.0, 934.0, 934.0, 934.0, 934.0, 934.0, 934.0, 934.0, 934.0, 934.0, 934.0, 934.0, 933.0, 934.0, 934.0, 934.0, 934.0, 934.0, 933.0, 933.0, 934.0, 934.0, 934.0, 934.0, 934.0, 934.0, 934.0, 934.0, 934.0, 935.0, 935.0, 933.0, 934.0, 934.0, 933.0, 933.0, 934.0, 934.0, 934.0, 933.0, 934.0, 934.0, 934.0, 934.0, 934.0, 933.0, 934.0, 934.0, 933.0, 934.0, 934.0, 934.0, 934.0, 934.0, 934.0, 934.0, 934.0, 934.0, 934.0, 934.0, 934.0, 934.0, 934.0, 932.0, 933.0, 932.0, 933.0, 934.0, 934.0, 934.0, 934.0, 934.0, 934.0, 933.0, 934.0, 933.0, 933.0, 934.0, 934.0, 933.0, 932.0, 934.0, 933.0, 934.0, 933.0, 934.0, 932.0, 934.0, 934.0, 934.0, 933.0, 933.0, 934.0, 934.0, 933.0, 933.0, 933.0, 933.0, 933.0, 933.0, 933.0, 933.0, 933.0, 933.0, 933.0, 933.0, 933.0, 933.0, 933.0, 933.0, 932.0, 933.0, 933.0, 933.0, 933.0, 933.0, 933.0, 933.0, 933.0, 933.0, 933.0, 932.0, 933.0, 933.0, 933.0, 933.0, 933.0, 933.0, 933.0, 933.0, 932.0, 933.0, 932.0, 933.0, 933.0, 933.0, 932.0, 932.0, 933.0, 932.0, 933.0, 933.0, 933.0, 932.0, 933.0, 933.0, 932.0, 932.0, 932.0, 933.0, 933.0, 932.0, 933.0, 933.0, 932.0, 932.0, 932.0, 933.0, 933.0, 932.0, 932.0, 932.0, 933.0, 933.0, 933.0, 933.0, 932.0, 933.0, 932.0, 932.0, 932.0, 933.0, 933.0, 934.0, 933.0, 933.0, 934.0, 933.0, 933.0, 933.0, 933.0, 932.0, 932.0, 933.0, 933.0, 933.0, 933.0, 932.0, 931.0, 933.0, 932.0, 932.0],
      "WindowWidth": [2015.0, 2015.0, 2016.0, 2016.0, 2016.0, 2016.0, 2016.0, 2014.0, 2014.0, 2015.0, 2014.0, 2015.0, 2014.0, 2014.0, 2015.0, 2015.0, 2015.0, 2015.0, 2015.0, 2015.0, 2014.0, 2014.0, 2014.0, 2015.0, 2015.0, 2015.0, 2014.0, 2014.0, 2015.0, 2015.0, 2015.0, 2014.0, 2014.0, 2015.0, 2015.0, 2015.0, 2015.0, 2016.0, 2016.0, 2014.0, 2015.0, 2015.0, 2014.0, 2014.0, 2015.0, 2015.0, 2015.0, 2014.0, 2015.0, 2015.0, 2016.0, 2016.0, 2016.0, 2014.0, 2016.0, 2014.0, 2014.0, 2015.0, 2016.0, 2015.0, 2015.0, 2015.0, 2015.0, 2016.0, 2015.0, 2015.0, 2015.0, 2015.0, 2014.0, 2014.0, 2014.0, 2012.0, 2013.0, 2012.0, 2013.0, 2014.0, 2014.0, 2014.0, 2014.0, 2014.0, 2014.0, 2013.0, 2014.0, 2013.0, 2013.0, 2013.0, 2014.0, 2013.0, 2012.0, 2013.0, 2013.0, 2013.0, 2013.0, 2013.0, 2012.0, 2013.0, 2013.0, 2013.0, 2013.0, 2013.0, 2013.0, 2013.0, 2013.0, 2013.0, 2013.0, 2013.0, 2013.0, 2013.0, 2013.0, 2013.0, 2013.0, 2013.0, 2013.0, 2013.0, 2013.0, 2013.0, 2013.0, 2013.0, 2012.0, 2013.0, 2013.0, 2012.0, 2013.0, 2013.0, 2013.0, 2013.0, 2013.0, 2013.0, 2013.0, 2012.0, 2012.0, 2012.0, 2013.0, 2013.0, 2013.0, 2012.0, 2013.0, 2012.0, 2012.0, 2012.0, 2012.0, 2012.0, 2012.0, 2012.0, 2012.0, 2012.0, 2012.0, 2012.0, 2013.0, 2013.0, 2012.0, 2012.0, 2012.0, 2012.0, 2012.0, 2012.0, 2012.0, 2013.0, 2012.0, 2012.0, 2012.0, 2013.0, 2012.0, 2011.0, 2012.0, 2012.0, 2013.0, 2012.0, 2011.0, 2012.0, 2013.0, 2013.0, 2012.0, 2012.0, 2012.0, 2012.0, 2011.0, 2012.0, 2011.0, 2012.0, 2013.0, 2014.0, 2013.0, 2013.0, 2013.0, 2013.0, 2012.0, 2012.0, 2012.0, 2011.0, 2011.0, 2012.0, 2012.0, 2012.0, 2012.0, 2011.0, 2011.0, 2012.0, 2011.0, 2011.0]
    },
    "slices": {}
  }
}