{
  "AcquisitionMatrixPE": 80,
  "AcquisitionNumber": 1,
  "AcquisitionTime": "09:32:55.197500",
  "BandwidthPerPixelPhaseEncode": 48.077,
  "BaseResolution": 80,
  "BodyPartExamined": "BRAIN",
  "CoilCombinationMethod": "Sum of Squares",
  "ConsistencyInfo": "N4_VE11C_LATEST_20160120",
  "ConversionSoftware": "dcm2niix",
  "ConversionSoftwareVersion": "v1.0.20220720",
  "DerivedVendorReportedEchoSpacing": 0.000519999,
  "DeviceSerialNumber": "66112",
  "DwellTime": 2.7e-06,
  "EchoTime": 0.035,
  "EchoTrainLength": 39,
  "EffectiveEchoSpacing": 0.00026,
  "FlipAngle": 90,
  "HeudiconvVersion": "0.13.1",
  "ImageOrientationPatientDICOM": [0.986055, 0.166158, 0.0092961, -0.160943, 0.937918, 0.307259],
  "ImageOrientationText": "Tra>Cor(17.7)>Sag(-2.4)",
  "ImageType": [
    "ORIGINAL",
    "PRIMARY",
    "M",
    "ND",
    "NORM",
    "MOSAIC"
],
  "ImagingFrequency": 123.252,
  "InPlanePhaseEncodingDirectionDICOM": "COL",
  "InstitutionAddress": "Maynard 3,Hanover,NH,US,03755",
  "InstitutionName": "Dartmouth College - PBS",
  "InstitutionalDepartmentName": "Department",
  "MRAcquisitionType": "2D",
  "MagneticFieldStrength": 3,
  "Manufacturer": "Siemens",
  "ManufacturersModelName": "Prisma",
  "MatrixCoilMode": "GRAPPA",
  "Modality": "MR",
  "NonlinearGradientCorrection": false,
  "ParallelReductionFactorInPlane": 2,
  "PartialFourier": 1,
  "PatientPosition": "HFS",
  "PercentPhaseFOV": 100,
  "PercentSampling": 100,
  "PhaseEncodingDirection": "j-",
  "PhaseEncodingSteps": 79,
  "PhaseResolution": 1,
  "PixelBandwidth": 2315,
  "ProcedureStepDescription": "dbic^QA",
  "ProtocolName": "func-bold_task-rest_acq-p2",
  "PulseSequenceDetails": "%SiemensSeq%\\ep2d_bold",
  "ReceiveCoilActiveElements": "HEA;HEP",
  "ReceiveCoilName": "Head_32",
  "ReconMatrixPE": 80,
  "RefLinesPE": 24,
  "RepetitionTime": 2,
  "SAR": 0.0555767,
  "ScanOptions": "FS",
  "ScanningSequence": "EP",
  "SequenceName": "*epfid2d1_80",
  "SequenceVariant": "SK",
  "SeriesDescription": "func-bold_task-rest_acq-p2",
  "SeriesNumber": 5,
  "ShimSetting": [4144, -7691, -7504, 312, -44, -96, -77, 56],
  "SliceThickness": 3.5,
  "SliceTiming": [0.99, 0, 1.055, 0.0675, 1.1225, 0.1325, 1.1875, 0.1975, 1.255, 0.265, 1.32, 0.33, 1.385, 0.3975, 1.4525, 0.4625, 1.5175, 0.5275, 1.585, 0.595, 1.65, 0.66, 1.715, 0.725, 1.7825, 0.7925, 1.8475, 0.8575, 1.915, 0.925],
  "SoftwareVersions": "syngo MR E11",
  "SpacingBetweenSlices": 3.99,
  "StationName": "AWP66112",
  "TaskName": "rest",
  "TotalReadoutTime": 0.02054,
  "TxRefAmp": 229.376,
  "dcmmeta_affine": [
    [-2.9581661224365234, -0.4828279912471771, -0.1689140945672989, 141.33914184570312],
    [-0.49847257137298584, 2.813753128051758, 1.2148360013961792, -98.60800170898438],
    [0.02788829430937767, -0.9217758774757385, 3.796806812286377, -24.84980010986328],
    [0.0, 0.0, 0.0, 1.0]
],
  "dcmmeta_reorient_transform": [
    [0.0, -1.0, 0.0, 79.0],
    [1.0, 0.0, 0.0, 0.0],
    [0.0, 0.0, 1.0, 0.0],
    [0.0, 0.0, 0.0, 1.0]
],
  "dcmmeta_shape": [80, 80, 30, 200],
  "dcmmeta_slice_dim": 2,
  "dcmmeta_version": 0.6,
  "global": {
    "const": {
      "AccessionNumber": "qa",
      "AcquisitionMatrix": [80, 0, 0, 80],
      "AngioFlag": "N",
      "BitsAllocated": 16,
      "BitsStored": 12,
      "BodyPartExamined": "BRAIN",
      "Columns": 480,
      "EchoNumbers": 1,
      "EchoTime": 35.0,
      "EchoTrainLength": 39,
      "FlipAngle": 90.0,
      "HighBit": 11,
      "ImageOrientationPatient": [0.98605540445754, 0.16615752135616, 0.0092960979372, -0.1609426650939, 0.9379176885937, 0.30725863368754],
      "ImagePositionPatient": [-598.26337372732, -786.12361859401, -287.60293566996],
      "ImageType": [
        "ORIGINAL",
        "PRIMARY",
        "M",
        "ND",
        "NORM",
        "MOSAIC"
],
      "ImagedNucleus": "1H",
      "ImagingFrequency": 123.252463,
      "InPlanePhaseEncodingDirection": "COL",
      "MRAcquisitionType": "2D",
      "MagneticFieldStrength": 3.0,
      "Manufacturer": "SIEMENS",
      "ManufacturerModelName": "Prisma",
      "Modality": "MR",
      "NumberOfAverages": 1.0,
      "NumberOfPhaseEncodingSteps": 79,
      "PercentPhaseFieldOfView": 100.0,
      "PercentSampling": 100.0,
      "PerformedProcedureStepStartTime": "093113.883000",
      "PhotometricInterpretation": "MONOCHROME2",
      "PixelBandwidth": 2315.0,
      "PixelRepresentation": 0,
      "PixelSpacing": [3.0, 3.0],
      "ProtocolName": "func-bold_task-rest_acq-p2",
      "RepetitionTime": 2000.0,
      "Rows": 480,
      "SAR": 0.05557669647533,
      "SamplesPerPixel": 1,
      "ScanOptions": "FS",
      "ScanningSequence": "EP",
      "SequenceName": "*epfid2d1_80",
      "SequenceVariant": "SK",
      "SeriesDescription": "func-bold_task-rest_acq-p2",
      "SeriesNumber": 5,
      "SeriesTime": "093318.098000",
      "SliceLocation": -59.653285839555,
      "SliceThickness": 3.5,
      "SmallestImagePixelValue": 0,
      "SoftwareVersions": "syngo MR E11",
      "SpacingBetweenSlices": 3.9899999637687,
      "SpecificCharacterSet": "ISO_IR 100",
      "StudyID": "31",
      "StudyTime": "093113.769000",
      "TransmitCoilName": "Body",
      "VariableFlipAngleFlag": "N",
      "WindowCenterWidthExplanation": "Algo1",
      "dBdt": 0.0},
    "slices": {}
  },
  "time": {
    "samples": {
      "AcquisitionNumber": [1, 2, 3, 4, 5, 6, 7, 8, 9, 10, 11, 12, 13, 14, 15, 16, 17, 18, 19, 20, 21, 22, 23, 24, 25, 26, 27, 28, 29, 30, 31, 32, 33, 34, 35, 36, 37, 38, 39, 40, 41, 42, 43, 44, 45, 46, 47, 48, 49, 50, 51, 52, 53, 54, 55, 56, 57, 58, 59, 60, 61, 62, 63, 64, 65, 66, 67, 68, 69, 70, 71, 72, 73, 74, 75, 76, 77, 78, 79, 80, 81, 82, 83, 84, 85, 86, 87, 88, 89, 90, 91, 92, 93, 94, 95, 96, 97, 98, 99, 100, 101, 102, 103, 104, 105, 106, 107, 108, 109, 110, 111, 112, 113, 114, 115, 116, 117, 118, 119, 120, 121, 122, 123, 124, 125, 126, 127, 128, 129, 130, 131, 132, 133, 134, 135, 136, 137, 138, 139, 140, 141, 142, 143, 144, 145, 146, 147, 148, 149, 150, 151, 152, 153, 154, 155, 156, 157, 158, 159, 160, 161, 162, 163, 164, 165, 166, 167, 168, 169, 170, 171, 172, 173, 174, 175, 176, 177, 178, 179, 180, 181, 182, 183, 184, 185, 186, 187, 188, 189, 190, 191, 192, 193, 194, 195, 196, 197, 198, 199, 200],
      "AcquisitionTime": ["093255.197500", "093257.197500", "093259.197500", "093301.197500", "093303.197500", "093305.197500", "093307.197500", "093309.197500", "093311.197500", "093313.197500", "093315.197500", "093317.197500", "093319.197500", "093321.197500", "093323.197500", "093325.197500", "093327.197500", "093329.197500", "093331.197500", "093333.197500", "093335.197500", "093337.197500", "093339.197500", "093341.197500", "093343.197500", "093345.197500", "093347.197500", "093349.197500", "093351.197500", "093353.197500", "093355.197500", "093357.197500", "093359.197500", "093401.197500", "093403.197500", "093405.197500", "093407.197500", "093409.197500", "093411.197500", "093413.197500", "093415.197500", "093417.197500", "093419.197500", "093421.197500", "093423.197500", "093425.197500", "093427.197500", "093429.197500", "093431.197500", "093433.197500", "093435.197500", "093437.197500", "093439.197500", "093441.197500", "093443.197500", "093445.197500", "093447.197500", "093449.197500", "093451.197500", "093453.197500", "093455.197500", "093457.197500", "093459.197500", "093501.197500", "093503.197500", "093505.197500", "093507.197500", "093509.197500", "093511.197500", "093513.197500", "093515.197500", "093517.197500", "093519.197500", "093521.197500", "093523.197500", "093525.197500", "093527.197500", "093529.197500", "093531.197500", "093533.197500", "093535.197500", "093537.197500", "093539.197500", "093541.197500", "093543.197500", "093545.197500", "093547.197500", "093549.197500", "093551.197500", "093553.197500", "093555.197500", "093557.197500", "093559.197500", "093601.197500", "093603.197500", "093605.197500", "093607.197500", "093609.197500", "093611.197500", "093613.197500", "093615.197500", "093617.197500", "093619.197500", "093621.197500", "093623.197500", "093625.197500", "093627.197500", "093629.197500", "093631.197500", "093633.197500", "093635.197500", "093637.197500", "093639.197500", "093641.197500", "093643.197500", "093645.197500", "093647.197500", "093649.197500", "093651.197500", "093653.197500", "093655.197500", "093657.197500", "093659.197500", "093701.197500", "093703.197500", "093705.197500", "093707.197500", "093709.197500", "093711.197500", "093713.197500", "093715.197500", "093717.197500", "093719.197500", "093721.197500", "093723.197500", "093725.197500", "093727.197500", "093729.197500", "093731.197500", "093733.197500", "093735.197500", "093737.197500", "093739.197500", "093741.197500", "093743.197500", "093745.197500", "093747.197500", "093749.197500", "093751.197500", "093753.197500", "093755.197500", "093757.197500", "093759.197500", "093801.197500", "093803.197500", "093805.197500", "093807.197500", "093809.197500", "093811.197500", "093813.197500", "093815.197500", "093817.197500", "093819.197500", "093821.197500", "093823.197500", "093825.197500", "093827.197500", "093829.197500", "093831.197500", "093833.197500", "093835.197500", "093837.197500", "093839.197500", "093841.197500", "093843.197500", "093845.197500", "093847.197500", "093849.197500", "093851.197500", "093853.197500", "093855.197500", "093857.197500", "093859.197500", "093901.197500", "093903.197500", "093905.197500", "093907.197500", "093909.197500", "093911.197500", "093913.197500", "093915.197500", "093917.197500", "093919.197500", "093921.197500", "093923.197500", "093925.197500", "093927.197500", "093929.197500", "093931.197500", "093933.197500"],
      "ContentTime": ["093318.102000", "093318.105000", "093318.108000", "093318.120000", "093318.123000", "093318.125000", "093318.128000", "093318.130000", "093318.140000", "093318.143000", "093318.149000", "093358.096000", "093358.099000", "093358.102000", "093358.104000", "093358.117000", "093358.119000", "093358.122000", "093358.124000", "093358.127000", "093358.129000", "093358.132000", "093358.134000", "093358.137000", "093358.139000", "093358.142000", "093358.145000", "093358.147000", "093358.150000", "093358.152000", "093358.155000", "093438.097000", "093438.099000", "093438.102000", "093438.111000", "093438.114000", "093438.117000", "093438.119000", "093438.122000", "093438.124000", "093438.127000", "093438.129000", "093438.132000", "093438.134000", "093438.137000", "093438.139000", "093438.142000", "093438.144000", "093438.147000", "093438.149000", "093438.152000", "093518.096000", "093518.099000", "093518.102000", "093518.104000", "093518.107000", "093518.110000", "093518.112000", "093518.115000", "093518.117000", "093518.120000", "093518.122000", "093518.125000", "093518.128000", "093518.130000", "093518.149000", "093518.151000", "093518.154000", "093518.157000", "093518.159000", "093518.162000", "093558.096000", "093558.099000", "093558.102000", "093558.104000", "093558.107000", "093558.109000", "093558.112000", "093558.114000", "093558.117000", "093558.119000", "093558.122000", "093558.124000", "093558.127000", "093558.129000", "093558.132000", "093558.134000", "093558.137000", "093558.139000", "093558.142000", "093558.144000", "093638.097000", "093638.099000", "093638.102000", "093638.104000", "093638.107000", "093638.109000", "093638.112000", "093638.114000", "093638.117000", "093638.119000", "093638.122000", "093638.124000", "093638.127000", "093638.130000", "093638.132000", "093638.135000", "093638.137000", "093638.140000", "093638.142000", "093638.145000", "093718.096000", "093718.099000", "093718.102000", "093718.104000", "093718.107000", "093718.110000", "093718.112000", "093718.115000", "093718.117000", "093718.120000", "093718.122000", "093718.125000", "093718.128000", "093718.130000", "093718.133000", "093718.135000", "093718.138000", "093718.140000", "093718.143000", "093718.145000", "093758.097000", "093758.099000", "093758.102000", "093758.104000", "093758.107000", "093758.109000", "093758.112000", "093758.114000", "093758.117000", "093758.119000", "093758.122000", "093758.124000", "093758.127000", "093758.129000", "093758.132000", "093758.134000", "093758.137000", "093758.139000", "093758.142000", "093758.144000", "093838.097000", "093838.099000", "093838.102000", "093838.104000", "093838.107000", "093838.109000", "093838.112000", "093838.114000", "093838.117000", "093838.120000", "093838.122000", "093838.125000", "093838.146000", "093838.148000", "093838.151000", "093838.153000", "093838.156000", "093838.158000", "093838.161000", "093838.163000", "093918.096000", "093918.098000", "093918.101000", "093918.103000", "093918.106000", "093918.108000", "093918.118000", "093918.121000", "093918.124000", "093918.132000", "093918.134000", "093918.137000", "093918.139000", "093918.142000", "093918.144000", "093918.147000", "093918.149000", "093918.152000", "093918.154000", "093918.169000", "093935.059000", "093935.062000", "093935.065000", "093935.067000", "093935.070000", "093935.073000", "093935.075000", "093935.078000", "093935.080000"],
      "InstanceCreationTime": ["093318.102000", "093318.105000", "093318.108000", "093318.120000", "093318.123000", "093318.125000", "093318.128000", "093318.130000", "093318.140000", "093318.143000", "093318.149000", "093358.096000", "093358.099000", "093358.102000", "093358.104000", "093358.117000", "093358.119000", "093358.122000", "093358.124000", "093358.127000", "093358.129000", "093358.132000", "093358.134000", "093358.137000", "093358.139000", "093358.142000", "093358.145000", "093358.147000", "093358.150000", "093358.152000", "093358.155000", "093438.097000", "093438.099000", "093438.102000", "093438.111000", "093438.114000", "093438.117000", "093438.119000", "093438.122000", "093438.124000", "093438.127000", "093438.129000", "093438.132000", "093438.134000", "093438.137000", "093438.139000", "093438.142000", "093438.144000", "093438.147000", "093438.149000", "093438.152000", "093518.096000", "093518.099000", "093518.102000", "093518.104000", "093518.107000", "093518.110000", "093518.112000", "093518.115000", "093518.117000", "093518.120000", "093518.122000", "093518.125000", "093518.128000", "093518.130000", "093518.149000", "093518.151000", "093518.154000", "093518.157000", "093518.159000", "093518.162000", "093558.096000", "093558.099000", "093558.102000", "093558.104000", "093558.107000", "093558.109000", "093558.112000", "093558.114000", "093558.117000", "093558.119000", "093558.122000", "093558.124000", "093558.127000", "093558.129000", "093558.132000", "093558.134000", "093558.137000", "093558.139000", "093558.142000", "093558.144000", "093638.097000", "093638.099000", "093638.102000", "093638.104000", "093638.107000", "093638.109000", "093638.112000", "093638.114000", "093638.117000", "093638.119000", "093638.122000", "093638.124000", "093638.127000", "093638.130000", "093638.132000", "093638.135000", "093638.137000", "093638.140000", "093638.142000", "093638.145000", "093718.096000", "093718.099000", "093718.102000", "093718.104000", "093718.107000", "093718.110000", "093718.112000", "093718.115000", "093718.117000", "093718.120000", "093718.122000", "093718.125000", "093718.128000", "093718.130000", "093718.133000", "093718.135000", "093718.138000", "093718.140000", "093718.143000", "093718.145000", "093758.097000", "093758.099000", "093758.102000", "093758.104000", "093758.107000", "093758.109000", "093758.112000", "093758.114000", "093758.117000", "093758.119000", "093758.122000", "093758.124000", "093758.127000", "093758.129000", "093758.132000", "093758.134000", "093758.137000", "093758.139000", "093758.142000", "093758.144000", "093838.097000", "093838.099000", "093838.102000", "093838.104000", "093838.107000", "093838.109000", "093838.112000", "093838.114000", "093838.117000", "093838.120000", "093838.122000", "093838.125000", "093838.146000", "093838.148000", "093838.151000", "093838.153000", "093838.156000", "093838.158000", "093838.161000", "093838.163000", "093918.096000", "093918.098000", "093918.101000", "093918.103000", "093918.106000", "093918.108000", "093918.118000", "093918.121000", "093918.124000", "093918.132000", "093918.134000", "093918.137000", "093918.139000", "093918.142000", "093918.144000", "093918.147000", "093918.149000", "093918.152000", "093918.154000", "093918.169000", "093935.059000", "093935.062000", "093935.065000", "093935.067000", "093935.070000", "093935.073000", "093935.075000", "093935.078000", "093935.080000"],
      "InstanceNumber": [1, 2, 3, 4, 5, 6, 7, 8, 9, 10, 11, 12, 13, 14, 15, 16, 17, 18, 19, 20, 21, 22, 23, 24, 25, 26, 27, 28, 29, 30, 31, 32, 33, 34, 35, 36, 37, 38, 39, 40, 41, 42, 43, 44, 45, 46, 47, 48, 49, 50, 51, 52, 53, 54, 55, 56, 57, 58, 59, 60, 61, 62, 63, 64, 65, 66, 67, 68, 69, 70, 71, 72, 73, 74, 75, 76, 77, 78, 79, 80, 81, 82, 83, 84, 85, 86, 87, 88, 89, 90, 91, 92, 93, 94, 95, 96, 97, 98, 99, 100, 101, 102, 103, 104, 105, 106, 107, 108, 109, 110, 111, 112, 113, 114, 115, 116, 117, 118, 119, 120, 121, 122, 123, 124, 125, 126, 127, 128, 129, 130, 131, 132, 133, 134, 135, 136, 137, 138, 139, 140, 141, 142, 143, 144, 145, 146, 147, 148, 149, 150, 151, 152, 153, 154, 155, 156, 157, 158, 159, 160, 161, 162, 163, 164, 165, 166, 167, 168, 169, 170, 171, 172, 173, 174, 175, 176, 177, 178, 179, 180, 181, 182, 183, 184, 185, 186, 187, 188, 189, 190, 191, 192, 193, 194, 195, 196, 197, 198, 199, 200],
      "LargestImagePixelValue": [1993, 2001, 1993, 1992, 1992, 1992, 1992, 1985, 1999, 1988, 1993, 1992, 1994, 1990, 1992, 1993, 1987, 1996, 1994, 1997, 1992, 1994, 1995, 1991, 1996, 1984, 1992, 1995, 1996, 1988, 1993, 1998, 1991, 1992, 1997, 1995, 1987, 1988, 1992, 1993, 1994, 1988, 1992, 1990, 1990, 1997, 1993, 1995, 1987, 1991, 1987, 1992, 1994, 1998, 1992, 2001, 1998, 1996, 1992, 1992, 1990, 2000, 1994, 1991, 1995, 1992, 1992, 1998, 1988, 1989, 1994, 1991, 1992, 1994, 1991, 1990, 1997, 1997, 1988, 1997, 1991, 1987, 1986, 1993, 1988, 1988, 1989, 1993, 1993, 1994, 1995, 1989, 1996, 1995, 1998, 1997, 1988, 1996, 1995, 1998, 1993, 1996, 1992, 1996, 1998, 1991, 1990, 1993, 1987, 1999, 1995, 1995, 1998, 1987, 1988, 1985, 1990, 1993, 1995, 1995, 1999, 2001, 1994, 1988, 1994, 1987, 1990, 1992, 1998, 1994, 2004, 2003, 1991, 1995, 1996, 1997, 1991, 1999, 1991, 1998, 1988, 1989, 1995, 1995, 1992, 1998, 1987, 1990, 2001, 1996, 1991, 1989, 2002, 1986, 2004, 2000, 1998, 2000, 2000, 1994, 1993, 1995, 1990, 1996, 1997, 1997, 1991, 1995, 1990, 1997, 1990, 1994, 1996, 1989, 1992, 1991, 1996, 2000, 1996, 1985, 1998, 1988, 1997, 1999, 1993, 1990, 1995, 1994, 1988, 1991, 1993, 1997, 1997, 1989, 1992, 1998, 1995, 1995, 1999, 1999],
      "WindowCenter": [970.0, 969.0, 970.0, 969.0, 969.0, 970.0, 970.0, 969.0, 969.0, 970.0, 969.0, 970.0, 970.0, 969.0, 970.0, 969.0, 970.0, 970.0, 969.0, 969.0, 969.0, 969.0, 969.0, 969.0, 969.0, 969.0, 969.0, 969.0, 969.0, 969.0, 969.0, 969.0, 969.0, 969.0, 969.0, 969.0, 969.0, 969.0, 969.0, 969.0, 969.0, 968.0, 969.0, 969.0, 969.0, 968.0, 970.0, 969.0, 968.0, 968.0, 969.0, 969.0, 969.0, 968.0, 968.0, 968.0, 968.0, 969.0, 968.0, 968.0, 968.0, 968.0, 968.0, 968.0, 969.0, 969.0, 968.0, 969.0, 969.0, 968.0, 968.0, 968.0, 969.0, 968.0, 968.0, 968.0, 968.0, 969.0, 968.0, 968.0, 968.0, 969.0, 969.0, 969.0, 968.0, 969.0, 970.0, 968.0, 968.0, 969.0, 968.0, 969.0, 968.0, 968.0, 968.0, 968.0, 968.0, 968.0, 968.0, 968.0, 968.0, 969.0, 968.0, 968.0, 969.0, 968.0, 969.0, 969.0, 969.0, 969.0, 968.0, 968.0, 968.0, 969.0, 969.0, 968.0, 968.0, 968.0, 968.0, 968.0, 969.0, 968.0, 968.0, 968.0, 968.0, 968.0, 968.0, 968.0, 968.0, 969.0, 968.0, 969.0, 968.0, 968.0, 968.0, 968.0, 968.0, 968.0, 968.0, 969.0, 969.0, 969.0, 969.0, 968.0, 969.0, 968.0, 969.0, 968.0, 969.0, 968.0, 969.0, 968.0, 969.0, 969.0, 968.0, 969.0, 968.0, 968.0, 969.0, 968.0, 969.0, 968.0, 968.0, 968.0, 968.0, 969.0, 968.0, 968.0, 968.0, 969.0, 969.0, 968.0, 968.0, 969.0, 968.0, 968.0, 968.0, 968.0, 968.0, 968.0, 969.0, 968.0, 968.0, 969.0, 968.0, 968.0, 968.0, 968.0, 968.0, 968.0, 968.0, 968.0, 969.0, 968.0, 968.0, 968.0, 968.0, 968.0, 969.0, 969.0],
      "WindowWidth": [2111.0, 2109.0, 2110.0, 2109.0, 2109.0, 2110.0, 2110.0, 2109.0, 2109.0, 2110.0, 2109.0, 2110.0, 2110.0, 2109.0, 2110.0, 2109.0, 2110.0, 2110.0, 2109.0, 2109.0, 2109.0, 2110.0, 2110.0, 2109.0, 2109.0, 2109.0, 2109.0, 2108.0, 2109.0, 2109.0, 2108.0, 2109.0, 2109.0, 2109.0, 2109.0, 2109.0, 2108.0, 2108.0, 2109.0, 2109.0, 2109.0, 2109.0, 2108.0, 2109.0, 2108.0, 2108.0, 2109.0, 2109.0, 2108.0, 2109.0, 2108.0, 2109.0, 2109.0, 2108.0, 2108.0, 2108.0, 2108.0, 2109.0, 2108.0, 2108.0, 2108.0, 2108.0, 2108.0, 2108.0, 2109.0, 2109.0, 2108.0, 2109.0, 2109.0, 2108.0, 2108.0, 2108.0, 2109.0, 2108.0, 2108.0, 2108.0, 2108.0, 2109.0, 2108.0, 2108.0, 2108.0, 2109.0, 2109.0, 2108.0, 2108.0, 2108.0, 2109.0, 2108.0, 2108.0, 2108.0, 2108.0, 2108.0, 2108.0, 2108.0, 2108.0, 2108.0, 2108.0, 2108.0, 2108.0, 2108.0, 2108.0, 2108.0, 2108.0, 2108.0, 2108.0, 2108.0, 2108.0, 2108.0, 2108.0, 2108.0, 2108.0, 2108.0, 2108.0, 2108.0, 2108.0, 2107.0, 2108.0, 2108.0, 2108.0, 2108.0, 2108.0, 2108.0, 2108.0, 2108.0, 2108.0, 2108.0, 2107.0, 2108.0, 2108.0, 2108.0, 2107.0, 2108.0, 2107.0, 2107.0, 2107.0, 2107.0, 2108.0, 2107.0, 2107.0, 2108.0, 2108.0, 2108.0, 2108.0, 2107.0, 2108.0, 2107.0, 2108.0, 2107.0, 2108.0, 2107.0, 2108.0, 2107.0, 2108.0, 2107.0, 2107.0, 2109.0, 2107.0, 2107.0, 2108.0, 2107.0, 2107.0, 2107.0, 2107.0, 2107.0, 2107.0, 2108.0, 2107.0, 2107.0, 2107.0, 2107.0, 2108.0, 2107.0, 2107.0, 2107.0, 2107.0, 2107.0, 2107.0, 2107.0, 2107.0, 2107.0, 2107.0, 2107.0, 2107.0, 2107.0, 2107.0, 2107.0, 2107.0, 2107.0, 2107.0, 2107.0, 2107.0, 2107.0, 2107.0, 2107.0, 2107.0, 2107.0, 2107.0, 2107.0, 2107.0, 2107.0]
    },
    "slices": {}
  }
}