{
  "AcquisitionMatrixPE": 122,
  "AcquisitionNumber": 1,
  "AcquisitionTime": "11:32:35.472500",
  "BandwidthPerPixelPhaseEncode": 27.785,
  "BaseResolution": 122,
  "BodyPartExamined": "BRAIN",
  "CoilCombinationMethod": "Adaptive Combine",
  "ConsistencyInfo": "N4_VE11C_LATEST_20160120",
  "ConversionSoftware": "dcm2niix",
  "ConversionSoftwareVersion": "v1.0.20220720",
  "DerivedVendorReportedEchoSpacing": 0.000590011,
  "DeviceSerialNumber": "66112",
  "DiffusionScheme": "Monopolar",
  "DwellTime": 2e-06,
  "EchoTime": 0.068,
  "EchoTrainLength": 61,
  "EffectiveEchoSpacing": 0.000295005,
  "FlipAngle": 90,
  "HeudiconvVersion": "0.13.1",
  "ImageOrientationPatientDICOM": [0.986039, 0.166327, 0.00787724, -0.160587, 0.937367, 0.309119],
  "ImageOrientationText": "Tra>Cor(17.8)>Sag(-2.5)",
  "ImageType": [
    "ORIGINAL",
    "PRIMARY",
    "DIFFUSION",
    "NONE",
    "ND",
    "NORM"
],
  "ImagingFrequency": 123.252,
  "InPlanePhaseEncodingDirectionDICOM": "COL",
  "InstitutionAddress": "Maynard 3,Hanover,NH,US,03755",
  "InstitutionName": "Dartmouth College - PBS",
  "InstitutionalDepartmentName": "Department",
  "MRAcquisitionType": "2D",
  "MagneticFieldStrength": 3,
  "Manufacturer": "Siemens",
  "ManufacturersModelName": "Prisma",
  "Modality": "MR",
  "MultibandAccelerationFactor": 4,
  "NonlinearGradientCorrection": false,
  "ParallelReductionFactorInPlane": 2,
  "PartialFourier": 1,
  "PatientPosition": "HFS",
  "PercentPhaseFOV": 100,
  "PercentSampling": 100,
  "PhaseEncodingDirection": "j-",
  "PhaseEncodingSteps": 122,
  "PhaseResolution": 1,
  "PixelBandwidth": 2050,
  "ProcedureStepDescription": "dbic^QA",
  "ProtocolName": "dwi_acq-DTI-30-p2-s4",
  "PulseSequenceDetails": "%SiemensSeq%\\ep2d_diff",
  "ReceiveCoilActiveElements": "HEA;HEP",
  "ReceiveCoilName": "Head_32",
  "ReconMatrixPE": 122,
  "RefLinesPE": 38,
  "RepetitionTime": 3.6,
  "SAR": 0.160333,
  "ScanOptions": "FS",
  "ScanningSequence": "EP",
  "SequenceName": "*ep_b0",
  "SequenceVariant": "SK\\SP",
  "SeriesDescription": "dwi_acq-DTI-30-p2-s4",
  "SeriesNumber": 13,
  "ShimSetting": [4146, -7698, -7517, 289, -37, -133, -13, 98],
  "SliceThickness": 2,
  "SliceTiming": [2.57812, 0, 1.78906, 0.19531, 1.98438, 0.39062, 2.1875, 0.59375, 2.38281, 0.99219, 2.78125, 1.1875, 2.97656, 1.39062, 3.17969, 1.58594, 3.38281, 0.78906, 2.57812, 0, 1.78906, 0.19531, 1.98438, 0.39062, 2.1875, 0.59375, 2.38281, 0.99219, 2.78125, 1.1875, 2.97656, 1.39062, 3.17969, 1.58594, 3.38281, 0.78906, 2.57812, 0, 1.78906, 0.19531, 1.98438, 0.39062, 2.1875, 0.59375, 2.38281, 0.99219, 2.78125, 1.1875, 2.97656, 1.39062, 3.17969, 1.58594, 3.38281, 0.78906, 2.57812, 0, 1.78906, 0.19531, 1.98438, 0.39062, 2.1875, 0.59375, 2.38281, 0.99219, 2.78125, 1.1875, 2.97656, 1.39062, 3.17969, 1.58594, 3.38281, 0.78906],
  "SoftwareVersions": "syngo MR E11",
  "SpacingBetweenSlices": 2,
  "SpoilingState": true,
  "StationName": "AWP66112",
  "TotalReadoutTime": 0.0356956,
  "TxRefAmp": 220.655,
  "dcmmeta_affine": [
    [-1.9397491216659546, -0.3159082233905792, -0.08806216716766357, 142.8691864013672],
    [-0.3272012174129486, 1.844001054763794, 0.6121368408203125, -115.79258728027344],
    [0.01549620646983385, -0.608103334903717, 1.9019851684570312, -33.36890411376953],
    [0.0, 0.0, 0.0, 1.0]
],
  "dcmmeta_reorient_transform": [
    [0.0, -1.0, 0.0, 121.0],
    [1.0, 0.0, 0.0, 0.0],
    [0.0, 0.0, -1.0, 71.0],
    [0.0, 0.0, 0.0, 1.0]
],
  "dcmmeta_shape": [122, 122, 72, 31],
  "dcmmeta_slice_dim": 2,
  "dcmmeta_version": 0.6,
  "global": {
    "const": {
      "AccessionNumber": "qa",
      "AcquisitionMatrix": [122, 0, 0, 122],
      "AngioFlag": "N",
      "BitsAllocated": 16,
      "BitsStored": 12,
      "BodyPartExamined": "BRAIN",
      "Columns": 122,
      "EchoNumbers": 1,
      "EchoTime": 68.0,
      "EchoTrainLength": 61,
      "FlipAngle": 90.0,
      "HighBit": 11,
      "ImageOrientationPatient": [0.98603913824679, 0.16632728870099, 0.00787723802584, -0.1605866762181, 0.93736718440799, 0.30911920195332],
      "ImageType": [
        "ORIGINAL",
        "PRIMARY",
        "DIFFUSION",
        "NONE",
        "ND",
        "NORM"
],
      "ImagedNucleus": "1H",
      "ImagingFrequency": 123.252364,
      "InPlanePhaseEncodingDirection": "COL",
      "MRAcquisitionType": "2D",
      "MagneticFieldStrength": 3.0,
      "Manufacturer": "SIEMENS",
      "ManufacturerModelName": "Prisma",
      "Modality": "MR",
      "NumberOfAverages": 1.0,
      "NumberOfPhaseEncodingSteps": 122,
      "PercentPhaseFieldOfView": 100.0,
      "PercentSampling": 100.0,
      "PerformedProcedureStepStartTime": "105617.962000",
      "PhotometricInterpretation": "MONOCHROME2",
      "PixelBandwidth": 2050.0,
      "PixelRepresentation": 0,
      "PixelSpacing": [1.9672131538391, 1.9672131538391],
      "ProtocolName": "dwi_acq-DTI-30-p2-s4",
      "RepetitionTime": 3600.0,
      "Rows": 122,
      "SAR": 0.16033285322203,
      "SamplesPerPixel": 1,
      "ScanOptions": "FS",
      "ScanningSequence": "EP",
      "SequenceVariant": [
        "SK",
        "SP"
],
      "SeriesDescription": "dwi_acq-DTI-30-p2-s4",
      "SeriesNumber": 13,
      "SeriesTime": "113243.858000",
      "SliceThickness": 2.0,
      "SmallestImagePixelValue": 0,
      "SoftwareVersions": "syngo MR E11",
      "SpacingBetweenSlices": 2.0,
      "SpecificCharacterSet": "ISO_IR 100",
      "StudyID": "26",
      "StudyTime": "105617.903000",
      "TransmitCoilName": "Body",
      "VariableFlipAngleFlag": "N",
      "WindowCenterWidthExplanation": "Algo1",
      "dBdt": 0.0},
    "slices": {
      "AcquisitionTime": ["113235.472500", "113232.887500", "113234.677500", "113233.087500", "113234.877500", "113233.285000", "113235.075000", "113233.485000", "113235.275000", "113233.882500", "113235.672500", "113234.080000", "113235.870000", "113234.280000", "113236.070000", "113234.480000", "113236.270000", "113233.682500", "113235.472500", "113232.887500", "113234.677500", "113233.087500", "113234.877500", "113233.285000", "113235.075000", "113233.485000", "113235.275000", "113233.882500", "113235.672500", "113234.080000", "113235.870000", "113234.280000", "113236.070000", "113234.480000", "113236.270000", "113233.682500", "113235.472500", "113232.887500", "113234.677500", "113233.087500", "113234.877500", "113233.285000", "113235.075000", "113233.485000", "113235.275000", "113233.882500", "113235.672500", "113234.080000", "113235.870000", "113234.280000", "113236.070000", "113234.480000", "113236.270000", "113233.682500", "113235.472500", "113232.887500", "113234.677500", "113233.087500", "113234.877500", "113233.285000", "113235.075000", "113233.485000", "113235.275000", "113233.882500", "113235.672500", "113234.080000", "113235.870000", "113234.280000", "113236.070000", "113234.480000", "113236.270000", "113233.682500", "113239.072500", "113236.487500", "113238.277500", "113236.687500", "113238.477500", "113236.885000", "113238.675000", "113237.085000", "113238.875000", "113237.482500", "113239.272500", "113237.680000", "113239.470000", "113237.880000", "113239.670000", "113238.080000", "113239.870000", "113237.282500", "113239.072500", "113236.487500", "113238.277500", "113236.687500", "113238.477500", "113236.885000", "113238.675000", "113237.085000", "113238.875000", "113237.482500", "113239.272500", "113237.680000", "113239.470000", "113237.880000", "113239.670000", "113238.080000", "113239.870000", "113237.282500", "113239.072500", "113236.487500", "113238.277500", "113236.687500", "113238.477500", "113236.885000", "113238.675000", "113237.085000", "113238.875000", "113237.482500", "113239.272500", "113237.680000", "113239.470000", "113237.880000", "113239.670000", "113238.080000", "113239.870000", "113237.282500", "113239.072500", "113236.487500", "113238.277500", "113236.687500", "113238.477500", "113236.885000", "113238.675000", "113237.085000", "113238.875000", "113237.482500", "113239.272500", "113237.680000", "113239.470000", "113237.880000", "113239.670000", "113238.080000", "113239.870000", "113237.282500", "113242.672500", "113240.087500", "113241.877500", "113240.287500", "113242.077500", "113240.485000", "113242.275000", "113240.685000", "113242.475000", "113241.082500", "113242.872500", "113241.280000", "113243.070000", "113241.480000", "113243.270000", "113241.680000", "113243.470000", "113240.882500", "113242.672500", "113240.087500", "113241.877500", "113240.287500", "113242.077500", "113240.485000", "113242.275000", "113240.685000", "113242.475000", "113241.082500", "113242.872500", "113241.280000", "113243.070000", "113241.480000", "113243.270000", "113241.680000", "113243.470000", "113240.882500", "113242.672500", "113240.087500", "113241.877500", "113240.287500", "113242.077500", "113240.485000", "113242.275000", "113240.685000", "113242.475000", "113241.082500", "113242.872500", "113241.280000", "113243.070000", "113241.480000", "113243.270000", "113241.680000", "113243.470000", "113240.882500", "113242.672500", "113240.087500", "113241.877500", "113240.287500", "113242.077500", "113240.485000", "113242.275000", "113240.685000", "113242.475000", "113241.082500", "113242.872500", "113241.280000", "113243.070000", "113241.480000", "113243.270000", "113241.680000", "113243.470000", "113240.882500", "113246.272500", "113243.687500", "113245.477500", "113243.887500", "113245.677500", "113244.085000", "113245.875000", "113244.285000", "113246.075000", "113244.682500", "113246.472500", "113244.880000", "113246.670000", "113245.080000", "113246.870000", "113245.280000", "113247.070000", "113244.482500", "113246.272500", "113243.687500", "113245.477500", "113243.887500", "113245.677500", "113244.085000", "113245.875000", "113244.285000", "113246.075000", "113244.682500", "113246.472500", "113244.880000", "113246.670000", "113245.080000", "113246.870000", "113245.280000", "113247.070000", "113244.482500", "113246.272500", "113243.687500", "113245.477500", "113243.887500", "113245.677500", "113244.085000", "113245.875000", "113244.285000", "113246.075000", "113244.682500", "113246.472500", "113244.880000", "113246.670000", "113245.080000", "113246.870000", "113245.280000", "113247.070000", "113244.482500", "113246.272500", "113243.687500", "113245.477500", "113243.887500", "113245.677500", "113244.085000", "113245.875000", "113244.285000", "113246.075000", "113244.682500", "113246.472500", "113244.880000", "113246.670000", "113245.080000", "113246.870000", "113245.280000", "113247.070000", "113244.482500", "113249.872500", "113247.287500", "113249.077500", "113247.487500", "113249.277500", "113247.685000", "113249.475000", "113247.885000", "113249.675000", "113248.282500", "113250.072500", "113248.480000", "113250.270000", "113248.680000", "113250.470000", "113248.880000", "113250.670000", "113248.082500", "113249.872500", "113247.287500", "113249.077500", "113247.487500", "113249.277500", "113247.685000", "113249.475000", "113247.885000", "113249.675000", "113248.282500", "113250.072500", "113248.480000", "113250.270000", "113248.680000", "113250.470000", "113248.880000", "113250.670000", "113248.082500", "113249.872500", "113247.287500", "113249.077500", "113247.487500", "113249.277500", "113247.685000", "113249.475000", "113247.885000", "113249.675000", "113248.282500", "113250.072500", "113248.480000", "113250.270000", "113248.680000", "113250.470000", "113248.880000", "113250.670000", "113248.082500", "113249.872500", "113247.287500", "113249.077500", "113247.487500", "113249.277500", "113247.685000", "113249.475000", "113247.885000", "113249.675000", "113248.282500", "113250.072500", "113248.480000", "113250.270000", "113248.680000", "113250.470000", "113248.880000", "113250.670000", "113248.082500", "113253.472500", "113250.887500", "113252.677500", "113251.087500", "113252.877500", "113251.285000", "113253.075000", "113251.485000", "113253.275000", "113251.882500", "113253.672500", "113252.080000", "113253.870000", "113252.280000", "113254.070000", "113252.480000", "113254.270000", "113251.682500", "113253.472500", "113250.887500", "113252.677500", "113251.087500", "113252.877500", "113251.285000", "113253.075000", "113251.485000", "113253.275000", "113251.882500", "113253.672500", "113252.080000", "113253.870000", "113252.280000", "113254.070000", "113252.480000", "113254.270000", "113251.682500", "113253.472500", "113250.887500", "113252.677500", "113251.087500", "113252.877500", "113251.285000", "113253.075000", "113251.485000", "113253.275000", "113251.882500", "113253.672500", "113252.080000", "113253.870000", "113252.280000", "113254.070000", "113252.480000", "113254.270000", "113251.682500", "113253.472500", "113250.887500", "113252.677500", "113251.087500", "113252.877500", "113251.285000", "113253.075000", "113251.485000", "113253.275000", "113251.882500", "113253.672500", "113252.080000", "113253.870000", "113252.280000", "113254.070000", "113252.480000", "113254.270000", "113251.682500", "113257.072500", "113254.487500", "113256.277500", "113254.687500", "113256.477500", "113254.885000", "113256.675000", "113255.085000", "113256.875000", "113255.482500", "113257.272500", "113255.680000", "113257.470000", "113255.880000", "113257.670000", "113256.080000", "113257.870000", "113255.282500", "113257.072500", "113254.487500", "113256.277500", "113254.687500", "113256.477500", "113254.885000", "113256.675000", "113255.085000", "113256.875000", "113255.482500", "113257.272500", "113255.680000", "113257.470000", "113255.880000", "113257.670000", "113256.080000", "113257.870000", "113255.282500", "113257.072500", "113254.487500", "113256.277500", "113254.687500", "113256.477500", "113254.885000", "113256.675000", "113255.085000", "113256.875000", "113255.482500", "113257.272500", "113255.680000", "113257.470000", "113255.880000", "113257.670000", "113256.080000", "113257.870000", "113255.282500", "113257.072500", "113254.487500", "113256.277500", "113254.687500", "113256.477500", "113254.885000", "113256.675000", "113255.085000", "113256.875000", "113255.482500", "113257.272500", "113255.680000", "113257.470000", "113255.880000", "113257.670000", "113256.080000", "113257.870000", "113255.282500", "113300.672500", "113258.087500", "113259.877500", "113258.287500", "113300.077500", "113258.485000", "113300.275000", "113258.685000", "113300.475000", "113259.082500", "113300.872500", "113259.280000", "113301.070000", "113259.480000", "113301.270000", "113259.680000", "113301.470000", "113258.882500", "113300.672500", "113258.087500", "113259.877500", "113258.287500", "113300.077500", "113258.485000", "113300.275000", "113258.685000", "113300.475000", "113259.082500", "113300.872500", "113259.280000", "113301.070000", "113259.480000", "113301.270000", "113259.680000", "113301.470000", "113258.882500", "113300.672500", "113258.087500", "113259.877500", "113258.287500", "113300.077500", "113258.485000", "113300.275000", "113258.685000", "113300.475000", "113259.082500", "113300.872500", "113259.280000", "113301.070000", "113259.480000", "113301.270000", "113259.680000", "113301.470000", "113258.882500", "113300.672500", "113258.087500", "113259.877500", "113258.287500", "113300.077500", "113258.485000", "113300.275000", "113258.685000", "113300.475000", "113259.082500", "113300.872500", "113259.280000", "113301.070000", "113259.480000", "113301.270000", "113259.680000", "113301.470000", "113258.882500", "113304.272500", "113301.687500", "113303.477500", "113301.887500", "113303.677500", "113302.085000", "113303.875000", "113302.285000", "113304.075000", "113302.682500", "113304.472500", "113302.880000", "113304.670000", "113303.080000", "113304.870000", "113303.280000", "113305.070000", "113302.482500", "113304.272500", "113301.687500", "113303.477500", "113301.887500", "113303.677500", "113302.085000", "113303.875000", "113302.285000", "113304.075000", "113302.682500", "113304.472500", "113302.880000", "113304.670000", "113303.080000", "113304.870000", "113303.280000", "113305.070000", "113302.482500", "113304.272500", "113301.687500", "113303.477500", "113301.887500", "113303.677500", "113302.085000", "113303.875000", "113302.285000", "113304.075000", "113302.682500", "113304.472500", "113302.880000", "113304.670000", "113303.080000", "113304.870000", "113303.280000", "113305.070000", "113302.482500", "113304.272500", "113301.687500", "113303.477500", "113301.887500", "113303.677500", "113302.085000", "113303.875000", "113302.285000", "113304.075000", "113302.682500", "113304.472500", "113302.880000", "113304.670000", "113303.080000", "113304.870000", "113303.280000", "113305.070000", "113302.482500", "113307.872500", "113305.287500", "113307.077500", "113305.487500", "113307.277500", "113305.685000", "113307.475000", "113305.885000", "113307.675000", "113306.282500", "113308.072500", "113306.480000", "113308.270000", "113306.680000", "113308.470000", "113306.880000", "113308.670000", "113306.082500", "113307.872500", "113305.287500", "113307.077500", "113305.487500", "113307.277500", "113305.685000", "113307.475000", "113305.885000", "113307.675000", "113306.282500", "113308.072500", "113306.480000", "113308.270000", "113306.680000", "113308.470000", "113306.880000", "113308.670000", "113306.082500", "113307.872500", "113305.287500", "113307.077500", "113305.487500", "113307.277500", "113305.685000", "113307.475000", "113305.885000", "113307.675000", "113306.282500", "113308.072500", "113306.480000", "113308.270000", "113306.680000", "113308.470000", "113306.880000", "113308.670000", "113306.082500", "113307.872500", "113305.287500", "113307.077500", "113305.487500", "113307.277500", "113305.685000", "113307.475000", "113305.885000", "113307.675000", "113306.282500", "113308.072500", "113306.480000", "113308.270000", "113306.680000", "113308.470000", "113306.880000", "113308.670000", "113306.082500", "113311.472500", "113308.887500", "113310.677500", "113309.087500", "113310.877500", "113309.285000", "113311.075000", "113309.485000", "113311.275000", "113309.882500", "113311.672500", "113310.080000", "113311.870000", "113310.280000", "113312.070000", "113310.480000", "113312.270000", "113309.682500", "113311.472500", "113308.887500", "113310.677500", "113309.087500", "113310.877500", "113309.285000", "113311.075000", "113309.485000", "113311.275000", "113309.882500", "113311.672500", "113310.080000", "113311.870000", "113310.280000", "113312.070000", "113310.480000", "113312.270000", "113309.682500", "113311.472500", "113308.887500", "113310.677500", "113309.087500", "113310.877500", "113309.285000", "113311.075000", "113309.485000", "113311.275000", "113309.882500", "113311.672500", "113310.080000", "113311.870000", "113310.280000", "113312.070000", "113310.480000", "113312.270000", "113309.682500", "113311.472500", "113308.887500", "113310.677500", "113309.087500", "113310.877500", "113309.285000", "113311.075000", "113309.485000", "113311.275000", "113309.882500", "113311.672500", "113310.080000", "113311.870000", "113310.280000", "113312.070000", "113310.480000", "113312.270000", "113309.682500", "113315.072500", "113312.487500", "113314.277500", "113312.687500", "113314.477500", "113312.885000", "113314.675000", "113313.085000", "113314.875000", "113313.482500", "113315.272500", "113313.680000", "113315.470000", "113313.880000", "113315.670000", "113314.080000", "113315.870000", "113313.282500", "113315.072500", "113312.487500", "113314.277500", "113312.687500", "113314.477500", "113312.885000", "113314.675000", "113313.085000", "113314.875000", "113313.482500", "113315.272500", "113313.680000", "113315.470000", "113313.880000", "113315.670000", "113314.080000", "113315.870000", "113313.282500", "113315.072500", "113312.487500", "113314.277500", "113312.687500", "113314.477500", "113312.885000", "113314.675000", "113313.085000", "113314.875000", "113313.482500", "113315.272500", "113313.680000", "113315.470000", "113313.880000", "113315.670000", "113314.080000", "113315.870000", "113313.282500", "113315.072500", "113312.487500", "113314.277500", "113312.687500", "113314.477500", "113312.885000", "113314.675000", "113313.085000", "113314.875000", "113313.482500", "113315.272500", "113313.680000", "113315.470000", "113313.880000", "113315.670000", "113314.080000", "113315.870000", "113313.282500", "113318.672500", "113316.087500", "113317.877500", "113316.287500", "113318.077500", "113316.485000", "113318.275000", "113316.685000", "113318.475000", "113317.082500", "113318.872500", "113317.280000", "113319.070000", "113317.480000", "113319.270000", "113317.680000", "113319.470000", "113316.882500", "113318.672500", "113316.087500", "113317.877500", "113316.287500", "113318.077500", "113316.485000", "113318.275000", "113316.685000", "113318.475000", "113317.082500", "113318.872500", "113317.280000", "113319.070000", "113317.480000", "113319.270000", "113317.680000", "113319.470000", "113316.882500", "113318.672500", "113316.087500", "113317.877500", "113316.287500", "113318.077500", "113316.485000", "113318.275000", "113316.685000", "113318.475000", "113317.082500", "113318.872500", "113317.280000", "113319.070000", "113317.480000", "113319.270000", "113317.680000", "113319.470000", "113316.882500", "113318.672500", "113316.087500", "113317.877500", "113316.287500", "113318.077500", "113316.485000", "113318.275000", "113316.685000", "113318.475000", "113317.082500", "113318.872500", "113317.280000", "113319.070000", "113317.480000", "113319.270000", "113317.680000", "113319.470000", "113316.882500", "113322.272500", "113319.687500", "113321.477500", "113319.887500", "113321.677500", "113320.085000", "113321.875000", "113320.285000", "113322.075000", "113320.682500", "113322.472500", "113320.880000", "113322.670000", "113321.080000", "113322.870000", "113321.280000", "113323.070000", "113320.482500", "113322.272500", "113319.687500", "113321.477500", "113319.887500", "113321.677500", "113320.085000", "113321.875000", "113320.285000", "113322.075000", "113320.682500", "113322.472500", "113320.880000", "113322.670000", "113321.080000", "113322.870000", "113321.280000", "113323.070000", "113320.482500", "113322.272500", "113319.687500", "113321.477500", "113319.887500", "113321.677500", "113320.085000", "113321.875000", "113320.285000", "113322.075000", "113320.682500", "113322.472500", "113320.880000", "113322.670000", "113321.080000", "113322.870000", "113321.280000", "113323.070000", "113320.482500", "113322.272500", "113319.687500", "113321.477500", "113319.887500", "113321.677500", "113320.085000", "113321.875000", "113320.285000", "113322.075000", "113320.682500", "113322.472500", "113320.880000", "113322.670000", "113321.080000", "113322.870000", "113321.280000", "113323.070000", "113320.482500", "113325.872500", "113323.287500", "113325.077500", "113323.487500", "113325.277500", "113323.685000", "113325.475000", "113323.885000", "113325.675000", "113324.282500", "113326.072500", "113324.480000", "113326.270000", "113324.680000", "113326.470000", "113324.880000", "113326.670000", "113324.082500", "113325.872500", "113323.287500", "113325.077500", "113323.487500", "113325.277500", "113323.685000", "113325.475000", "113323.885000", "113325.675000", "113324.282500", "113326.072500", "113324.480000", "113326.270000", "113324.680000", "113326.470000", "113324.880000", "113326.670000", "113324.082500", "113325.872500", "113323.287500", "113325.077500", "113323.487500", "113325.277500", "113323.685000", "113325.475000", "113323.885000", "113325.675000", "113324.282500", "113326.072500", "113324.480000", "113326.270000", "113324.680000", "113326.470000", "113324.880000", "113326.670000", "113324.082500", "113325.872500", "113323.287500", "113325.077500", "113323.487500", "113325.277500", "113323.685000", "113325.475000", "113323.885000", "113325.675000", "113324.282500", "113326.072500", "113324.480000", "113326.270000", "113324.680000", "113326.470000", "113324.880000", "113326.670000", "113324.082500", "113329.472500", "113326.887500", "113328.677500", "113327.087500", "113328.877500", "113327.285000", "113329.075000", "113327.485000", "113329.275000", "113327.882500", "113329.672500", "113328.080000", "113329.870000", "113328.280000", "113330.070000", "113328.480000", "113330.270000", "113327.682500", "113329.472500", "113326.887500", "113328.677500", "113327.087500", "113328.877500", "113327.285000", "113329.075000", "113327.485000", "113329.275000", "113327.882500", "113329.672500", "113328.080000", "113329.870000", "113328.280000", "113330.070000", "113328.480000", "113330.270000", "113327.682500", "113329.472500", "113326.887500", "113328.677500", "113327.087500", "113328.877500", "113327.285000", "113329.075000", "113327.485000", "113329.275000", "113327.882500", "113329.672500", "113328.080000", "113329.870000", "113328.280000", "113330.070000", "113328.480000", "113330.270000", "113327.682500", "113329.472500", "113326.887500", "113328.677500", "113327.087500", "113328.877500", "113327.285000", "113329.075000", "113327.485000", "113329.275000", "113327.882500", "113329.672500", "113328.080000", "113329.870000", "113328.280000", "113330.070000", "113328.480000", "113330.270000", "113327.682500", "113333.072500", "113330.487500", "113332.277500", "113330.687500", "113332.477500", "113330.885000", "113332.675000", "113331.085000", "113332.875000", "113331.482500", "113333.272500", "113331.680000", "113333.470000", "113331.880000", "113333.670000", "113332.080000", "113333.870000", "113331.282500", "113333.072500", "113330.487500", "113332.277500", "113330.687500", "113332.477500", "113330.885000", "113332.675000", "113331.085000", "113332.875000", "113331.482500", "113333.272500", "113331.680000", "113333.470000", "113331.880000", "113333.670000", "113332.080000", "113333.870000", "113331.282500", "113333.072500", "113330.487500", "113332.277500", "113330.687500", "113332.477500", "113330.885000", "113332.675000", "113331.085000", "113332.875000", "113331.482500", "113333.272500", "113331.680000", "113333.470000", "113331.880000", "113333.670000", "113332.080000", "113333.870000", "113331.282500", "113333.072500", "113330.487500", "113332.277500", "113330.687500", "113332.477500", "113330.885000", "113332.675000", "113331.085000", "113332.875000", "113331.482500", "113333.272500", "113331.680000", "113333.470000", "113331.880000", "113333.670000", "113332.080000", "113333.870000", "113331.282500", "113336.672500", "113334.087500", "113335.877500", "113334.287500", "113336.077500", "113334.485000", "113336.275000", "113334.685000", "113336.475000", "113335.082500", "113336.872500", "113335.280000", "113337.070000", "113335.480000", "113337.270000", "113335.680000", "113337.470000", "113334.882500", "113336.672500", "113334.087500", "113335.877500", "113334.287500", "113336.077500", "113334.485000", "113336.275000", "113334.685000", "113336.475000", "113335.082500", "113336.872500", "113335.280000", "113337.070000", "113335.480000", "113337.270000", "113335.680000", "113337.470000", "113334.882500", "113336.672500", "113334.087500", "113335.877500", "113334.287500", "113336.077500", "113334.485000", "113336.275000", "113334.685000", "113336.475000", "113335.082500", "113336.872500", "113335.280000", "113337.070000", "113335.480000", "113337.270000", "113335.680000", "113337.470000", "113334.882500", "113336.672500", "113334.087500", "113335.877500", "113334.287500", "113336.077500", "113334.485000", "113336.275000", "113334.685000", "113336.475000", "113335.082500", "113336.872500", "113335.280000", "113337.070000", "113335.480000", "113337.270000", "113335.680000", "113337.470000", "113334.882500", "113340.272500", "113337.687500", "113339.477500", "113337.887500", "113339.677500", "113338.085000", "113339.875000", "113338.285000", "113340.075000", "113338.682500", "113340.472500", "113338.880000", "113340.670000", "113339.080000", "113340.870000", "113339.280000", "113341.070000", "113338.482500", "113340.272500", "113337.687500", "113339.477500", "113337.887500", "113339.677500", "113338.085000", "113339.875000", "113338.285000", "113340.075000", "113338.682500", "113340.472500", "113338.880000", "113340.670000", "113339.080000", "113340.870000", "113339.280000", "113341.070000", "113338.482500", "113340.272500", "113337.687500", "113339.477500", "113337.887500", "113339.677500", "113338.085000", "113339.875000", "113338.285000", "113340.075000", "113338.682500", "113340.472500", "113338.880000", "113340.670000", "113339.080000", "113340.870000", "113339.280000", "113341.070000", "113338.482500", "113340.272500", "113337.687500", "113339.477500", "113337.887500", "113339.677500", "113338.085000", "113339.875000", "113338.285000", "113340.075000", "113338.682500", "113340.472500", "113338.880000", "113340.670000", "113339.080000", "113340.870000", "113339.280000", "113341.070000", "113338.482500", "113343.872500", "113341.287500", "113343.077500", "113341.487500", "113343.277500", "113341.685000", "113343.475000", "113341.885000", "113343.675000", "113342.282500", "113344.072500", "113342.480000", "113344.270000", "113342.680000", "113344.470000", "113342.880000", "113344.670000", "113342.082500", "113343.872500", "113341.287500", "113343.077500", "113341.487500", "113343.277500", "113341.685000", "113343.475000", "113341.885000", "113343.675000", "113342.282500", "113344.072500", "113342.480000", "113344.270000", "113342.680000", "113344.470000", "113342.880000", "113344.670000", "113342.082500", "113343.872500", "113341.287500", "113343.077500", "113341.487500", "113343.277500", "113341.685000", "113343.475000", "113341.885000", "113343.675000", "113342.282500", "113344.072500", "113342.480000", "113344.270000", "113342.680000", "113344.470000", "113342.880000", "113344.670000", "113342.082500", "113343.872500", "113341.287500", "113343.077500", "113341.487500", "113343.277500", "113341.685000", "113343.475000", "113341.885000", "113343.675000", "113342.282500", "113344.072500", "11334