{
  "AcquisitionMatrixPE": 122,
  "AcquisitionNumber": 1,
  "AcquisitionTime": "11:28:13.987500",
  "BandwidthPerPixelPhaseEncode": 28.76,
  "BaseResolution": 122,
  "BodyPartExamined": "BRAIN",
  "CoilCombinationMethod": "Adaptive Combine",
  "ConsistencyInfo": "N4_VE11C_LATEST_20160120",
  "ConversionSoftware": "dcm2niix",
  "ConversionSoftwareVersion": "v1.0.20220720",
  "DerivedVendorReportedEchoSpacing": 0.000570008,
  "DeviceSerialNumber": "66112",
  "DiffusionScheme": "Monopolar",
  "DwellTime": 2e-06,
  "EchoTime": 0.075,
  "EchoTrainLength": 61,
  "EffectiveEchoSpacing": 0.000285004,
  "FlipAngle": 90,
  "HeudiconvVersion": "0.13.1",
  "ImageOrientationPatientDICOM": [0.986039, 0.166327, 0.00787724, -0.160587, 0.937367, 0.309119],
  "ImageOrientationText": "Tra>Cor(17.8)>Sag(-2.5)",
  "ImageType": [
    "ORIGINAL",
    "PRIMARY",
    "DIFFUSION",
    "NONE",
    "ND",
    "NORM"
],
  "ImagingFrequency": 123.252,
  "InPlanePhaseEncodingDirectionDICOM": "COL",
  "InstitutionAddress": "Maynard 3,Hanover,NH,US,03755",
  "InstitutionName": "Dartmouth College - PBS",
  "InstitutionalDepartmentName": "Department",
  "MRAcquisitionType": "2D",
  "MagneticFieldStrength": 3,
  "Manufacturer": "Siemens",
  "ManufacturersModelName": "Prisma",
  "MatrixCoilMode": "GRAPPA",
  "Modality": "MR",
  "NonlinearGradientCorrection": false,
  "ParallelReductionFactorInPlane": 2,
  "PartialFourier": 1,
  "PatientPosition": "HFS",
  "PercentPhaseFOV": 100,
  "PercentSampling": 100,
  "PhaseEncodingDirection": "j-",
  "PhaseEncodingSteps": 122,
  "PhaseResolution": 1,
  "PixelBandwidth": 2050,
  "ProcedureStepDescription": "dbic^QA",
  "ProtocolName": "dwi_acq-DTI-30-p2",
  "PulseSequenceDetails": "%SiemensSeq%\\ep2d_diff",
  "ReceiveCoilActiveElements": "HEA;HEP",
  "ReceiveCoilName": "Head_32",
  "ReconMatrixPE": 122,
  "RefLinesPE": 38,
  "RepetitionTime": 7.7,
  "SAR": 0.101931,
  "ScanOptions": "FS",
  "ScanningSequence": "EP",
  "SequenceName": "*ep_b0",
  "SequenceVariant": "SK\\SP",
  "SeriesDescription": "dwi_acq-DTI-30-p2",
  "SeriesNumber": 12,
  "ShimSetting": [4146, -7698, -7518, 288, -37, -132, -14, 98],
  "SliceThickness": 2,
  "SliceTiming": [3.83594, 0, 3.94531, 0.10938, 4.0625, 0.21875, 4.17188, 0.32812, 4.27344, 0.4375, 4.38281, 0.54688, 4.5, 0.65625, 4.60938, 0.76562, 4.71875, 0.875, 4.82812, 0.98438, 4.9375, 1.09375, 5.04688, 1.20312, 5.15625, 1.32031, 5.26562, 1.42188, 5.375, 1.53125, 5.48438, 1.64062, 5.59375, 1.75781, 5.70312, 1.86719, 5.8125, 1.97656, 5.92188, 2.08594, 6.03125, 2.19531, 6.14062, 2.30469, 6.25, 2.41406, 6.35938, 2.52344, 6.46875, 2.63281, 6.57812, 2.74219, 6.69531, 2.85156, 6.80469, 2.96094, 6.91406, 3.07031, 7.01562, 3.17969, 7.13281, 3.28906, 7.24219, 3.39844, 7.35156, 3.50781, 7.46094, 3.61719, 7.57031, 3.72656],
  "SoftwareVersions": "syngo MR E11",
  "SpacingBetweenSlices": 2,
  "SpoilingState": true,
  "StationName": "AWP66112",
  "TotalReadoutTime": 0.0344855,
  "TxRefAmp": 220.655,
  "dcmmeta_affine": [
    [-1.9397491216659546, -0.3159082233905792, -0.08806219696998596, 142.7811279296875],
    [-0.3272012174129486, 1.844001054763794, 0.6121387481689453, -115.18058013916016],
    [0.01549620646983385, -0.608103334903717, 1.9019813537597656, -31.46665382385254],
    [0.0, 0.0, 0.0, 1.0]
],
  "dcmmeta_reorient_transform": [
    [0.0, -1.0, 0.0, 121.0],
    [1.0, 0.0, 0.0, 0.0],
    [0.0, 0.0, -1.0, 69.0],
    [0.0, 0.0, 0.0, 1.0]
],
  "dcmmeta_shape": [122, 122, 70, 31],
  "dcmmeta_slice_dim": 2,
  "dcmmeta_version": 0.6,
  "global": {
    "const": {
      "AccessionNumber": "qa",
      "AcquisitionMatrix": [122, 0, 0, 122],
      "AngioFlag": "N",
      "BitsAllocated": 16,
      "BitsStored": 12,
      "BodyPartExamined": "BRAIN",
      "Columns": 122,
      "EchoNumbers": 1,
      "EchoTime": 75.0,
      "EchoTrainLength": 61,
      "FlipAngle": 90.0,
      "HighBit": 11,
      "ImageOrientationPatient": [0.98603913824679, 0.16632728870099, 0.00787723802584, -0.1605866762181, 0.93736718440799, 0.30911920195332],
      "ImageType": [
        "ORIGINAL",
        "PRIMARY",
        "DIFFUSION",
        "NONE",
        "ND",
        "NORM"
],
      "ImagedNucleus": "1H",
      "ImagingFrequency": 123.252363,
      "InPlanePhaseEncodingDirection": "COL",
      "MRAcquisitionType": "2D",
      "MagneticFieldStrength": 3.0,
      "Manufacturer": "SIEMENS",
      "ManufacturerModelName": "Prisma",
      "Modality": "MR",
      "NumberOfAverages": 1.0,
      "NumberOfPhaseEncodingSteps": 122,
      "PercentPhaseFieldOfView": 100.0,
      "PercentSampling": 100.0,
      "PerformedProcedureStepStartTime": "105617.962000",
      "PhotometricInterpretation": "MONOCHROME2",
      "PixelBandwidth": 2050.0,
      "PixelRepresentation": 0,
      "PixelSpacing": [1.9672131538391, 1.9672131538391],
      "ProtocolName": "dwi_acq-DTI-30-p2",
      "RepetitionTime": 7700.0,
      "Rows": 122,
      "SAR": 0.10193137697355,
      "SamplesPerPixel": 1,
      "ScanOptions": "FS",
      "ScanningSequence": "EP",
      "SequenceVariant": [
        "SK",
        "SP"
],
      "SeriesDescription": "dwi_acq-DTI-30-p2",
      "SeriesNumber": 12,
      "SeriesTime": "112823.788000",
      "SliceThickness": 2.0,
      "SmallestImagePixelValue": 0,
      "SoftwareVersions": "syngo MR E11",
      "SpacingBetweenSlices": 2.0,
      "SpecificCharacterSet": "ISO_IR 100",
      "StudyID": "26",
      "StudyTime": "105617.903000",
      "TransmitCoilName": "Body",
      "VariableFlipAngleFlag": "N",
      "WindowCenterWidthExplanation": "Algo1",
      "dBdt": 0.0},
    "slices": {
      "AcquisitionTime": ["112813.987500", "112810.147500", "112814.097500", "112810.257500", "112814.207500", "112810.367500", "112814.317500", "112810.477500", "112814.425000", "112810.585000", "112814.535000", "112810.695000", "112814.645000", "112810.805000", "112814.755000", "112810.915000", "112814.865000", "112811.025000", "112814.975000", "112811.135000", "112815.085000", "112811.245000", "112815.195000", "112811.355000", "112815.302500", "112811.465000", "112815.412500", "112811.572500", "112815.522500", "112811.682500", "112815.632500", "112811.792500", "112815.742500", "112811.902500", "112815.852500", "112812.012500", "112815.962500", "112812.122500", "112816.072500", "112812.232500", "112816.182500", "112812.342500", "112816.290000", "112812.450000", "112816.400000", "112812.560000", "112816.510000", "112812.670000", "112816.620000", "112812.780000", "112816.730000", "112812.890000", "112816.840000", "112813.000000", "112816.950000", "112813.110000", "112817.060000", "112813.220000", "112817.167500", "112813.330000", "112817.277500", "112813.437500", "112817.387500", "112813.547500", "112817.497500", "112813.657500", "112817.607500", "112813.767500", "112817.717500", "112813.877500", "112821.687500", "112817.847500", "112821.797500", "112817.957500", "112821.907500", "112818.067500", "112822.017500", "112818.177500", "112822.125000", "112818.285000", "112822.235000", "112818.395000", "112822.345000", "112818.505000", "112822.455000", "112818.615000", "112822.565000", "112818.725000", "112822.675000", "112818.835000", "112822.785000", "112818.945000", "112822.895000", "112819.055000", "112823.002500", "112819.165000", "112823.112500", "112819.272500", "112823.222500", "112819.382500", "112823.332500", "112819.492500", "112823.442500", "112819.602500", "112823.552500", "112819.712500", "112823.662500", "112819.822500", "112823.772500", "112819.932500", "112823.882500", "112820.042500", "112823.990000", "112820.150000", "112824.100000", "112820.260000", "112824.210000", "112820.370000", "112824.320000", "112820.480000", "112824.430000", "112820.590000", "112824.540000", "112820.700000", "112824.650000", "112820.810000", "112824.760000", "112820.920000", "112824.867500", "112821.030000", "112824.977500", "112821.137500", "112825.087500", "112821.247500", "112825.197500", "112821.357500", "112825.307500", "112821.467500", "112825.417500", "112821.577500", "112829.387500", "112825.547500", "112829.497500", "112825.657500", "112829.607500", "112825.767500", "112829.717500", "112825.877500", "112829.825000", "112825.985000", "112829.935000", "112826.095000", "112830.045000", "112826.205000", "112830.155000", "112826.315000", "112830.265000", "112826.425000", "112830.375000", "112826.535000", "112830.485000", "112826.645000", "112830.595000", "112826.755000", "112830.702500", "112826.865000", "112830.812500", "112826.972500", "112830.922500", "112827.082500", "112831.032500", "112827.192500", "112831.142500", "112827.302500", "112831.252500", "112827.412500", "112831.362500", "112827.522500", "112831.472500", "112827.632500", "112831.582500", "112827.742500", "112831.690000", "112827.850000", "112831.800000", "112827.960000", "112831.910000", "112828.070000", "112832.020000", "112828.180000", "112832.130000", "112828.290000", "112832.240000", "112828.400000", "112832.350000", "112828.510000", "112832.460000", "112828.620000", "112832.567500", "112828.730000", "112832.677500", "112828.837500", "112832.787500", "112828.947500", "112832.897500", "112829.057500", "112833.007500", "112829.167500", "112833.117500", "112829.277500", "112837.087500", "112833.247500", "112837.197500", "112833.357500", "112837.307500", "112833.467500", "112837.417500", "112833.577500", "112837.525000", "112833.685000", "112837.635000", "112833.795000", "112837.745000", "112833.905000", "112837.855000", "112834.015000", "112837.965000", "112834.125000", "112838.075000", "112834.235000", "112838.185000", "112834.345000", "112838.295000", "112834.455000", "112838.402500", "112834.565000", "112838.512500", "112834.672500", "112838.622500", "112834.782500", "112838.732500", "112834.892500", "112838.842500", "112835.002500", "112838.952500", "112835.112500", "112839.062500", "112835.222500", "112839.172500", "112835.332500", "112839.282500", "112835.442500", "112839.390000", "112835.550000", "112839.500000", "112835.660000", "112839.610000", "112835.770000", "112839.720000", "112835.880000", "112839.830000", "112835.990000", "112839.940000", "112836.100000", "112840.050000", "112836.210000", "112840.160000", "112836.320000", "112840.267500", "112836.430000", "112840.377500", "112836.537500", "112840.487500", "112836.647500", "112840.597500", "112836.757500", "112840.707500", "112836.867500", "112840.817500", "112836.977500", "112844.787500", "112840.947500", "112844.897500", "112841.057500", "112845.007500", "112841.167500", "112845.117500", "112841.277500", "112845.225000", "112841.385000", "112845.335000", "112841.495000", "112845.445000", "112841.605000", "112845.555000", "112841.715000", "112845.665000", "112841.825000", "112845.775000", "112841.935000", "112845.885000", "112842.045000", "112845.995000", "112842.155000", "112846.102500", "112842.265000", "112846.212500", "112842.372500", "112846.322500", "112842.482500", "112846.432500", "112842.592500", "112846.542500", "112842.702500", "112846.652500", "112842.812500", "112846.762500", "112842.922500", "112846.872500", "112843.032500", "112846.982500", "112843.142500", "112847.090000", "112843.250000", "112847.200000", "112843.360000", "112847.310000", "112843.470000", "112847.420000", "112843.580000", "112847.530000", "112843.690000", "112847.640000", "112843.800000", "112847.750000", "112843.910000", "112847.860000", "112844.020000", "112847.967500", "112844.130000", "112848.077500", "112844.237500", "112848.187500", "112844.347500", "112848.297500", "112844.457500", "112848.407500", "112844.567500", "112848.517500", "112844.677500", "112852.487500", "112848.647500", "112852.597500", "112848.757500", "112852.707500", "112848.867500", "112852.817500", "112848.977500", "112852.925000", "112849.085000", "112853.035000", "112849.195000", "112853.145000", "112849.305000", "112853.255000", "112849.415000", "112853.365000", "112849.525000", "112853.475000", "112849.635000", "112853.585000", "112849.745000", "112853.695000", "112849.855000", "112853.802500", "112849.965000", "112853.912500", "112850.072500", "112854.022500", "112850.182500", "112854.132500", "112850.292500", "112854.242500", "112850.402500", "112854.352500", "112850.512500", "112854.462500", "112850.622500", "112854.572500", "112850.732500", "112854.682500", "112850.842500", "112854.790000", "112850.950000", "112854.900000", "112851.060000", "112855.010000", "112851.170000", "112855.120000", "112851.280000", "112855.230000", "112851.390000", "112855.340000", "112851.500000", "112855.450000", "112851.610000", "112855.560000", "112851.720000", "112855.667500", "112851.830000", "112855.777500", "112851.937500", "112855.887500", "112852.047500", "112855.997500", "112852.157500", "112856.107500", "112852.267500", "112856.217500", "112852.377500", "112900.187500", "112856.347500", "112900.297500", "112856.457500", "112900.407500", "112856.567500", "112900.517500", "112856.677500", "112900.625000", "112856.785000", "112900.735000", "112856.895000", "112900.845000", "112857.005000", "112900.955000", "112857.115000", "112901.065000", "112857.225000", "112901.175000", "112857.335000", "112901.285000", "112857.445000", "112901.395000", "112857.555000", "112901.502500", "112857.665000", "112901.612500", "112857.772500", "112901.722500", "112857.882500", "112901.832500", "112857.992500", "112901.942500", "112858.102500", "112902.052500", "112858.212500", "112902.162500", "112858.322500", "112902.272500", "112858.432500", "112902.382500", "112858.542500", "112902.490000", "112858.650000", "112902.600000", "112858.760000", "112902.710000", "112858.870000", "112902.820000", "112858.980000", "112902.930000", "112859.090000", "112903.040000", "112859.200000", "112903.150000", "112859.310000", "112903.260000", "112859.420000", "112903.367500", "112859.530000", "112903.477500", "112859.637500", "112903.587500", "112859.747500", "112903.697500", "112859.857500", "112903.807500", "112859.967500", "112903.917500", "112900.077500", "112907.887500", "112904.047500", "112907.997500", "112904.157500", "112908.107500", "112904.267500", "112908.217500", "112904.377500", "112908.325000", "112904.485000", "112908.435000", "112904.595000", "112908.545000", "112904.705000", "112908.655000", "112904.815000", "112908.765000", "112904.925000", "112908.875000", "112905.035000", "112908.985000", "112905.145000", "112909.095000", "112905.255000", "112909.202500", "112905.365000", "112909.312500", "112905.472500", "112909.422500", "112905.582500", "112909.532500", "112905.692500", "112909.642500", "112905.802500", "112909.752500", "112905.912500", "112909.862500", "112906.022500", "112909.972500", "112906.132500", "112910.082500", "112906.242500", "112910.190000", "112906.350000", "112910.300000", "112906.460000", "112910.410000", "112906.570000", "112910.520000", "112906.680000", "112910.630000", "112906.790000", "112910.740000", "112906.900000", "112910.850000", "112907.010000", "112910.960000", "112907.120000", "112911.067500", "112907.230000", "112911.177500", "112907.337500", "112911.287500", "112907.447500", "112911.397500", "112907.557500", "112911.507500", "112907.667500", "112911.617500", "112907.777500", "112915.587500", "112911.747500", "112915.697500", "112911.857500", "112915.807500", "112911.967500", "112915.917500", "112912.077500", "112916.025000", "112912.185000", "112916.135000", "112912.295000", "112916.245000", "112912.405000", "112916.355000", "112912.515000", "112916.465000", "112912.625000", "112916.575000", "112912.735000", "112916.685000", "112912.845000", "112916.795000", "112912.955000", "112916.902500", "112913.065000", "112917.012500", "112913.172500", "112917.122500", "112913.282500", "112917.232500", "112913.392500", "112917.342500", "112913.502500", "112917.452500", "112913.612500", "112917.562500", "112913.722500", "112917.672500", "112913.832500", "112917.782500", "112913.942500", "112917.890000", "112914.050000", "112918.000000", "112914.160000", "112918.110000", "112914.270000", "112918.220000", "112914.380000", "112918.330000", "112914.490000", "112918.440000", "112914.600000", "112918.550000", "112914.710000", "112918.660000", "112914.820000", "112918.767500", "112914.930000", "112918.877500", "112915.037500", "112918.987500", "112915.147500", "112919.097500", "112915.257500", "112919.207500", "112915.367500", "112919.317500", "112915.477500", "112923.287500", "112919.447500", "112923.397500", "112919.557500", "112923.507500", "112919.667500", "112923.617500", "112919.777500", "112923.725000", "112919.885000", "112923.835000", "112919.995000", "112923.945000", "112920.105000", "112924.055000", "112920.215000", "112924.165000", "112920.325000", "112924.275000", "112920.435000", "112924.385000", "112920.545000", "112924.495000", "112920.655000", "112924.602500", "112920.765000", "112924.712500", "112920.872500", "112924.822500", "112920.982500", "112924.932500", "112921.092500", "112925.042500", "112921.202500", "112925.152500", "112921.312500", "112925.262500", "112921.422500", "112925.372500", "112921.532500", "112925.482500", "112921.642500", "112925.590000", "112921.750000", "112925.700000", "112921.860000", "112925.810000", "112921.970000", "112925.920000", "112922.080000", "112926.030000", "112922.190000", "112926.140000", "112922.300000", "112926.250000", "112922.410000", "112926.360000", "112922.520000", "112926.467500", "112922.630000", "112926.577500", "112922.737500", "112926.687500", "112922.847500", "112926.797500", "112922.957500", "112926.907500", "112923.067500", "112927.017500", "112923.177500", "112930.987500", "112927.147500", "112931.097500", "112927.257500", "112931.207500", "112927.367500", "112931.317500", "112927.477500", "112931.425000", "112927.585000", "112931.535000", "112927.695000", "112931.645000", "112927.805000", "112931.755000", "112927.915000", "112931.865000", "112928.025000", "112931.975000", "112928.135000", "112932.085000", "112928.245000", "112932.195000", "112928.355000", "112932.302500", "112928.465000", "112932.412500", "112928.572500", "112932.522500", "112928.682500", "112932.632500", "112928.792500", "112932.742500", "112928.902500", "112932.852500", "112929.012500", "112932.962500", "112929.122500", "112933.072500", "112929.232500", "112933.182500", "112929.342500", "112933.290000", "112929.450000", "112933.400000", "112929.560000", "112933.510000", "112929.670000", "112933.620000", "112929.780000", "112933.730000", "112929.890000", "112933.840000", "112930.000000", "112933.950000", "112930.110000", "112934.060000", "112930.220000", "112934.167500", "112930.330000", "112934.277500", "112930.437500", "112934.387500", "112930.547500", "112934.497500", "112930.657500", "112934.607500", "112930.767500", "112934.717500", "112930.877500", "112938.687500", "112934.847500", "112938.797500", "112934.957500", "112938.907500", "112935.067500", "112939.017500", "112935.177500", "112939.125000", "112935.285000", "112939.235000", "112935.395000", "112939.345000", "112935.505000", "112939.455000", "112935.615000", "112939.565000", "112935.725000", "112939.675000", "112935.835000", "112939.785000", "112935.945000", "112939.895000", "112936.055000", "112940.002500", "112936.165000", "112940.112500", "112936.272500", "112940.222500", "112936.382500", "112940.332500", "112936.492500", "112940.442500", "112936.602500", "112940.552500", "112936.712500", "112940.662500", "112936.822500", "112940.772500", "112936.932500", "112940.882500", "112937.042500", "112940.990000", "112937.150000", "112941.100000", "112937.260000", "112941.210000", "112937.370000", "112941.320000", "112937.480000", "112941.430000", "112937.590000", "112941.540000", "112937.700000", "112941.650000", "112937.810000", "112941.760000", "112937.920000", "112941.867500", "112938.030000", "112941.977500", "112938.137500", "112942.087500", "112938.247500", "112942.197500", "112938.357500", "112942.307500", "112938.467500", "112942.417500", "112938.577500", "112946.387500", "112942.547500", "112946.497500", "112942.657500", "112946.607500", "112942.767500", "112946.717500", "112942.877500", "112946.825000", "112942.985000", "112946.935000", "112943.095000", "112947.045000", "112943.205000", "112947.155000", "112943.315000", "112947.265000", "112943.425000", "112947.375000", "112943.535000", "112947.485000", "112943.645000", "112947.595000", "112943.755000", "112947.702500", "112943.865000", "112947.812500", "112943.972500", "112947.922500", "112944.082500", "112948.032500", "112944.192500", "112948.142500", "112944.302500", "112948.252500", "112944.412500", "112948.362500", "112944.522500", "112948.472500", "112944.632500", "112948.582500", "112944.742500", "112948.690000", "112944.850000", "112948.800000", "112944.960000", "112948.910000", "112945.070000", "112949.020000", "112945.180000", "112949.130000", "112945.290000", "112949.240000", "112945.400000", "112949.350000", "112945.510000", "112949.460000", "112945.620000", "112949.567500", "112945.730000", "112949.677500", "112945.837500", "112949.787500", "112945.947500", "112949.897500", "112946.057500", "112950.007500", "112946.167500", "112950.117500", "112946.277500", "112954.087500", "112950.247500", "112954.197500", "112950.357500", "112954.307500", "112950.467500", "112954.417500", "112950.577500", "112954.525000", "112950.685000", "112954.635000", "112950.795000", "112954.745000", "112950.905000", "112954.855000", "112951.015000", "112954.965000", "112951.125000", "112955.075000", "112951.235000", "112955.185000", "112951.345000", "112955.295000", "112951.455000", "112955.402500", "112951.565000", "112955.512500", "112951.672500", "112955.622500", "112951.782500", "112955.732500", "112951.892500", "112955.842500", "112952.002500", "112955.952500", "112952.112500", "112956.062500", "112952.222500", "112956.172500", "112952.332500", "112956.282500", "112952.442500", "112956.390000", "112952.550000", "112956.500000", "112952.660000", "112956.610000", "112952.770000", "112956.720000", "112952.880000", "112956.830000", "112952.990000", "112956.940000", "112953.100000", "112957.050000", "112953.210000", "112957.160000", "112953.320000", "112957.267500", "112953.430000", "112957.377500", "112953.537500", "112957.487500", "112953.647500", "112957.597500", "112953.757500", "112957.707500", "112953.867500", "112957.817500", "112953.977500", "113001.787500", "112957.947500", "113001.897500", "112958.057500", "113002.007500", "112958.167500", "113002.117500", "112958.277500", "113002.225000", "112958.385000", "113002.335000", "112958.495000", "113002.445000", "112958.605000", "113002.555000", "112958.715000", "113002.665000", "112958.825000", "113002.775000", "112958.935000", "113002.885000", "112959.045000", "113002.995000", "112959.155000", "113003.102500", "112959.265000", "113003.212500", "112959.372500", "113003.322500", "112959.482500", "113003.432500", "112959.592500", "113003.542500", "112959.702500", "113003.652500", "112959.812500", "113003.762500", "112959.922500", "113003.872500", "113000.032500", "113003.982500", "113000.142500", "113004.090000", "113000.250000", "113004.200000", "113000.360000", "113004.310000", "113000.470000", "113004.420000", "113000.580000", "113004.530000", "113000.690000", "113004.640000", "113000.800000", "113004.750000", "113000.910000", "113004.860000", "113001.020000", "113004.967500", "113001.130000", "113005.077500", "113001.237500", "113005.187500", "113001.347500", "113005.297500", "113001.457500", "113005.407500", "113001.567500", "113005.517500", "113001.677500", "113009.487500", "113005.647500", "113009.597500", "113005.757500", "113009.707500", "113005.867500", "113009.817500", "113005.977500", "113009.925000", "113006.085000", "113010.035000", "113006.195000", "113010.145000", "113006.305000", "113010.255000", "113006.415000", "113010.365000", "113006.525000", "113010.475000", "113006.635000", "113010.585000", "113006.745000", "113010.695000", "113006.855000", "113010.802500", "113006.965000", "113010.912500", "113007.072500", "113011.022500", "113007.182500", "113011.132500", "113007.292500", "113011.242500", "113007.402500", "113011.352500", "113007.512500", "113011.462500", "113007.622500", "113011.572500", "113007.732500", "113011.682500", "113007.842500", "113011.790000", "113007.950000", "113011.900000", "113008.060000", "113012.010000", "113008.170000", "113012.120000", "113008.280000", "113012.230000", "113008.390000", "113012.340000", "113008.500000", "113012.450000", "113008.610000", "113012.560000", "113008.720000", "113012.667500", "113008.830000", "113012.777500", "113008.937500", "113012.887500", "113009.047500", "113012.997500", "113009.157500", "113013.107500", "113009.267500", "113013.217500", "113009.377500", "113017.187500", "113013.347500", "113017.297500", "113013.457500", "113017.407500", "113013.567500", "113017.517500", "113013.677500", "113017.625000", "113013.785000", "113017.735000", "113013.895000", "113017.845000", "113014.005000", "113017.955000", "113014.115000", "113018.065000", "113014.225000", "113018.175000", "113014.335000", "113018.285000", "113014.445000", "113018.395000", "113014.555000", "113018.502500", "113014.665000", "113018.612500", "113014.772500", "113018.722500", "113014.882500", "113018.832500", "113014.992500", "113018.942500", "113015.102500", "113019.052500", "113015.212500", "113019.162500", "113015.322500", "113019.272500", "113015.432500", "113019.382500", "113015.542500", "113019.490000", "113015.650000", "113019.600000", "113015.760000", "113019.710000", "113015.870000", "113019.820000", "113015.980000", "113019.930000", "113016.090000", "113020.040000", "113016.200000", "113020.150000", "113016.310000", "113020.260000", "113016.420000", "113020.367500", "113016.530000", "113020.477500", "113016.637500", "113020.587500", "113016.747500", "113020.697500", "113016.857500", "113020.807500", "113016.967500", "113020.917500", "113017.077500", "113024.887500", "113021.047500", "113024.997500", "113021.157500", "113025.107500", "113021.267500", "113025.217500", "113021.377500", "113025.325000", "113021.485000", "113025.435000", "113021.595000", "113025.545000", "113021.705000", "113025.655000", "113021.815000", "113025.765000", "113021.925000", "113025.875000", "113022.035000", "113025.985000", "113022.145000", "113026.095000", "113022.255000", "113026.202500", "113022.365000", "113026.312500", "113022.472500", "113026.422500", "113022.582500", "113026.532500", "113022.692500", "113026.642500", "113022.802500", "113026.752500", "113022.912500", "113026.862500", "113023.022500", "113026.972500", "113023.132500", "113027.082500", "113023.242500", "113027.190000", "113023.350000", "113027.300000", "113023.460000", "113027.410000", "113023.570000", "113027.520000", "113023.680000", "113027.630000", "113023.790000", "113027.740000", "113023.900000", "113027.850000", "113024.010000", "113027.960000", "113024.120000", "113028.067500", "113024.230000", "113028.177500", "113024.337500", "113028.287500", "113024.447500", "113028.397500", "113024.557500", "113028.507500", "113024.667500", "113028.617500", "113024.777500", "113032.587500", "113028.747500", "113032.697500", "113028.857500", "113032.807500", "113028.967500", "113032.917500", "113029.077500", "113033.025000", "113029.185000", "113033.135000", "113029.295000", "113033.245000", "113029.405000", "113033.355000", "113029.515000", "113033.465000", "113029.625000", "113033.575000", "113029.735000", "113033.685000", "113029.845000", "113033.795000", "113029.955000", "113033.902500", "113030.065000", "113034.012500", "113030.172500", "113034.122500", "113030.282500", "113034.232500", "113030.392500", "113034.342500", "113030.502500", "113034.452500", "113030.612500", "113034.562500", "113030.722500", "113034.672500", "113030.832500", "113034.782500", "113030.942500", "113034.890000", "113031.050000", "113035.000000", "113031.160000", "113035.110000", "113031.270000", "113035.220000", "113031.380000", "113035.330000", "113031.490000", "113035.440000", "113031.600000", "113035.550000", "113031.710000", "113035.660000", "113031.820000", "113035.767500", "113031.930000", "113035.877500", "113032.037500", "113035.987500", "113032.147500", "113036.097500", "113032.257500", "113036.207500", "113032.367500", "113036.317500", "113032.477500", "113040.287500", "113036.447500", "113040.397500", "113036.557500", "113040.507500", "113036.667500", "113040.617500", "113036.777500", "113040.725000", "113036.885000", "113040.835000", "113036.995000", "113040.945000", "113037.105000", "113041.055000", "113037.215000", "113041.165000", "113037.325000", "113041.275000", "113037.435000", "113041.385000", "113037.545000", "113041.495000", "113037.655000", "113041.602500", "113037.765000", "113041.712500", "113037.872500", "113041.822500", "113037.982500", "113041.932500", "113038.092500", "113042.042500", "113038.202500", "113042.152500", "113038.312500", "113042.262500", "113038.422500", "113042.372500", "113038.532500", "113042.482500", "113038.642500", "113042.590000", "113038.750000", "113042.700000", "113038.860000", "113042.810000", "113038.970000", "113042.920000", "113039.080000", "113043.030000", "113039.190000", "113043.140000", "113039.300000", "113043.250000", "113039.410000", "113043.360000", "113039.520000", "113043.467500", "113039.630000", "113043.577500", "113039.737500", "113043.687500", "113039.847500", "113043.797500", "113039.957500", "113043.907500", "113040.067500", "113044.017500", "113040.177500", "113047.987500", "113044.147500", "113048.097500", "113044.257500", "113048.207500", "113044.367500", "113048.317500", "113044.477500", "113048.425000", "113044.585000", "113048.535000", "113044.695000", "113048.645000", "113044.805000", "113048.755000", "113044.915000", "113048.865000", "113045.025000", "113048.975000", "113045.135000", "113049.085000", "113045.245000", "113049.195000", "113045.355000", "113049.302500", "113045.465000", "113049.412500", "113045.572500", "113049.522500", "113045.682500", "113049.632500", "113045.792500", "113049.742500", "113045.902500", "113049.852500"