{
  "AcquisitionMatrixPE": 80,
  "AcquisitionNumber": 1,
  "AcquisitionTime": "08:50:7.835000",
  "BandwidthPerPixelPhaseEncode": 48.077,
  "BaseResolution": 80,
  "BodyPartExamined": "BRAIN",
  "CoilCombinationMethod": "Sum of Squares",
  "ConsistencyInfo": "N4_VE11C_LATEST_20160120",
  "ConversionSoftware": "dcm2niix",
  "ConversionSoftwareVersion": "v1.0.20220720",
  "DerivedVendorReportedEchoSpacing": 0.000519999,
  "DeviceSerialNumber": "66112",
  "DwellTime": 2.7e-06,
  "EchoTime": 0.035,
  "EchoTrainLength": 39,
  "EffectiveEchoSpacing": 0.00026,
  "FlipAngle": 90,
  "HeudiconvVersion": "0.13.1",
  "ImageOrientationPatientDICOM": [0.970814, -0.239823, 0.00211268, 0.227881, 0.925148, 0.303597],
  "ImageOrientationText": "Tra>Cor(17.2)>Sag(4.3)",
  "ImageType": [
    "ORIGINAL",
    "PRIMARY",
    "M",
    "ND",
    "NORM",
    "MOSAIC"
],
  "ImagingFrequency": 123.252,
  "InPlanePhaseEncodingDirectionDICOM": "COL",
  "InstitutionAddress": "Maynard 3,Hanover,NH,US,03755",
  "InstitutionName": "Dartmouth College - PBS",
  "InstitutionalDepartmentName": "Department",
  "MRAcquisitionType": "2D",
  "MagneticFieldStrength": 3,
  "Manufacturer": "Siemens",
  "ManufacturersModelName": "Prisma",
  "MatrixCoilMode": "GRAPPA",
  "Modality": "MR",
  "NonlinearGradientCorrection": false,
  "ParallelReductionFactorInPlane": 2,
  "PartialFourier": 1,
  "PatientPosition": "HFS",
  "PercentPhaseFOV": 100,
  "PercentSampling": 100,
  "PhaseEncodingDirection": "j-",
  "PhaseEncodingSteps": 79,
  "PhaseResolution": 1,
  "PixelBandwidth": 2315,
  "ProcedureStepDescription": "dbic^QA",
  "ProtocolName": "func-bold_task-rest_acq-p2",
  "PulseSequenceDetails": "%SiemensSeq%\\ep2d_bold",
  "ReceiveCoilActiveElements": "HEA;HEP",
  "ReceiveCoilName": "Head_32",
  "ReconMatrixPE": 80,
  "RefLinesPE": 24,
  "RepetitionTime": 2,
  "SAR": 0.0555443,
  "ScanOptions": "FS",
  "ScanningSequence": "EP",
  "SequenceName": "*epfid2d1_80",
  "SequenceVariant": "SK",
  "SeriesDescription": "func-bold_task-rest_acq-p2",
  "SeriesNumber": 5,
  "ShimSetting": [4146, -7701, -7508, 324, -90, -136, -45, 94],
  "SliceThickness": 3.5,
  "SliceTiming": [0.99, 0, 1.0575, 0.0675, 1.1225, 0.1325, 1.19, 0.2, 1.255, 0.265, 1.32, 0.33, 1.3875, 0.3975, 1.4525, 0.4625, 1.52, 0.53, 1.585, 0.595, 1.65, 0.66, 1.7175, 0.7275, 1.7825, 0.7925, 1.85, 0.86, 1.915, 0.925],
  "SoftwareVersions": "syngo MR E11",
  "SpacingBetweenSlices": 3.99,
  "StationName": "AWP66112",
  "TaskName": "rest",
  "TotalReadoutTime": 0.02054,
  "TxRefAmp": 226.984,
  "dcmmeta_affine": [
    [-2.912442922592163, 0.6836437582969666, 0.2983091175556183, 78.94580078125],
    [0.7194690704345703, 2.7754437923431396, 1.1740785837173462, -148.09658813476562],
    [0.006338037084788084, -0.9107922315597534, 3.801664113998413, -18.355728149414062],
    [0.0, 0.0, 0.0, 1.0]
],
  "dcmmeta_reorient_transform": [
    [0.0, -1.0, 0.0, 79.0],
    [1.0, 0.0, 0.0, 0.0],
    [0.0, 0.0, 1.0, 0.0],
    [0.0, 0.0, 0.0, 1.0]
],
  "dcmmeta_shape": [80, 80, 30, 200],
  "dcmmeta_slice_dim": 2,
  "dcmmeta_version": 0.6,
  "global": {
    "const": {
      "AccessionNumber": "qa",
      "AcquisitionMatrix": [80, 0, 0, 80],
      "AngioFlag": "N",
      "BitsAllocated": 16,
      "BitsStored": 12,
      "BodyPartExamined": "BRAIN",
      "Columns": 480,
      "EchoNumbers": 1,
      "EchoTime": 35.0,
      "EchoTrainLength": 39,
      "FlipAngle": 90.0,
      "HighBit": 11,
      "ImageOrientationPatient": [0.97081432559619, -0.2398230218405, 0.00211267898587, 0.22788124313485, 0.92514795932833, 0.30359741826626],
      "ImagePositionPatient": [-852.17099415584, -482.35844496619, -273.734374117],
      "ImageType": [
        "ORIGINAL",
        "PRIMARY",
        "M",
        "ND",
        "NORM",
        "MOSAIC"
],
      "ImagedNucleus": "1H",
      "ImagingFrequency": 123.252429,
      "InPlanePhaseEncodingDirection": "COL",
      "MRAcquisitionType": "2D",
      "MagneticFieldStrength": 3.0,
      "Manufacturer": "SIEMENS",
      "ManufacturerModelName": "Prisma",
      "Modality": "MR",
      "NumberOfAverages": 1.0,
      "NumberOfPhaseEncodingSteps": 79,
      "PercentPhaseFieldOfView": 100.0,
      "PercentSampling": 100.0,
      "PerformedProcedureStepStartTime": "084448.050000",
      "PhotometricInterpretation": "MONOCHROME2",
      "PixelBandwidth": 2315.0,
      "PixelRepresentation": 0,
      "PixelSpacing": [3.0, 3.0],
      "ProtocolName": "func-bold_task-rest_acq-p2",
      "RepetitionTime": 2000.0,
      "Rows": 480,
      "SAR": 0.05554425236391,
      "SamplesPerPixel": 1,
      "ScanOptions": "FS",
      "ScanningSequence": "EP",
      "SequenceName": "*epfid2d1_80",
      "SequenceVariant": "SK",
      "SeriesDescription": "func-bold_task-rest_acq-p2",
      "SeriesNumber": 5,
      "SeriesTime": "085050.102000",
      "SliceLocation": -55.165185152199,
      "SliceThickness": 3.5,
      "SmallestImagePixelValue": 0,
      "SoftwareVersions": "syngo MR E11",
      "SpacingBetweenSlices": 3.9899998973619,
      "SpecificCharacterSet": "ISO_IR 100",
      "StudyID": "81",
      "StudyTime": "084447.974000",
      "TransmitCoilName": "Body",
      "VariableFlipAngleFlag": "N",
      "WindowCenterWidthExplanation": "Algo1",
      "dBdt": 0.0},
    "slices": {}
  },
  "time": {
    "samples": {
      "AcquisitionNumber": [1, 2, 3, 4, 5, 6, 7, 8, 9, 10, 11, 12, 13, 14, 15, 16, 17, 18, 19, 20, 21, 22, 23, 24, 25, 26, 27, 28, 29, 30, 31, 32, 33, 34, 35, 36, 37, 38, 39, 40, 41, 42, 43, 44, 45, 46, 47, 48, 49, 50, 51, 52, 53, 54, 55, 56, 57, 58, 59, 60, 61, 62, 63, 64, 65, 66, 67, 68, 69, 70, 71, 72, 73, 74, 75, 76, 77, 78, 79, 80, 81, 82, 83, 84, 85, 86, 87, 88, 89, 90, 91, 92, 93, 94, 95, 96, 97, 98, 99, 100, 101, 102, 103, 104, 105, 106, 107, 108, 109, 110, 111, 112, 113, 114, 115, 116, 117, 118, 119, 120, 121, 122, 123, 124, 125, 126, 127, 128, 129, 130, 131, 132, 133, 134, 135, 136, 137, 138, 139, 140, 141, 142, 143, 144, 145, 146, 147, 148, 149, 150, 151, 152, 153, 154, 155, 156, 157, 158, 159, 160, 161, 162, 163, 164, 165, 166, 167, 168, 169, 170, 171, 172, 173, 174, 175, 176, 177, 178, 179, 180, 181, 182, 183, 184, 185, 186, 187, 188, 189, 190, 191, 192, 193, 194, 195, 196, 197, 198, 199, 200],
      "AcquisitionTime": ["085007.835000", "085009.835000", "085011.835000", "085013.835000", "085015.835000", "085017.835000", "085019.835000", "085021.835000", "085023.835000", "085025.835000", "085027.835000", "085029.835000", "085031.835000", "085033.835000", "085035.835000", "085037.835000", "085039.835000", "085041.835000", "085043.835000", "085045.835000", "085047.835000", "085049.835000", "085051.835000", "085053.835000", "085055.835000", "085057.835000", "085059.835000", "085101.835000", "085103.835000", "085105.835000", "085107.835000", "085109.835000", "085111.835000", "085113.835000", "085115.835000", "085117.835000", "085119.835000", "085121.835000", "085123.835000", "085125.835000", "085127.835000", "085129.835000", "085131.835000", "085133.835000", "085135.835000", "085137.835000", "085139.835000", "085141.835000", "085143.835000", "085145.835000", "085147.835000", "085149.835000", "085151.835000", "085153.835000", "085155.835000", "085157.835000", "085159.835000", "085201.835000", "085203.835000", "085205.835000", "085207.835000", "085209.835000", "085211.835000", "085213.835000", "085215.835000", "085217.835000", "085219.835000", "085221.835000", "085223.835000", "085225.835000", "085227.835000", "085229.835000", "085231.835000", "085233.835000", "085235.835000", "085237.835000", "085239.835000", "085241.835000", "085243.835000", "085245.835000", "085247.835000", "085249.835000", "085251.835000", "085253.835000", "085255.835000", "085257.835000", "085259.835000", "085301.835000", "085303.835000", "085305.835000", "085307.835000", "085309.835000", "085311.835000", "085313.835000", "085315.835000", "085317.835000", "085319.835000", "085321.835000", "085323.835000", "085325.835000", "085327.835000", "085329.835000", "085331.835000", "085333.835000", "085335.835000", "085337.835000", "085339.835000", "085341.835000", "085343.835000", "085345.835000", "085347.835000", "085349.835000", "085351.835000", "085353.835000", "085355.835000", "085357.835000", "085359.835000", "085401.835000", "085403.835000", "085405.835000", "085407.835000", "085409.835000", "085411.835000", "085413.835000", "085415.835000", "085417.835000", "085419.835000", "085421.835000", "085423.835000", "085425.835000", "085427.835000", "085429.835000", "085431.835000", "085433.835000", "085435.835000", "085437.835000", "085439.835000", "085441.835000", "085443.835000", "085445.835000", "085447.835000", "085449.835000", "085451.835000", "085453.835000", "085455.835000", "085457.835000", "085459.835000", "085501.835000", "085503.835000", "085505.835000", "085507.835000", "085509.835000", "085511.835000", "085513.835000", "085515.835000", "085517.835000", "085519.835000", "085521.835000", "085523.835000", "085525.835000", "085527.835000", "085529.835000", "085531.835000", "085533.835000", "085535.835000", "085537.835000", "085539.835000", "085541.835000", "085543.835000", "085545.835000", "085547.835000", "085549.835000", "085551.835000", "085553.835000", "085555.835000", "085557.835000", "085559.835000", "085601.835000", "085603.835000", "085605.835000", "085607.835000", "085609.835000", "085611.835000", "085613.835000", "085615.835000", "085617.835000", "085619.835000", "085621.835000", "085623.835000", "085625.835000", "085627.835000", "085629.835000", "085631.835000", "085633.835000", "085635.835000", "085637.835000", "085639.835000", "085641.835000", "085643.835000", "085645.835000"],
      "ContentTime": ["085050.105000", "085050.109000", "085050.111000", "085050.114000", "085050.116000", "085050.119000", "085050.121000", "085050.124000", "085050.126000", "085050.129000", "085050.131000", "085050.134000", "085050.137000", "085050.139000", "085050.141000", "085050.144000", "085050.153000", "085050.156000", "085050.158000", "085050.161000", "085050.164000", "085110.101000", "085110.104000", "085110.106000", "085110.109000", "085110.111000", "085110.114000", "085110.116000", "085110.119000", "085110.121000", "085110.124000", "085150.099000", "085150.143000", "085150.146000", "085150.148000", "085150.151000", "085150.153000", "085150.156000", "085150.158000", "085150.161000", "085150.163000", "085150.166000", "085150.168000", "085150.171000", "085150.173000", "085150.175000", "085150.178000", "085150.180000", "085150.183000", "085150.185000", "085150.188000", "085230.100000", "085230.103000", "085230.106000", "085230.108000", "085230.111000", "085230.114000", "085230.116000", "085230.119000", "085230.121000", "085230.124000", "085230.126000", "085230.129000", "085230.131000", "085230.134000", "085230.136000", "085230.139000", "085230.141000", "085230.144000", "085230.146000", "085230.149000", "085310.101000", "085310.103000", "085310.106000", "085310.108000", "085310.111000", "085310.114000", "085310.116000", "085310.119000", "085310.121000", "085310.124000", "085310.127000", "085310.129000", "085310.132000", "085310.134000", "085310.137000", "085310.139000", "085310.142000", "085310.144000", "085310.147000", "085310.149000", "085350.099000", "085350.102000", "085350.105000", "085350.108000", "085350.110000", "085350.113000", "085350.115000", "085350.118000", "085350.120000", "085350.123000", "085350.126000", "085350.128000", "085350.131000", "085350.133000", "085350.136000", "085350.138000", "085350.141000", "085350.143000", "085350.146000", "085350.148000", "085430.099000", "085430.102000", "085430.105000", "085430.107000", "085430.110000", "085430.112000", "085430.115000", "085430.117000", "085430.120000", "085430.122000", "085430.125000", "085430.127000", "085430.130000", "085430.132000", "085430.135000", "085430.137000", "085430.140000", "085430.142000", "085430.145000", "085430.147000", "085510.101000", "085510.103000", "085510.106000", "085510.108000", "085510.111000", "085510.113000", "085510.116000", "085510.118000", "085510.121000", "085510.124000", "085510.126000", "085510.129000", "085510.131000", "085510.134000", "085510.148000", "085510.150000", "085510.153000", "085510.155000", "085510.158000", "085510.160000", "085550.100000", "085550.103000", "085550.106000", "085550.108000", "085550.111000", "085550.113000", "085550.116000", "085550.118000", "085550.121000", "085550.123000", "085550.126000", "085550.128000", "085550.131000", "085550.133000", "085550.136000", "085550.138000", "085550.141000", "085550.143000", "085550.146000", "085550.148000", "085630.100000", "085630.102000", "085630.105000", "085630.108000", "085630.110000", "085630.113000", "085630.115000", "085630.118000", "085630.121000", "085630.123000", "085630.126000", "085630.128000", "085630.131000", "085630.133000", "085630.136000", "085630.138000", "085630.141000", "085630.143000", "085630.146000", "085630.148000", "085647.829000", "085647.832000", "085647.835000", "085647.837000", "085647.840000", "085647.842000", "085647.845000", "085647.847000", "085647.850000"],
      "InstanceCreationTime": ["085050.105000", "085050.109000", "085050.111000", "085050.114000", "085050.116000", "085050.119000", "085050.121000", "085050.124000", "085050.126000", "085050.129000", "085050.131000", "085050.134000", "085050.137000", "085050.139000", "085050.141000", "085050.144000", "085050.153000", "085050.156000", "085050.158000", "085050.161000", "085050.164000", "085110.101000", "085110.104000", "085110.106000", "085110.109000", "085110.111000", "085110.114000", "085110.116000", "085110.119000", "085110.121000", "085110.124000", "085150.099000", "085150.143000", "085150.146000", "085150.148000", "085150.151000", "085150.153000", "085150.156000", "085150.158000", "085150.161000", "085150.163000", "085150.166000", "085150.168000", "085150.171000", "085150.173000", "085150.175000", "085150.178000", "085150.180000", "085150.183000", "085150.185000", "085150.188000", "085230.100000", "085230.103000", "085230.106000", "085230.108000", "085230.111000", "085230.114000", "085230.116000", "085230.119000", "085230.121000", "085230.124000", "085230.126000", "085230.129000", "085230.131000", "085230.134000", "085230.136000", "085230.139000", "085230.141000", "085230.144000", "085230.146000", "085230.149000", "085310.101000", "085310.103000", "085310.106000", "085310.108000", "085310.111000", "085310.114000", "085310.116000", "085310.119000", "085310.121000", "085310.124000", "085310.127000", "085310.129000", "085310.132000", "085310.134000", "085310.137000", "085310.139000", "085310.142000", "085310.144000", "085310.147000", "085310.149000", "085350.099000", "085350.102000", "085350.105000", "085350.108000", "085350.110000", "085350.113000", "085350.115000", "085350.118000", "085350.120000", "085350.123000", "085350.126000", "085350.128000", "085350.131000", "085350.133000", "085350.136000", "085350.138000", "085350.141000", "085350.143000", "085350.146000", "085350.148000", "085430.099000", "085430.102000", "085430.105000", "085430.107000", "085430.110000", "085430.112000", "085430.115000", "085430.117000", "085430.120000", "085430.122000", "085430.125000", "085430.127000", "085430.130000", "085430.132000", "085430.135000", "085430.137000", "085430.140000", "085430.142000", "085430.145000", "085430.147000", "085510.101000", "085510.103000", "085510.106000", "085510.108000", "085510.111000", "085510.113000", "085510.116000", "085510.118000", "085510.121000", "085510.124000", "085510.126000", "085510.129000", "085510.131000", "085510.134000", "085510.148000", "085510.150000", "085510.153000", "085510.155000", "085510.158000", "085510.160000", "085550.100000", "085550.103000", "085550.106000", "085550.108000", "085550.111000", "085550.113000", "085550.116000", "085550.118000", "085550.121000", "085550.123000", "085550.126000", "085550.128000", "085550.131000", "085550.133000", "085550.136000", "085550.138000", "085550.141000", "085550.143000", "085550.146000", "085550.148000", "085630.100000", "085630.102000", "085630.105000", "085630.108000", "085630.110000", "085630.113000", "085630.115000", "085630.118000", "085630.121000", "085630.123000", "085630.126000", "085630.128000", "085630.131000", "085630.133000", "085630.136000", "085630.138000", "085630.141000", "085630.143000", "085630.146000", "085630.148000", "085647.829000", "085647.832000", "085647.835000", "085647.837000", "085647.840000", "085647.842000", "085647.845000", "085647.847000", "085647.850000"],
      "InstanceNumber": [1, 2, 3, 4, 5, 6, 7, 8, 9, 10, 11, 12, 13, 14, 15, 16, 17, 18, 19, 20, 21, 22, 23, 24, 25, 26, 27, 28, 29, 30, 31, 32, 33, 34, 35, 36, 37, 38, 39, 40, 41, 42, 43, 44, 45, 46, 47, 48, 49, 50, 51, 52, 53, 54, 55, 56, 57, 58, 59, 60, 61, 62, 63, 64, 65, 66, 67, 68, 69, 70, 71, 72, 73, 74, 75, 76, 77, 78, 79, 80, 81, 82, 83, 84, 85, 86, 87, 88, 89, 90, 91, 92, 93, 94, 95, 96, 97, 98, 99, 100, 101, 102, 103, 104, 105, 106, 107, 108, 109, 110, 111, 112, 113, 114, 115, 116, 117, 118, 119, 120, 121, 122, 123, 124, 125, 126, 127, 128, 129, 130, 131, 132, 133, 134, 135, 136, 137, 138, 139, 140, 141, 142, 143, 144, 145, 146, 147, 148, 149, 150, 151, 152, 153, 154, 155, 156, 157, 158, 159, 160, 161, 162, 163, 164, 165, 166, 167, 168, 169, 170, 171, 172, 173, 174, 175, 176, 177, 178, 179, 180, 181, 182, 183, 184, 185, 186, 187, 188, 189, 190, 191, 192, 193, 194, 195, 196, 197, 198, 199, 200],
      "LargestImagePixelValue": [2141, 2130, 2129, 2131, 2131, 2132, 2127, 2133, 2124, 2129, 2129, 2139, 2137, 2131, 2134, 2139, 2136, 2131, 2133, 2119, 2126, 2126, 2134, 2127, 2130, 2139, 2135, 2130, 2137, 2129, 2137, 2136, 2130, 2139, 2133, 2130, 2127, 2138, 2125, 2131, 2132, 2133, 2134, 2130, 2128, 2129, 2129, 2132, 2123, 2130, 2136, 2122, 2125, 2133, 2125, 2129, 2129, 2128, 2128, 2129, 2128, 2127, 2122, 2129, 2134, 2133, 2131, 2139, 2136, 2136, 2128, 2131, 2129, 2126, 2132, 2132, 2131, 2128, 2129, 2133, 2129, 2131, 2130, 2125, 2128, 2128, 2137, 2131, 2133, 2130, 2126, 2126, 2130, 2127, 2130, 2127, 2128, 2129, 2131, 2122, 2132, 2126, 2130, 2123, 2124, 2128, 2125, 2123, 2126, 2130, 2133, 2128, 2133, 2128, 2126, 2122, 2126, 2128, 2127, 2124, 2133, 2130, 2129, 2130, 2127, 2129, 2135, 2124, 2130, 2132, 2126, 2127, 2123, 2126, 2127, 2134, 2134, 2131, 2129, 2126, 2122, 2132, 2132, 2133, 2135, 2127, 2131, 2127, 2135, 2136, 2129, 2128, 2135, 2133, 2127, 2123, 2129, 2130, 2120, 2128, 2132, 2133, 2131, 2131, 2128, 2126, 2126, 2128, 2131, 2130, 2126, 2127, 2125, 2131, 2127, 2130, 2136, 2131, 2131, 2137, 2124, 2128, 2128, 2128, 2125, 2125, 2123, 2133, 2131, 2127, 2132, 2131, 2129, 2131, 2128, 2122, 2128, 2130, 2125, 2131],
      "WindowCenter": [973.0, 973.0, 973.0, 973.0, 973.0, 973.0, 973.0, 973.0, 973.0, 973.0, 973.0, 974.0, 974.0, 973.0, 973.0, 973.0, 973.0, 973.0, 973.0, 973.0, 973.0, 973.0, 973.0, 973.0, 973.0, 973.0, 973.0, 973.0, 974.0, 973.0, 973.0, 973.0, 974.0, 973.0, 973.0, 973.0, 973.0, 973.0, 973.0, 973.0, 973.0, 973.0, 973.0, 973.0, 973.0, 973.0, 973.0, 973.0, 973.0, 973.0, 973.0, 973.0, 973.0, 973.0, 973.0, 973.0, 973.0, 973.0, 973.0, 973.0, 973.0, 972.0, 973.0, 973.0, 973.0, 973.0, 972.0, 973.0, 972.0, 973.0, 973.0, 973.0, 972.0, 972.0, 973.0, 972.0, 972.0, 972.0, 972.0, 972.0, 972.0, 972.0, 972.0, 972.0, 972.0, 972.0, 972.0, 972.0, 972.0, 972.0, 972.0, 972.0, 972.0, 972.0, 972.0, 972.0, 972.0, 972.0, 972.0, 972.0, 972.0, 972.0, 972.0, 972.0, 972.0, 972.0, 972.0, 972.0, 972.0, 972.0, 972.0, 972.0, 972.0, 972.0, 972.0, 972.0, 972.0, 972.0, 972.0, 972.0, 972.0, 972.0, 972.0, 972.0, 972.0, 972.0, 972.0, 972.0, 972.0, 972.0, 972.0, 972.0, 972.0, 973.0, 972.0, 972.0, 972.0, 972.0, 972.0, 972.0, 972.0, 972.0, 972.0, 972.0, 972.0, 972.0, 972.0, 973.0, 972.0, 972.0, 972.0, 972.0, 972.0, 972.0, 972.0, 972.0, 972.0, 972.0, 972.0, 972.0, 972.0, 972.0, 972.0, 972.0, 972.0, 972.0, 972.0, 972.0, 972.0, 972.0, 972.0, 972.0, 972.0, 972.0, 972.0, 972.0, 972.0, 972.0, 972.0, 972.0, 972.0, 972.0, 972.0, 972.0, 972.0, 972.0, 972.0, 972.0, 972.0, 972.0, 972.0, 973.0, 972.0, 972.0, 972.0, 972.0, 972.0, 972.0, 973.0, 972.0],
      "WindowWidth": [2120.0, 2120.0, 2119.0, 2119.0, 2119.0, 2120.0, 2119.0, 2119.0, 2119.0, 2119.0, 2119.0, 2120.0, 2120.0, 2120.0, 2120.0, 2119.0, 2119.0, 2119.0, 2120.0, 2120.0, 2120.0, 2119.0, 2120.0, 2119.0, 2120.0, 2119.0, 2119.0, 2120.0, 2120.0, 2119.0, 2120.0, 2120.0, 2120.0, 2119.0, 2120.0, 2120.0, 2120.0, 2119.0, 2119.0, 2119.0, 2119.0, 2119.0, 2119.0, 2119.0, 2119.0, 2120.0, 2119.0, 2119.0, 2119.0, 2120.0, 2119.0, 2119.0, 2119.0, 2119.0, 2119.0, 2119.0, 2119.0, 2119.0, 2119.0, 2120.0, 2119.0, 2119.0, 2119.0, 2119.0, 2119.0, 2118.0, 2119.0, 2119.0, 2119.0, 2119.0, 2119.0, 2119.0, 2119.0, 2119.0, 2119.0, 2118.0, 2119.0, 2118.0, 2119.0, 2119.0, 2119.0, 2119.0, 2118.0, 2119.0, 2119.0, 2119.0, 2119.0, 2119.0, 2119.0, 2119.0, 2119.0, 2118.0, 2119.0, 2118.0, 2118.0, 2119.0, 2119.0, 2118.0, 2118.0, 2118.0, 2119.0, 2119.0, 2119.0, 2119.0, 2119.0, 2119.0, 2119.0, 2119.0, 2119.0, 2119.0, 2119.0, 2119.0, 2119.0, 2119.0, 2118.0, 2119.0, 2118.0, 2118.0, 2119.0, 2119.0, 2119.0, 2119.0, 2119.0, 2119.0, 2119.0, 2119.0, 2119.0, 2119.0, 2119.0, 2118.0, 2118.0, 2118.0, 2119.0, 2119.0, 2118.0, 2118.0, 2118.0, 2118.0, 2118.0, 2118.0, 2118.0, 2118.0, 2118.0, 2118.0, 2118.0, 2118.0, 2118.0, 2118.0, 2118.0, 2118.0, 2118.0, 2118.0, 2118.0, 2118.0, 2118.0, 2118.0, 2118.0, 2118.0, 2118.0, 2118.0, 2118.0, 2118.0, 2118.0, 2118.0, 2118.0, 2118.0, 2118.0, 2118.0, 2118.0, 2118.0, 2118.0, 2118.0, 2118.0, 2118.0, 2118.0, 2118.0, 2118.0, 2118.0, 2117.0, 2118.0, 2118.0, 2118.0, 2118.0, 2117.0, 2117.0, 2117.0, 2117.0, 2118.0, 2118.0, 2117.0, 2117.0, 2118.0, 2117.0, 2118.0, 2118.0, 2118.0, 2118.0, 2118.0, 2118.0, 2118.0]
    },
    "slices": {}
  }
}