{
  "AcquisitionMatrixPE": 80,
  "AcquisitionNumber": 1,
  "AcquisitionTime": "08:57:3.210000",
  "BandwidthPerPixelPhaseEncode": 44.643,
  "BaseResolution": 80,
  "BodyPartExamined": "BRAIN",
  "CoilCombinationMethod": "Sum of Squares",
  "ConsistencyInfo": "N4_VE11C_LATEST_20160120",
  "ConversionSoftware": "dcm2niix",
  "ConversionSoftwareVersion": "v1.0.20220720",
  "DerivedVendorReportedEchoSpacing": 0.000559998,
  "DeviceSerialNumber": "66112",
  "DwellTime": 2.7e-06,
  "EchoTime": 0.035,
  "EchoTrainLength": 39,
  "EffectiveEchoSpacing": 0.000279999,
  "FlipAngle": 90,
  "HeudiconvVersion": "0.13.1",
  "ImageOrientationPatientDICOM": [0.970814, -0.239823, 0.00211268, 0.227881, 0.925148, 0.303597],
  "ImageOrientationText": "Tra>Cor(17.2)>Sag(4.3)",
  "ImageType": [
    "ORIGINAL",
    "PRIMARY",
    "M",
    "ND",
    "NORM",
    "MOSAIC"
],
  "ImagingFrequency": 123.252,
  "InPlanePhaseEncodingDirectionDICOM": "COL",
  "InstitutionAddress": "Maynard 3,Hanover,NH,US,03755",
  "InstitutionName": "Dartmouth College - PBS",
  "InstitutionalDepartmentName": "Department",
  "MRAcquisitionType": "2D",
  "MagneticFieldStrength": 3,
  "Manufacturer": "Siemens",
  "ManufacturersModelName": "Prisma",
  "Modality": "MR",
  "MultibandAccelerationFactor": 4,
  "NonlinearGradientCorrection": false,
  "ParallelReductionFactorInPlane": 2,
  "PartialFourier": 1,
  "PatientPosition": "HFS",
  "PercentPhaseFOV": 100,
  "PercentSampling": 100,
  "PhaseEncodingDirection": "j-",
  "PhaseEncodingSteps": 79,
  "PhaseResolution": 1,
  "PixelBandwidth": 2315,
  "ProcedureStepDescription": "dbic^QA",
  "ProtocolName": "func-bold_task-rest_acq-p2-s4-3.5mm",
  "PulseSequenceDetails": "%SiemensSeq%\\ep2d_bold",
  "ReceiveCoilActiveElements": "HEA;HEP",
  "ReceiveCoilName": "Head_32",
  "ReconMatrixPE": 80,
  "RefLinesPE": 24,
  "RepetitionTime": 2,
  "SAR": 0.0208863,
  "ScanOptions": "FS",
  "ScanningSequence": "EP",
  "SequenceName": "*epfid2d1_80",
  "SequenceVariant": "SK",
  "SeriesDescription": "func-bold_task-rest_acq-p2-s4-3.5mm",
  "SeriesNumber": 7,
  "ShimSetting": [4146, -7701, -7508, 320, -88, -137, -43, 91],
  "SliceThickness": 3.5,
  "SliceTiming": [1.485, 0, 0.99, 0.2475, 1.2375, 0.7425, 1.7325, 0.495, 1.485, 0, 0.99, 0.2475, 1.2375, 0.7425, 1.7325, 0.495, 1.485, 0, 0.99, 0.2475, 1.2375, 0.7425, 1.7325, 0.495, 1.485, 0, 0.99, 0.2475, 1.2375, 0.7425, 1.7325, 0.495],
  "SoftwareVersions": "syngo MR E11",
  "SpacingBetweenSlices": 3.99,
  "StationName": "AWP66112",
  "TaskName": "rest",
  "TotalReadoutTime": 0.0221199,
  "TxRefAmp": 226.984,
  "dcmmeta_affine": [
    [-2.912442922592163, 0.6836437582969666, 0.2983091175556183, 78.64749145507812],
    [0.7194690704345703, 2.7754437923431396, 1.1740785837173462, -149.27066040039062],
    [0.006338037084788084, -0.9107922315597534, 3.801664352416992, -22.157394409179688],
    [0.0, 0.0, 0.0, 1.0]
],
  "dcmmeta_reorient_transform": [
    [0.0, -1.0, 0.0, 79.0],
    [1.0, 0.0, 0.0, 0.0],
    [0.0, 0.0, 1.0, 0.0],
    [0.0, 0.0, 0.0, 1.0]
],
  "dcmmeta_shape": [80, 80, 32, 200],
  "dcmmeta_slice_dim": 2,
  "dcmmeta_version": 0.6,
  "global": {
    "const": {
      "AccessionNumber": "qa",
      "AcquisitionMatrix": [80, 0, 0, 80],
      "AngioFlag": "N",
      "BitsAllocated": 16,
      "BitsStored": 12,
      "BodyPartExamined": "BRAIN",
      "Columns": 480,
      "EchoNumbers": 1,
      "EchoTime": 35.0,
      "EchoTrainLength": 39,
      "FlipAngle": 90.0,
      "HighBit": 11,
      "ImageOrientationPatient": [0.97081432559619, -0.2398230218405, 0.00211267898587, 0.22788124313485, 0.92514795932833, 0.30359741826626],
      "ImagePositionPatient": [-851.87268482967, -481.18436697852, -277.53604037676],
      "ImageType": [
        "ORIGINAL",
        "PRIMARY",
        "M",
        "ND",
        "NORM",
        "MOSAIC"
],
      "ImagedNucleus": "1H",
      "ImagingFrequency": 123.252428,
      "InPlanePhaseEncodingDirection": "COL",
      "MRAcquisitionType": "2D",
      "MagneticFieldStrength": 3.0,
      "Manufacturer": "SIEMENS",
      "ManufacturerModelName": "Prisma",
      "Modality": "MR",
      "NumberOfAverages": 1.0,
      "NumberOfPhaseEncodingSteps": 79,
      "PercentPhaseFieldOfView": 100.0,
      "PercentSampling": 100.0,
      "PerformedProcedureStepStartTime": "084448.050000",
      "PhotometricInterpretation": "MONOCHROME2",
      "PixelBandwidth": 2315.0,
      "PixelRepresentation": 0,
      "PixelSpacing": [3.0, 3.0],
      "ProtocolName": "func-bold_task-rest_acq-p2-s4-3.5mm",
      "RepetitionTime": 2000.0,
      "Rows": 480,
      "SAR": 0.02088625616537,
      "SamplesPerPixel": 1,
      "ScanOptions": "FS",
      "ScanningSequence": "EP",
      "SequenceName": "*epfid2d1_80",
      "SequenceVariant": "SK",
      "SeriesDescription": "func-bold_task-rest_acq-p2-s4-3.5mm",
      "SeriesNumber": 7,
      "SeriesTime": "085750.174000",
      "SliceLocation": -59.155186897293,
      "SliceThickness": 3.5,
      "SmallestImagePixelValue": 0,
      "SoftwareVersions": "syngo MR E11",
      "SpacingBetweenSlices": 3.9900000343877,
      "SpecificCharacterSet": "ISO_IR 100",
      "StudyID": "81",
      "StudyTime": "084447.974000",
      "TransmitCoilName": "Body",
      "VariableFlipAngleFlag": "N",
      "WindowCenter": 910.0,
      "WindowCenterWidthExplanation": "Algo1",
      "dBdt": 0.0},
    "slices": {}
  },
  "time": {
    "samples": {
      "AcquisitionNumber": [1, 2, 3, 4, 5, 6, 7, 8, 9, 10, 11, 12, 13, 14, 15, 16, 17, 18, 19, 20, 21, 22, 23, 24, 25, 26, 27, 28, 29, 30, 31, 32, 33, 34, 35, 36, 37, 38, 39, 40, 41, 42, 43, 44, 45, 46, 47, 48, 49, 50, 51, 52, 53, 54, 55, 56, 57, 58, 59, 60, 61, 62, 63, 64, 65, 66, 67, 68, 69, 70, 71, 72, 73, 74, 75, 76, 77, 78, 79, 80, 81, 82, 83, 84, 85, 86, 87, 88, 89, 90, 91, 92, 93, 94, 95, 96, 97, 98, 99, 100, 101, 102, 103, 104, 105, 106, 107, 108, 109, 110, 111, 112, 113, 114, 115, 116, 117, 118, 119, 120, 121, 122, 123, 124, 125, 126, 127, 128, 129, 130, 131, 132, 133, 134, 135, 136, 137, 138, 139, 140, 141, 142, 143, 144, 145, 146, 147, 148, 149, 150, 151, 152, 153, 154, 155, 156, 157, 158, 159, 160, 161, 162, 163, 164, 165, 166, 167, 168, 169, 170, 171, 172, 173, 174, 175, 176, 177, 178, 179, 180, 181, 182, 183, 184, 185, 186, 187, 188, 189, 190, 191, 192, 193, 194, 195, 196, 197, 198, 199, 200],
      "AcquisitionTime": ["085703.210000", "085705.210000", "085707.210000", "085709.210000", "085711.210000", "085713.210000", "085715.210000", "085717.210000", "085719.210000", "085721.210000", "085723.210000", "085725.210000", "085727.210000", "085729.210000", "085731.210000", "085733.210000", "085735.210000", "085737.210000", "085739.210000", "085741.210000", "085743.210000", "085745.210000", "085747.210000", "085749.210000", "085751.210000", "085753.210000", "085755.210000", "085757.210000", "085759.210000", "085801.210000", "085803.210000", "085805.210000", "085807.210000", "085809.210000", "085811.210000", "085813.210000", "085815.210000", "085817.210000", "085819.210000", "085821.210000", "085823.210000", "085825.210000", "085827.210000", "085829.210000", "085831.210000", "085833.210000", "085835.210000", "085837.210000", "085839.210000", "085841.210000", "085843.210000", "085845.210000", "085847.210000", "085849.210000", "085851.210000", "085853.210000", "085855.210000", "085857.210000", "085859.210000", "085901.210000", "085903.210000", "085905.210000", "085907.210000", "085909.210000", "085911.210000", "085913.210000", "085915.210000", "085917.210000", "085919.210000", "085921.210000", "085923.210000", "085925.210000", "085927.210000", "085929.210000", "085931.210000", "085933.210000", "085935.210000", "085937.210000", "085939.210000", "085941.210000", "085943.210000", "085945.210000", "085947.210000", "085949.210000", "085951.210000", "085953.210000", "085955.210000", "085957.210000", "085959.210000", "090001.210000", "090003.210000", "090005.210000", "090007.210000", "090009.210000", "090011.210000", "090013.210000", "090015.210000", "090017.210000", "090019.210000", "090021.210000", "090023.210000", "090025.210000", "090027.210000", "090029.210000", "090031.210000", "090033.210000", "090035.210000", "090037.210000", "090039.210000", "090041.210000", "090043.210000", "090045.210000", "090047.210000", "090049.210000", "090051.210000", "090053.210000", "090055.210000", "090057.210000", "090059.210000", "090101.210000", "090103.210000", "090105.210000", "090107.210000", "090109.210000", "090111.210000", "090113.210000", "090115.210000", "090117.210000", "090119.210000", "090121.210000", "090123.210000", "090125.210000", "090127.210000", "090129.210000", "090131.210000", "090133.210000", "090135.210000", "090137.210000", "090139.210000", "090141.210000", "090143.210000", "090145.210000", "090147.210000", "090149.210000", "090151.210000", "090153.210000", "090155.210000", "090157.210000", "090159.210000", "090201.210000", "090203.210000", "090205.210000", "090207.210000", "090209.210000", "090211.210000", "090213.210000", "090215.210000", "090217.210000", "090219.210000", "090221.210000", "090223.210000", "090225.210000", "090227.210000", "090229.210000", "090231.210000", "090233.210000", "090235.210000", "090237.210000", "090239.210000", "090241.210000", "090243.210000", "090245.210000", "090247.210000", "090249.210000", "090251.210000", "090253.210000", "090255.210000", "090257.210000", "090259.210000", "090301.210000", "090303.210000", "090305.210000", "090307.210000", "090309.210000", "090311.210000", "090313.210000", "090315.210000", "090317.210000", "090319.210000", "090321.210000", "090323.210000", "090325.210000", "090327.210000", "090329.210000", "090331.210000", "090333.210000", "090335.210000", "090337.210000", "090339.210000", "090341.210000"],
      "ContentTime": ["085750.177000", "085750.181000", "085750.183000", "085750.194000", "085750.197000", "085750.199000", "085750.202000", "085750.204000", "085750.207000", "085750.209000", "085750.212000", "085750.214000", "085750.217000", "085750.219000", "085750.228000", "085750.237000", "085750.240000", "085750.248000", "085750.251000", "085750.253000", "085750.256000", "085750.258000", "085750.261000", "085750.263000", "085830.171000", "085830.174000", "085830.177000", "085830.179000", "085830.182000", "085830.184000", "085830.187000", "085830.189000", "085830.192000", "085830.194000", "085830.197000", "085830.199000", "085830.202000", "085830.204000", "085830.207000", "085830.210000", "085830.212000", "085830.215000", "085830.217000", "085830.220000", "085910.172000", "085910.175000", "085910.178000", "085910.180000", "085910.183000", "085910.185000", "085910.188000", "085910.191000", "085910.193000", "085910.196000", "085910.198000", "085910.201000", "085910.203000", "085910.206000", "085910.208000", "085910.211000", "085910.213000", "085910.216000", "085910.219000", "085910.221000", "085950.172000", "085950.175000", "085950.178000", "085950.180000", "085950.183000", "085950.185000", "085950.188000", "085950.190000", "085950.193000", "085950.195000", "085950.198000", "085950.201000", "085950.203000", "085950.206000", "085950.208000", "085950.211000", "085950.213000", "085950.216000", "085950.218000", "085950.221000", "090030.172000", "090030.175000", "090030.178000", "090030.180000", "090030.183000", "090030.185000", "090030.188000", "090030.190000", "090030.193000", "090030.196000", "090030.201000", "090030.204000", "090030.206000", "090030.209000", "090030.211000", "090030.214000", "090030.217000", "090030.219000", "090030.222000", "090030.224000", "090110.171000", "090110.174000", "090110.177000", "090110.179000", "090110.186000", "090110.189000", "090110.192000", "090110.194000", "090110.197000", "090110.199000", "090110.202000", "090110.204000", "090110.207000", "090110.209000", "090110.212000", "090110.215000", "090110.217000", "090110.220000", "090110.223000", "090110.225000", "090150.173000", "090150.175000", "090150.178000", "090150.180000", "090150.183000", "090150.186000", "090150.188000", "090150.191000", "090150.193000", "090150.196000", "090150.198000", "090150.201000", "090150.203000", "090150.206000", "090150.208000", "090150.211000", "090150.213000", "090150.216000", "090150.218000", "090150.221000", "090230.172000", "090230.175000", "090230.178000", "090230.180000", "090230.183000", "090230.186000", "090230.188000", "090230.191000", "090230.193000", "090230.196000", "090230.198000", "090230.201000", "090230.207000", "090230.209000", "090230.212000", "090230.214000", "090230.217000", "090230.219000", "090230.222000", "090230.224000", "090310.171000", "090310.174000", "090310.177000", "090310.179000", "090310.182000", "090310.184000", "090310.187000", "090310.189000", "090310.192000", "090310.195000", "090310.197000", "090310.200000", "090310.202000", "090310.205000", "090310.207000", "090310.210000", "090310.212000", "090310.215000", "090310.217000", "090310.220000", "090341.983000", "090341.986000", "090341.989000", "090341.992000", "090341.994000", "090341.997000", "090342.000000", "090342.003000", "090342.006000", "090342.008000", "090342.011000", "090342.017000", "090342.022000", "090342.025000", "090342.028000", "090342.031000"],
      "InstanceCreationTime": ["085750.177000", "085750.181000", "085750.183000", "085750.194000", "085750.197000", "085750.199000", "085750.202000", "085750.204000", "085750.207000", "085750.209000", "085750.212000", "085750.214000", "085750.217000", "085750.219000", "085750.228000", "085750.237000", "085750.240000", "085750.248000", "085750.251000", "085750.253000", "085750.256000", "085750.258000", "085750.261000", "085750.263000", "085830.171000", "085830.174000", "085830.177000", "085830.179000", "085830.182000", "085830.184000", "085830.187000", "085830.189000", "085830.192000", "085830.194000", "085830.197000", "085830.199000", "085830.202000", "085830.204000", "085830.207000", "085830.210000", "085830.212000", "085830.215000", "085830.217000", "085830.220000", "085910.172000", "085910.175000", "085910.178000", "085910.180000", "085910.183000", "085910.185000", "085910.188000", "085910.191000", "085910.193000", "085910.196000", "085910.198000", "085910.201000", "085910.203000", "085910.206000", "085910.208000", "085910.211000", "085910.213000", "085910.216000", "085910.219000", "085910.221000", "085950.172000", "085950.175000", "085950.178000", "085950.180000", "085950.183000", "085950.185000", "085950.188000", "085950.190000", "085950.193000", "085950.195000", "085950.198000", "085950.201000", "085950.203000", "085950.206000", "085950.208000", "085950.211000", "085950.213000", "085950.216000", "085950.218000", "085950.221000", "090030.172000", "090030.175000", "090030.178000", "090030.180000", "090030.183000", "090030.185000", "090030.188000", "090030.190000", "090030.193000", "090030.196000", "090030.201000", "090030.204000", "090030.206000", "090030.209000", "090030.211000", "090030.214000", "090030.217000", "090030.219000", "090030.222000", "090030.224000", "090110.171000", "090110.174000", "090110.177000", "090110.179000", "090110.186000", "090110.189000", "090110.192000", "090110.194000", "090110.197000", "090110.199000", "090110.202000", "090110.204000", "090110.207000", "090110.209000", "090110.212000", "090110.215000", "090110.217000", "090110.220000", "090110.223000", "090110.225000", "090150.173000", "090150.175000", "090150.178000", "090150.180000", "090150.183000", "090150.186000", "090150.188000", "090150.191000", "090150.193000", "090150.196000", "090150.198000", "090150.201000", "090150.203000", "090150.206000", "090150.208000", "090150.211000", "090150.213000", "090150.216000", "090150.218000", "090150.221000", "090230.172000", "090230.175000", "090230.178000", "090230.180000", "090230.183000", "090230.186000", "090230.188000", "090230.191000", "090230.193000", "090230.196000", "090230.198000", "090230.201000", "090230.207000", "090230.209000", "090230.212000", "090230.214000", "090230.217000", "090230.219000", "090230.222000", "090230.224000", "090310.171000", "090310.174000", "090310.177000", "090310.179000", "090310.182000", "090310.184000", "090310.187000", "090310.189000", "090310.192000", "090310.195000", "090310.197000", "090310.200000", "090310.202000", "090310.205000", "090310.207000", "090310.210000", "090310.212000", "090310.215000", "090310.217000", "090310.220000", "090341.983000", "090341.986000", "090341.989000", "090341.992000", "090341.994000", "090341.997000", "090342.000000", "090342.003000", "090342.006000", "090342.008000", "090342.011000", "090342.017000", "090342.022000", "090342.025000", "090342.028000", "090342.031000"],
      "InstanceNumber": [1, 2, 3, 4, 5, 6, 7, 8, 9, 10, 11, 12, 13, 14, 15, 16, 17, 18, 19, 20, 21, 22, 23, 24, 25, 26, 27, 28, 29, 30, 31, 32, 33, 34, 35, 36, 37, 38, 39, 40, 41, 42, 43, 44, 45, 46, 47, 48, 49, 50, 51, 52, 53, 54, 55, 56, 57, 58, 59, 60, 61, 62, 63, 64, 65, 66, 67, 68, 69, 70, 71, 72, 73, 74, 75, 76, 77, 78, 79, 80, 81, 82, 83, 84, 85, 86, 87, 88, 89, 90, 91, 92, 93, 94, 95, 96, 97, 98, 99, 100, 101, 102, 103, 104, 105, 106, 107, 108, 109, 110, 111, 112, 113, 114, 115, 116, 117, 118, 119, 120, 121, 122, 123, 124, 125, 126, 127, 128, 129, 130, 131, 132, 133, 134, 135, 136, 137, 138, 139, 140, 141, 142, 143, 144, 145, 146, 147, 148, 149, 150, 151, 152, 153, 154, 155, 156, 157, 158, 159, 160, 161, 162, 163, 164, 165, 166, 167, 168, 169, 170, 171, 172, 173, 174, 175, 176, 177, 178, 179, 180, 181, 182, 183, 184, 185, 186, 187, 188, 189, 190, 191, 192, 193, 194, 195, 196, 197, 198, 199, 200],
      "LargestImagePixelValue": [2134, 2137, 2129, 2135, 2131, 2134, 2134, 2133, 2129, 2133, 2133, 2133, 2136, 2133, 2130, 2135, 2131, 2131, 2135, 2130, 2135, 2133, 2133, 2133, 2133, 2129, 2127, 2131, 2130, 2132, 2136, 2131, 2132, 2131, 2134, 2136, 2130, 2132, 2127, 2135, 2130, 2132, 2131, 2129, 2132, 2134, 2128, 2128, 2134, 2130, 2132, 2132, 2128, 2131, 2132, 2133, 2133, 2130, 2129, 2130, 2126, 2130, 2132, 2133, 2134, 2133, 2127, 2129, 2130, 2134, 2131, 2128, 2129, 2132, 2132, 2132, 2134, 2132, 2131, 2132, 2134, 2130, 2135, 2129, 2128, 2131, 2132, 2131, 2135, 2131, 2128, 2132, 2124, 2136, 2136, 2131, 2132, 2135, 2130, 2128, 2129, 2130, 2132, 2131, 2130, 2130, 2129, 2130, 2135, 2132, 2136, 2130, 2135, 2131, 2134, 2133, 2128, 2134, 2133, 2127, 2131, 2132, 2131, 2132, 2130, 2128, 2128, 2135, 2134, 2133, 2127, 2129, 2130, 2131, 2129, 2130, 2130, 2127, 2127, 2132, 2133, 2128, 2133, 2129, 2132, 2130, 2131, 2132, 2130, 2130, 2132, 2132, 2127, 2132, 2130, 2130, 2128, 2133, 2129, 2128, 2130, 2135, 2130, 2131, 2132, 2131, 2132, 2125, 2130, 2130, 2127, 2132, 2124, 2134, 2130, 2131, 2133, 2130, 2129, 2129, 2123, 2129, 2129, 2129, 2126, 2130, 2130, 2132, 2132, 2132, 2125, 2129, 2130, 2132, 2131, 2133, 2128, 2128, 2127, 2126],
      "WindowWidth": [2056.0, 2057.0, 2057.0, 2056.0, 2057.0, 2057.0, 2057.0, 2057.0, 2057.0, 2057.0, 2057.0, 2057.0, 2057.0, 2057.0, 2057.0, 2057.0, 2056.0, 2057.0, 2057.0, 2057.0, 2058.0, 2057.0, 2057.0, 2057.0, 2056.0, 2056.0, 2056.0, 2056.0, 2056.0, 2056.0, 2056.0, 2056.0, 2056.0, 2056.0, 2056.0, 2056.0, 2056.0, 2056.0, 2056.0, 2057.0, 2056.0, 2056.0, 2056.0, 2056.0, 2057.0, 2056.0, 2056.0, 2056.0, 2056.0, 2056.0, 2056.0, 2056.0, 2056.0, 2056.0, 2056.0, 2056.0, 2056.0, 2056.0, 2056.0, 2056.0, 2057.0, 2057.0, 2056.0, 2056.0, 2056.0, 2056.0, 2056.0, 2056.0, 2056.0, 2056.0, 2056.0, 2056.0, 2056.0, 2057.0, 2057.0, 2056.0, 2057.0, 2056.0, 2056.0, 2056.0, 2056.0, 2056.0, 2056.0, 2056.0, 2057.0, 2056.0, 2056.0, 2056.0, 2056.0, 2056.0, 2057.0, 2056.0, 2056.0, 2056.0, 2056.0, 2056.0, 2056.0, 2057.0, 2056.0, 2056.0, 2056.0, 2057.0, 2056.0, 2056.0, 2056.0, 2056.0, 2056.0, 2057.0, 2056.0, 2056.0, 2056.0, 2056.0, 2056.0, 2057.0, 2056.0, 2057.0, 2056.0, 2056.0, 2057.0, 2057.0, 2057.0, 2057.0, 2057.0, 2057.0, 2057.0, 2057.0, 2056.0, 2057.0, 2057.0, 2057.0, 2057.0, 2057.0, 2057.0, 2057.0, 2057.0, 2057.0, 2056.0, 2056.0, 2056.0, 2056.0, 2057.0, 2056.0, 2056.0, 2056.0, 2056.0, 2056.0, 2056.0, 2056.0, 2056.0, 2056.0, 2056.0, 2056.0, 2056.0, 2056.0, 2056.0, 2056.0, 2056.0, 2056.0, 2056.0, 2056.0, 2056.0, 2056.0, 2056.0, 2056.0, 2056.0, 2056.0, 2056.0, 2056.0, 2056.0, 2056.0, 2056.0, 2056.0, 2056.0, 2056.0, 2056.0, 2056.0, 2056.0, 2056.0, 2056.0, 2056.0, 2056.0, 2056.0, 2056.0, 2056.0, 2056.0, 2056.0, 2056.0, 2056.0, 2056.0, 2056.0, 2056.0, 2056.0, 2056.0, 2056.0, 2056.0, 2056.0, 2056.0, 2056.0, 2056.0, 2056.0]
    },
    "slices": {}
  }
}