{
  "AcquisitionMatrixPE": 80,
  "AcquisitionNumber": 1,
  "AcquisitionTime": "09:17:36.205000",
  "BandwidthPerPixelPhaseEncode": 44.643,
  "BaseResolution": 80,
  "BodyPartExamined": "BRAIN",
  "CoilCombinationMethod": "Sum of Squares",
  "ConsistencyInfo": "N4_VE11C_LATEST_20160120",
  "ConversionSoftware": "dcm2niix",
  "ConversionSoftwareVersion": "v1.0.20220720",
  "DerivedVendorReportedEchoSpacing": 0.000559998,
  "DeviceSerialNumber": "66112",
  "DwellTime": 2.7e-06,
  "EchoTime": 0.035,
  "EchoTrainLength": 39,
  "EffectiveEchoSpacing": 0.000279999,
  "FlipAngle": 90,
  "HeudiconvVersion": "0.13.1",
  "ImageOrientationPatientDICOM": [0.975473, -0.22012, -0.000566052, 0.210548, 0.932299, 0.29409],
  "ImageOrientationText": "Tra>Cor(16.7)>Sag(3.7)",
  "ImageType": [
    "ORIGINAL",
    "PRIMARY",
    "M",
    "ND",
    "NORM",
    "MOSAIC"
],
  "ImagingFrequency": 123.253,
  "InPlanePhaseEncodingDirectionDICOM": "COL",
  "InstitutionAddress": "Maynard 3,Hanover,NH,US,03755",
  "InstitutionName": "Dartmouth College - PBS",
  "InstitutionalDepartmentName": "Department",
  "MRAcquisitionType": "2D",
  "MagneticFieldStrength": 3,
  "Manufacturer": "Siemens",
  "ManufacturersModelName": "Prisma",
  "Modality": "MR",
  "MultibandAccelerationFactor": 4,
  "NonlinearGradientCorrection": false,
  "ParallelReductionFactorInPlane": 2,
  "PartialFourier": 1,
  "PatientPosition": "HFS",
  "PercentPhaseFOV": 100,
  "PercentSampling": 100,
  "PhaseEncodingDirection": "j-",
  "PhaseEncodingSteps": 79,
  "PhaseResolution": 1,
  "PixelBandwidth": 2315,
  "ProcedureStepDescription": "dbic^QA",
  "ProtocolName": "BOLD_p2_s4_3.5mm",
  "PulseSequenceDetails": "%SiemensSeq%\\ep2d_bold",
  "ReceiveCoilActiveElements": "HEA;HEP",
  "ReceiveCoilName": "Head_32",
  "ReconMatrixPE": 80,
  "RefLinesPE": 24,
  "RepetitionTime": 0.525,
  "SAR": 0.0773501,
  "ScanOptions": "FS",
  "ScanningSequence": "EP",
  "SequenceName": "*epfid2d1_80",
  "SequenceVariant": "SK",
  "SeriesDescription": "BOLD_p2_s4_3.5mm",
  "SeriesNumber": 7,
  "ShimSetting": [4143, -7682, -7505, 276, -103, -86, 1, 77],
  "SliceThickness": 3.5,
  "SliceTiming": [0.38, 0, 0.2525, 0.065, 0.3175, 0.19, 0.4425, 0.1275, 0.38, 0, 0.2525, 0.065, 0.3175, 0.19, 0.4425, 0.1275, 0.38, 0, 0.2525, 0.065, 0.3175, 0.19, 0.4425, 0.1275, 0.38, 0, 0.2525, 0.065, 0.3175, 0.19, 0.4425, 0.1275],
  "SoftwareVersions": "syngo MR E11",
  "SpacingBetweenSlices": 3.99,
  "StationName": "AWP66112",
  "TaskName": "rest",
  "TotalReadoutTime": 0.0221199,
  "TxRefAmp": 232.744,
  "dcmmeta_affine": [
    [-2.926417827606201, 0.6316447257995605, 0.25618720054626465, 82.8625259399414],
    [0.6603600978851318, 2.796895742416382, 1.1451129913330078, -142.418701171875],
    [-0.001698157167993486, -0.8822693824768066, 3.8135526180267334, -25.554309844970703],
    [0.0, 0.0, 0.0, 1.0]
],
  "dcmmeta_reorient_transform": [
    [0.0, -1.0, 0.0, 79.0],
    [1.0, 0.0, 0.0, 0.0],
    [0.0, 0.0, 1.0, 0.0],
    [0.0, 0.0, 0.0, 1.0]
],
  "dcmmeta_shape": [80, 80, 32, 157],
  "dcmmeta_slice_dim": 2,
  "dcmmeta_version": 0.6,
  "global": {
    "const": {
      "AccessionNumber": "qa",
      "AcquisitionMatrix": [80, 0, 0, 80],
      "AngioFlag": "N",
      "BitsAllocated": 16,
      "BitsStored": 12,
      "BodyPartExamined": "BRAIN",
      "Columns": 480,
      "EchoNumbers": 1,
      "EchoTime": 35.0,
      "EchoTrainLength": 39,
      "FlipAngle": 90.0,
      "HighBit": 11,
      "ImageOrientationPatient": [0.97547263141977, -0.2201200239316, -0.0005660524048, 0.21054824895593, 0.93229857307246, 0.29408979157503],
      "ImagePositionPatient": [-844.37499053554, -505.84319708596, -271.36783484785],
      "ImageType": [
        "ORIGINAL",
        "PRIMARY",
        "M",
        "ND",
        "NORM",
        "MOSAIC"
],
      "ImagedNucleus": "1H",
      "ImagingFrequency": 123.252563,
      "InPlanePhaseEncodingDirection": "COL",
      "MRAcquisitionType": "2D",
      "MagneticFieldStrength": 3.0,
      "Manufacturer": "SIEMENS",
      "ManufacturerModelName": "Prisma",
      "Modality": "MR",
      "NumberOfAverages": 1.0,
      "NumberOfPhaseEncodingSteps": 79,
      "PercentPhaseFieldOfView": 100.0,
      "PercentSampling": 100.0,
      "PerformedProcedureStepStartTime": "085712.888000",
      "PhotometricInterpretation": "MONOCHROME2",
      "PixelBandwidth": 2315.0,
      "PixelRepresentation": 0,
      "PixelSpacing": [3.0, 3.0],
      "ProtocolName": "BOLD_p2_s4_3.5mm",
      "RepetitionTime": 525.0,
      "Rows": 480,
      "SAR": 0.07735013459321,
      "SamplesPerPixel": 1,
      "ScanOptions": "FS",
      "ScanningSequence": "EP",
      "SequenceName": "*epfid2d1_80",
      "SequenceVariant": "SK",
      "SeriesDescription": "BOLD_p2_s4_3.5mm",
      "SeriesNumber": 7,
      "SeriesTime": "091749.220000",
      "SliceLocation": -59.977413810305,
      "SliceThickness": 3.5,
      "SmallestImagePixelValue": 0,
      "SoftwareVersions": "syngo MR E11",
      "SpacingBetweenSlices": 3.9899999996481,
      "SpecificCharacterSet": "ISO_IR 100",
      "StudyID": "22",
      "StudyTime": "085712.799000",
      "TransmitCoilName": "Body",
      "VariableFlipAngleFlag": "N",
      "WindowCenterWidthExplanation": "Algo1",
      "dBdt": 0.0},
    "slices": {}
  },
  "time": {
    "samples": {
      "AcquisitionNumber": [1, 2, 3, 4, 5, 6, 7, 8, 9, 10, 11, 12, 13, 14, 15, 16, 17, 18, 19, 20, 21, 22, 23, 24, 25, 26, 27, 28, 29, 30, 31, 32, 33, 34, 35, 36, 37, 38, 39, 40, 41, 42, 43, 44, 45, 46, 47, 48, 49, 50, 51, 52, 53, 54, 55, 56, 57, 58, 59, 60, 61, 62, 63, 64, 65, 66, 67, 68, 69, 70, 71, 72, 73, 74, 75, 76, 77, 78, 79, 80, 81, 82, 83, 84, 85, 86, 87, 88, 89, 90, 91, 92, 93, 94, 95, 96, 97, 98, 99, 100, 101, 102, 103, 104, 105, 106, 107, 108, 109, 110, 111, 112, 113, 114, 115, 116, 117, 118, 119, 120, 121, 122, 123, 124, 125, 126, 127, 128, 129, 130, 131, 132, 133, 134, 135, 136, 137, 138, 139, 140, 141, 142, 143, 144, 145, 146, 147, 148, 149, 150, 151, 152, 153, 154, 155, 156, 157],
      "AcquisitionTime": ["091736.205000", "091736.730000", "091737.255000", "091737.780000", "091738.305000", "091738.830000", "091739.355000", "091739.880000", "091740.405000", "091740.930000", "091741.455000", "091741.980000", "091742.505000", "091743.030000", "091743.555000", "091744.080000", "091744.605000", "091745.130000", "091745.655000", "091746.180000", "091746.705000", "091747.230000", "091747.755000", "091748.280000", "091748.805000", "091749.330000", "091749.855000", "091750.380000", "091750.905000", "091751.430000", "091751.955000", "091752.480000", "091753.005000", "091753.530000", "091754.055000", "091754.580000", "091755.105000", "091755.630000", "091756.155000", "091756.680000", "091757.205000", "091757.730000", "091758.255000", "091758.780000", "091759.305000", "091759.830000", "091800.355000", "091800.880000", "091801.405000", "091801.930000", "091802.455000", "091802.980000", "091803.505000", "091804.030000", "091804.555000", "091805.080000", "091805.605000", "091806.130000", "091806.655000", "091807.180000", "091807.705000", "091808.230000", "091808.755000", "091809.280000", "091809.805000", "091810.330000", "091810.855000", "091811.380000", "091811.905000", "091812.430000", "091812.955000", "091813.480000", "091814.005000", "091814.530000", "091815.055000", "091815.580000", "091816.105000", "091816.630000", "091817.155000", "091817.680000", "091818.205000", "091818.730000", "091819.255000", "091819.780000", "091820.305000", "091820.830000", "091821.355000", "091821.880000", "091822.405000", "091822.930000", "091823.455000", "091823.980000", "091824.505000", "091825.030000", "091825.555000", "091826.080000", "091826.605000", "091827.130000", "091827.655000", "091828.180000", "091828.705000", "091829.230000", "091829.755000", "091830.280000", "091830.805000", "091831.330000", "091831.855000", "091832.380000", "091832.905000", "091833.430000", "091833.955000", "091834.480000", "091835.005000", "091835.530000", "091836.055000", "091836.580000", "091837.105000", "091837.630000", "091838.155000", "091838.680000", "091839.205000", "091839.730000", "091840.255000", "091840.780000", "091841.305000", "091841.830000", "091842.355000", "091842.880000", "091843.405000", "091843.930000", "091844.455000", "091844.980000", "091845.505000", "091846.030000", "091846.555000", "091847.080000", "091847.605000", "091848.130000", "091848.655000", "091849.180000", "091849.705000", "091850.230000", "091850.755000", "091851.280000", "091851.805000", "091852.330000", "091852.855000", "091853.380000", "091853.905000", "091854.430000", "091854.955000", "091855.480000", "091856.005000", "091856.530000", "091857.055000", "091857.580000", "091858.105000"],
      "ContentTime": ["091749.223000", "091749.227000", "091749.229000", "091749.232000", "091749.235000", "091749.237000", "091749.240000", "091749.242000", "091749.245000", "091749.248000", "091749.250000", "091749.253000", "091749.255000", "091749.258000", "091749.261000", "091749.263000", "091749.266000", "091749.268000", "091749.271000", "091749.274000", "091749.276000", "091749.279000", "091749.281000", "091809.219000", "091809.222000", "091809.225000", "091809.228000", "091809.230000", "091809.233000", "091809.236000", "091809.238000", "091809.241000", "091809.244000", "091809.246000", "091809.249000", "091809.251000", "091809.254000", "091809.256000", "091809.259000", "091809.262000", "091809.264000", "091809.267000", "091809.270000", "091809.272000", "091809.275000", "091809.277000", "091809.280000", "091809.283000", "091809.285000", "091809.288000", "091809.291000", "091809.293000", "091809.296000", "091809.298000", "091809.301000", "091809.304000", "091809.306000", "091809.310000", "091809.313000", "091809.315000", "091809.318000", "091829.219000", "091829.223000", "091829.225000", "091829.228000", "091829.230000", "091829.233000", "091829.236000", "091829.238000", "091829.241000", "091829.244000", "091829.246000", "091829.249000", "091829.251000", "091829.254000", "091829.257000", "091829.261000", "091829.264000", "091829.266000", "091829.269000", "091829.272000", "091829.274000", "091829.277000", "091829.280000", "091829.282000", "091829.285000", "091829.287000", "091829.290000", "091829.293000", "091829.295000", "091829.298000", "091829.301000", "091829.303000", "091829.306000", "091829.308000", "091829.311000", "091829.314000", "091829.316000", "091829.319000", "091849.218000", "091849.221000", "091849.224000", "091849.227000", "091849.229000", "091849.232000", "091849.235000", "091849.237000", "091849.240000", "091849.242000", "091849.245000", "091849.248000", "091849.250000", "091849.253000", "091849.255000", "091849.258000", "091849.261000", "091849.263000", "091849.266000", "091849.269000", "091849.271000", "091849.274000", "091849.277000", "091849.279000", "091849.282000", "091849.285000", "091849.287000", "091849.290000", "091849.293000", "091849.295000", "091849.298000", "091849.300000", "091849.303000", "091849.307000", "091849.310000", "091849.312000", "091849.315000", "091849.318000", "091859.292000", "091859.296000", "091859.299000", "091859.301000", "091859.304000", "091859.307000", "091859.310000", "091859.312000", "091859.315000", "091859.318000", "091859.321000", "091859.323000", "091859.326000", "091859.329000", "091859.331000", "091859.334000", "091859.337000", "091859.339000", "091859.342000", "091859.345000"],
      "InstanceCreationTime": ["091749.223000", "091749.227000", "091749.229000", "091749.232000", "091749.235000", "091749.237000", "091749.240000", "091749.242000", "091749.245000", "091749.248000", "091749.250000", "091749.253000", "091749.255000", "091749.258000", "091749.261000", "091749.263000", "091749.266000", "091749.268000", "091749.271000", "091749.274000", "091749.276000", "091749.279000", "091749.281000", "091809.219000", "091809.222000", "091809.225000", "091809.228000", "091809.230000", "091809.233000", "091809.236000", "091809.238000", "091809.241000", "091809.244000", "091809.246000", "091809.249000", "091809.251000", "091809.254000", "091809.256000", "091809.259000", "091809.262000", "091809.264000", "091809.267000", "091809.270000", "091809.272000", "091809.275000", "091809.277000", "091809.280000", "091809.283000", "091809.285000", "091809.288000", "091809.291000", "091809.293000", "091809.296000", "091809.298000", "091809.301000", "091809.304000", "091809.306000", "091809.310000", "091809.313000", "091809.315000", "091809.318000", "091829.219000", "091829.223000", "091829.225000", "091829.228000", "091829.230000", "091829.233000", "091829.236000", "091829.238000", "091829.241000", "091829.244000", "091829.246000", "091829.249000", "091829.251000", "091829.254000", "091829.257000", "091829.261000", "091829.264000", "091829.266000", "091829.269000", "091829.272000", "091829.274000", "091829.277000", "091829.280000", "091829.282000", "091829.285000", "091829.287000", "091829.290000", "091829.293000", "091829.295000", "091829.298000", "091829.301000", "091829.303000", "091829.306000", "091829.308000", "091829.311000", "091829.314000", "091829.316000", "091829.319000", "091849.218000", "091849.221000", "091849.224000", "091849.227000", "091849.229000", "091849.232000", "091849.235000", "091849.237000", "091849.240000", "091849.242000", "091849.245000", "091849.248000", "091849.250000", "091849.253000", "091849.255000", "091849.258000", "091849.261000", "091849.263000", "091849.266000", "091849.269000", "091849.271000", "091849.274000", "091849.277000", "091849.279000", "091849.282000", "091849.285000", "091849.287000", "091849.290000", "091849.293000", "091849.295000", "091849.298000", "091849.300000", "091849.303000", "091849.307000", "091849.310000", "091849.312000", "091849.315000", "091849.318000", "091859.292000", "091859.296000", "091859.299000", "091859.301000", "091859.304000", "091859.307000", "091859.310000", "091859.312000", "091859.315000", "091859.318000", "091859.321000", "091859.323000", "091859.326000", "091859.329000", "091859.331000", "091859.334000", "091859.337000", "091859.339000", "091859.342000", "091859.345000"],
      "InstanceNumber": [1, 2, 3, 4, 5, 6, 7, 8, 9, 10, 11, 12, 13, 14, 15, 16, 17, 18, 19, 20, 21, 22, 23, 24, 25, 26, 27, 28, 29, 30, 31, 32, 33, 34, 35, 36, 37, 38, 39, 40, 41, 42, 43, 44, 45, 46, 47, 48, 49, 50, 51, 52, 53, 54, 55, 56, 57, 58, 59, 60, 61, 62, 63, 64, 65, 66, 67, 68, 69, 70, 71, 72, 73, 74, 75, 76, 77, 78, 79, 80, 81, 82, 83, 84, 85, 86, 87, 88, 89, 90, 91, 92, 93, 94, 95, 96, 97, 98, 99, 100, 101, 102, 103, 104, 105, 106, 107, 108, 109, 110, 111, 112, 113, 114, 115, 116, 117, 118, 119, 120, 121, 122, 123, 124, 125, 126, 127, 128, 129, 130, 131, 132, 133, 134, 135, 136, 137, 138, 139, 140, 141, 142, 143, 144, 145, 146, 147, 148, 149, 150, 151, 152, 153, 154, 155, 156, 157],
      "LargestImagePixelValue": [1852, 1856, 1854, 1855, 1852, 1855, 1852, 1850, 1854, 1852, 1850, 1855, 1855, 1858, 1853, 1860, 1853, 1852, 1856, 1852, 1854, 1855, 1852, 1854, 1855, 1856, 1853, 1852, 1853, 1854, 1854, 1854, 1852, 1849, 1854, 1854, 1856, 1853, 1851, 1855, 1854, 1852, 1852, 1856, 1854, 1853, 1852, 1851, 1853, 1859, 1852, 1851, 1857, 1855, 1855, 1855, 1853, 1852, 1853, 1852, 1854, 1853, 1854, 1853, 1853, 1856, 1858, 1855, 1852, 1855, 1852, 1859, 1855, 1852, 1854, 1858, 1858, 1848, 1855, 1852, 1858, 1850, 1853, 1858, 1852, 1856, 1853, 1853, 1854, 1855, 1855, 1855, 1850, 1850, 1849, 1854, 1857, 1855, 1855, 1850, 1855, 1852, 1857, 1857, 1857, 1848, 1854, 1855, 1855, 1850, 1851, 1854, 1854, 1851, 1857, 1855, 1856, 1849, 1855, 1853, 1854, 1851, 1851, 1855, 1858, 1855, 1856, 1855, 1853, 1854, 1853, 1852, 1848, 1850, 1852, 1852, 1852, 1854, 1851, 1853, 1850, 1853, 1856, 1852, 1854, 1854, 1854, 1856, 1853, 1852, 1856, 1852, 1857, 1853, 1853, 1854, 1857],
      "WindowCenter": [849.0, 849.0, 849.0, 848.0, 848.0, 848.0, 848.0, 849.0, 849.0, 849.0, 849.0, 849.0, 849.0, 848.0, 849.0, 848.0, 848.0, 848.0, 848.0, 848.0, 848.0, 849.0, 848.0, 849.0, 848.0, 849.0, 848.0, 848.0, 848.0, 848.0, 848.0, 849.0, 848.0, 848.0, 848.0, 848.0, 848.0, 848.0, 848.0, 848.0, 848.0, 848.0, 848.0, 848.0, 848.0, 848.0, 848.0, 849.0, 849.0, 848.0, 848.0, 849.0, 849.0, 849.0, 848.0, 848.0, 849.0, 849.0, 848.0, 848.0, 848.0, 849.0, 848.0, 848.0, 849.0, 848.0, 848.0, 848.0, 848.0, 848.0, 849.0, 849.0, 849.0, 848.0, 849.0, 848.0, 848.0, 848.0, 848.0, 848.0, 848.0, 849.0, 848.0, 849.0, 849.0, 849.0, 849.0, 849.0, 848.0, 849.0, 848.0, 848.0, 849.0, 848.0, 848.0, 848.0, 848.0, 848.0, 848.0, 848.0, 848.0, 848.0, 848.0, 848.0, 849.0, 849.0, 849.0, 848.0, 848.0, 849.0, 849.0, 848.0, 848.0, 849.0, 849.0, 848.0, 848.0, 848.0, 848.0, 849.0, 849.0, 849.0, 849.0, 848.0, 849.0, 849.0, 848.0, 849.0, 849.0, 849.0, 849.0, 848.0, 848.0, 849.0, 848.0, 848.0, 848.0, 849.0, 848.0, 848.0, 849.0, 849.0, 849.0, 848.0, 848.0, 848.0, 848.0, 848.0, 848.0, 848.0, 848.0, 849.0, 849.0, 848.0, 848.0, 848.0, 848.0],
      "WindowWidth": [1856.0, 1856.0, 1855.0, 1855.0, 1855.0, 1855.0, 1855.0, 1856.0, 1856.0, 1855.0, 1856.0, 1856.0, 1856.0, 1855.0, 1856.0, 1855.0, 1855.0, 1855.0, 1855.0, 1855.0, 1855.0, 1856.0, 1855.0, 1855.0, 1855.0, 1855.0, 1855.0, 1855.0, 1855.0, 1855.0, 1855.0, 1856.0, 1855.0, 1855.0, 1855.0, 1855.0, 1855.0, 1855.0, 1855.0, 1855.0, 1855.0, 1855.0, 1855.0, 1855.0, 1855.0, 1855.0, 1855.0, 1856.0, 1856.0, 1855.0, 1855.0, 1855.0, 1855.0, 1856.0, 1855.0, 1855.0, 1856.0, 1855.0, 1855.0, 1855.0, 1855.0, 1855.0, 1855.0, 1855.0, 1855.0, 1855.0, 1855.0, 1855.0, 1855.0, 1855.0, 1855.0, 1855.0, 1855.0, 1855.0, 1856.0, 1855.0, 1855.0, 1855.0, 1855.0, 1855.0, 1855.0, 1856.0, 1855.0, 1856.0, 1855.0, 1855.0, 1855.0, 1856.0, 1855.0, 1855.0, 1855.0, 1855.0, 1855.0, 1855.0, 1855.0, 1855.0, 1855.0, 1855.0, 1855.0, 1855.0, 1855.0, 1855.0, 1855.0, 1855.0, 1856.0, 1856.0, 1856.0, 1855.0, 1855.0, 1855.0, 1856.0, 1855.0, 1855.0, 1855.0, 1855.0, 1855.0, 1855.0, 1855.0, 1855.0, 1856.0, 1855.0, 1856.0, 1855.0, 1855.0, 1856.0, 1855.0, 1855.0, 1856.0, 1855.0, 1855.0, 1856.0, 1855.0, 1855.0, 1856.0, 1855.0, 1855.0, 1855.0, 1856.0, 1855.0, 1855.0, 1855.0, 1856.0, 1856.0, 1855.0, 1855.0, 1855.0, 1855.0, 1855.0, 1855.0, 1855.0, 1855.0, 1856.0, 1856.0, 1855.0, 1855.0, 1855.0, 1855.0]
    },
    "slices": {}
  }
}