{
  "AcquisitionDateTime": "2017-01-17T91:20:9.789062", 
  "ConversionSoftware": "dcm2niix", 
  "ConversionSoftwareVersion": "v1.0.20170130", 
  "EchoTime": 0.035, 
  "EffectiveEchoSpacing": 0.00026, 
  "FlipAngle": 90, 
  "ImageType": [
    "ORIGINAL", 
    "PRIMARY", 
    "M", 
    "ND", 
    "NORM", 
    "MOSAIC"
], 
  "MagneticFieldStrength": 3, 
  "Manufacturer": "Siemens", 
  "ManufacturersModelName": "Prisma", 
  "PhaseEncodingDirection": "j-", 
  "ProcedureStepDescription": "dbic_QA", 
  "ProtocolName": "BOLD_p2", 
  "RepetitionTime": 2, 
  "SliceTiming": [0.99, 0, 1.0575, 0.0675, 1.1225, 0.1325, 1.1875, 0.2, 1.255, 0.265, 1.32, 0.33, 1.3875, 0.3975, 1.4525, 0.4625, 1.5175, 0.53, 1.585, 0.595, 1.65, 0.66, 1.7175, 0.7275, 1.7825, 0.7925, 1.8475, 0.8575, 1.915, 0.925], 
  "dcmmeta_affine": [
    [-2.926417827606201, 0.6316447257995605, 0.25618720054626465, 83.11871337890625], 
    [0.6603600978851318, 2.796895742416382, 1.1451129913330078, -141.27357482910156], 
    [-0.001698157167993486, -0.8822693824768066, 3.8135526180267334, -21.74075698852539], 
    [0.0, 0.0, 0.0, 1.0]
], 
  "dcmmeta_reorient_transform": [
    [0.0, -1.0, 0.0, 79.0], 
    [1.0, 0.0, 0.0, 0.0], 
    [0.0, 0.0, 1.0, 0.0], 
    [0.0, 0.0, 0.0, 1.0]
], 
  "dcmmeta_shape": [80, 80, 30, 157], 
  "dcmmeta_slice_dim": 2, 
  "dcmmeta_version": 0.6, 
  "global": {
    "const": {
      "AccessionNumber": "qa", 
      "AcquisitionMatrix": [80, 0, 0, 80], 
      "AngioFlag": "N", 
      "BitsAllocated": 16, 
      "BitsStored": 12, 
      "BodyPartExamined": "BRAIN", 
      "Columns": 480, 
      "EchoNumbers": 1, 
      "EchoTime": 35.0, 
      "EchoTrainLength": 39, 
      "FlipAngle": 90.0, 
      "HighBit": 11, 
      "ImageOrientationPatient": [0.97547263141977, -0.2201200239316, -0.0005660524048, 0.21054824895593, 0.93229857307246, 0.29408979157503], 
      "ImagePositionPatient": [-844.63117797451, -506.9883100773, -267.55428199141], 
      "ImageType": [
        "ORIGINAL", 
        "PRIMARY", 
        "M", 
        "ND", 
        "NORM", 
        "MOSAIC"
], 
      "ImagedNucleus": "1H", 
      "ImagingFrequency": 123.252564, 
      "InPlanePhaseEncodingDirection": "COL", 
      "MRAcquisitionType": "2D", 
      "MagneticFieldStrength": 3.0, 
      "Manufacturer": "SIEMENS", 
      "ManufacturerModelName": "Prisma", 
      "Modality": "MR", 
      "NumberOfAverages": 1.0, 
      "NumberOfPhaseEncodingSteps": 79, 
      "PercentPhaseFieldOfView": 100.0, 
      "PercentSampling": 100.0, 
      "PerformedProcedureStepStartTime": "085712.888000", 
      "PhotometricInterpretation": "MONOCHROME2", 
      "PixelBandwidth": 2315.0, 
      "PixelRepresentation": 0, 
      "PixelSpacing": [3.0, 3.0], 
      "PositionReferenceIndicator": "", 
      "ProtocolName": "BOLD_p2", 
      "RepetitionTime": 2000.0, 
      "Rows": 480, 
      "SAR": 0.05580742565152, 
      "SamplesPerPixel": 1, 
      "ScanOptions": "FS", 
      "ScanningSequence": "EP", 
      "SequenceName": "*epfid2d1_80", 
      "SequenceVariant": "SK", 
      "SeriesDescription": "BOLD_p2", 
      "SeriesNumber": 5, 
      "SeriesTime": "091309.150000", 
      "SliceLocation": -55.98741366548, 
      "SliceThickness": 3.5, 
      "SmallestImagePixelValue": 0, 
      "SoftwareVersions": "syngo MR E11", 
      "SpacingBetweenSlices": 3.9899999901637, 
      "SpecificCharacterSet": "ISO_IR 100", 
      "StudyID": "22", 
      "StudyTime": "085712.799000", 
      "TransmitCoilName": "Body", 
      "VariableFlipAngleFlag": "N", 
      "WindowCenterWidthExplanation": "Algo1", 
      "dBdt": 0.0}, 
    "slices": {}
  }, 
  "time": {
    "samples": {
      "AcquisitionNumber": [1, 2, 3, 4, 5, 6, 7, 8, 9, 10, 11, 12, 13, 14, 15, 16, 17, 18, 19, 20, 21, 22, 23, 24, 25, 26, 27, 28, 29, 30, 31, 32, 33, 34, 35, 36, 37, 38, 39, 40, 41, 42, 43, 44, 45, 46, 47, 48, 49, 50, 51, 52, 53, 54, 55, 56, 57, 58, 59, 60, 61, 62, 63, 64, 65, 66, 67, 68, 69, 70, 71, 72, 73, 74, 75, 76, 77, 78, 79, 80, 81, 82, 83, 84, 85, 86, 87, 88, 89, 90, 91, 92, 93, 94, 95, 96, 97, 98, 99, 100, 101, 102, 103, 104, 105, 106, 107, 108, 109, 110, 111, 112, 113, 114, 115, 116, 117, 118, 119, 120, 121, 122, 123, 124, 125, 126, 127, 128, 129, 130, 131, 132, 133, 134, 135, 136, 137, 138, 139, 140, 141, 142, 143, 144, 145, 146, 147, 148, 149, 150, 151, 152, 153, 154, 155, 156, 157], 
      "AcquisitionTime": ["091209.792500", "091211.792500", "091213.792500", "091215.792500", "091217.792500", "091219.792500", "091221.792500", "091223.792500", "091225.792500", "091227.792500", "091229.792500", "091231.792500", "091233.792500", "091235.792500", "091237.792500", "091239.792500", "091241.792500", "091243.792500", "091245.792500", "091247.792500", "091249.792500", "091251.792500", "091253.792500", "091255.792500", "091257.792500", "091259.792500", "091301.792500", "091303.792500", "091305.792500", "091307.792500", "091309.792500", "091311.792500", "091313.792500", "091315.792500", "091317.792500", "091319.792500", "091321.792500", "091323.792500", "091325.792500", "091327.792500", "091329.792500", "091331.792500", "091333.792500", "091335.792500", "091337.792500", "091339.792500", "091341.792500", "091343.792500", "091345.792500", "091347.792500", "091349.792500", "091351.792500", "091353.792500", "091355.792500", "091357.792500", "091359.792500", "091401.792500", "091403.792500", "091405.792500", "091407.792500", "091409.792500", "091411.792500", "091413.792500", "091415.792500", "091417.792500", "091419.792500", "091421.792500", "091423.792500", "091425.792500", "091427.792500", "091429.792500", "091431.792500", "091433.792500", "091435.792500", "091437.792500", "091439.792500", "091441.792500", "091443.792500", "091445.792500", "091447.792500", "091449.792500", "091451.792500", "091453.792500", "091455.792500", "091457.792500", "091459.792500", "091501.792500", "091503.792500", "091505.792500", "091507.792500", "091509.792500", "091511.792500", "091513.792500", "091515.792500", "091517.792500", "091519.792500", "091521.792500", "091523.792500", "091525.792500", "091527.792500", "091529.792500", "091531.792500", "091533.792500", "091535.792500", "091537.792500", "091539.792500", "091541.792500", "091543.792500", "091545.792500", "091547.792500", "091549.792500", "091551.792500", "091553.792500", "091555.792500", "091557.792500", "091559.792500", "091601.792500", "091603.792500", "091605.792500", "091607.792500", "091609.792500", "091611.792500", "091613.792500", "091615.792500", "091617.792500", "091619.792500", "091621.792500", "091623.792500", "091625.792500", "091627.792500", "091629.792500", "091631.792500", "091633.792500", "091635.792500", "091637.792500", "091639.792500", "091641.792500", "091643.792500", "091645.792500", "091647.792500", "091649.792500", "091651.792500", "091653.792500", "091655.792500", "091657.792500", "091659.792500", "091701.792500", "091703.792500", "091705.792500", "091707.792500", "091709.792500", "091711.792500", "091713.792500", "091715.792500", "091717.792500", "091719.792500", "091721.792500"], 
      "ContentTime": ["091309.154000", "091309.157000", "091309.160000", "091309.163000", "091309.165000", "091309.168000", "091309.170000", "091309.173000", "091309.176000", "091309.178000", "091309.181000", "091309.184000", "091309.186000", "091309.189000", "091309.191000", "091309.194000", "091309.197000", "091309.199000", "091309.202000", "091309.204000", "091309.207000", "091309.210000", "091309.212000", "091309.215000", "091309.218000", "091309.220000", "091309.223000", "091309.227000", "091309.229000", "091349.150000", "091349.153000", "091349.155000", "091349.158000", "091349.160000", "091349.163000", "091349.166000", "091349.168000", "091349.171000", "091349.174000", "091349.176000", "091349.179000", "091349.181000", "091349.184000", "091349.187000", "091349.189000", "091349.192000", "091349.194000", "091349.197000", "091349.200000", "091429.148000", "091429.151000", "091429.154000", "091429.157000", "091429.159000", "091429.162000", "091429.165000", "091429.167000", "091429.170000", "091429.173000", "091429.175000", "091429.178000", "091429.180000", "091429.183000", "091429.186000", "091429.188000", "091429.191000", "091429.193000", "091429.196000", "091429.199000", "091509.148000", "091509.152000", "091509.154000", "091509.157000", "091509.159000", "091509.162000", "091509.165000", "091509.167000", "091509.170000", "091509.172000", "091509.175000", "091509.178000", "091509.180000", "091509.183000", "091509.186000", "091509.188000", "091509.191000", "091509.194000", "091509.196000", "091509.199000", "091549.150000", "091549.153000", "091549.155000", "091549.158000", "091549.160000", "091549.163000", "091549.166000", "091549.168000", "091549.171000", "091549.174000", "091549.176000", "091549.179000", "091549.181000", "091549.184000", "091549.187000", "091549.189000", "091549.192000", "091549.195000", "091549.197000", "091549.200000", "091629.149000", "091629.152000", "091629.154000", "091629.157000", "091629.159000", "091629.162000", "091629.165000", "091629.167000", "091629.170000", "091629.172000", "091629.175000", "091629.178000", "091629.180000", "091629.183000", "091629.186000", "091629.188000", "091629.191000", "091629.194000", "091629.196000", "091629.199000", "091709.148000", "091709.152000", "091709.154000", "091709.157000", "091709.159000", "091709.162000", "091709.165000", "091709.167000", "091709.170000", "091709.173000", "091709.175000", "091709.178000", "091709.180000", "091709.183000", "091709.186000", "091709.188000", "091709.191000", "091709.194000", "091709.196000", "091709.199000", "091723.752000", "091723.755000", "091723.758000", "091723.761000", "091723.763000", "091723.766000", "091723.769000", "091723.771000"], 
      "InstanceCreationTime": ["091309.154000", "091309.157000", "091309.160000", "091309.163000", "091309.165000", "091309.168000", "091309.170000", "091309.173000", "091309.176000", "091309.178000", "091309.181000", "091309.184000", "091309.186000", "091309.189000", "091309.191000", "091309.194000", "091309.197000", "091309.199000", "091309.202000", "091309.204000", "091309.207000", "091309.210000", "091309.212000", "091309.215000", "091309.218000", "091309.220000", "091309.223000", "091309.227000", "091309.229000", "091349.150000", "091349.153000", "091349.155000", "091349.158000", "091349.160000", "091349.163000", "091349.166000", "091349.168000", "091349.171000", "091349.174000", "091349.176000", "091349.179000", "091349.181000", "091349.184000", "091349.187000", "091349.189000", "091349.192000", "091349.194000", "091349.197000", "091349.200000", "091429.148000", "091429.151000", "091429.154000", "091429.157000", "091429.159000", "091429.162000", "091429.165000", "091429.167000", "091429.170000", "091429.173000", "091429.175000", "091429.178000", "091429.180000", "091429.183000", "091429.186000", "091429.188000", "091429.191000", "091429.193000", "091429.196000", "091429.199000", "091509.148000", "091509.152000", "091509.154000", "091509.157000", "091509.159000", "091509.162000", "091509.165000", "091509.167000", "091509.170000", "091509.172000", "091509.175000", "091509.178000", "091509.180000", "091509.183000", "091509.186000", "091509.188000", "091509.191000", "091509.194000", "091509.196000", "091509.199000", "091549.150000", "091549.153000", "091549.155000", "091549.158000", "091549.160000", "091549.163000", "091549.166000", "091549.168000", "091549.171000", "091549.174000", "091549.176000", "091549.179000", "091549.181000", "091549.184000", "091549.187000", "091549.189000", "091549.192000", "091549.195000", "091549.197000", "091549.200000", "091629.149000", "091629.152000", "091629.154000", "091629.157000", "091629.159000", "091629.162000", "091629.165000", "091629.167000", "091629.170000", "091629.172000", "091629.175000", "091629.178000", "091629.180000", "091629.183000", "091629.186000", "091629.188000", "091629.191000", "091629.194000", "091629.196000", "091629.199000", "091709.148000", "091709.152000", "091709.154000", "091709.157000", "091709.159000", "091709.162000", "091709.165000", "091709.167000", "091709.170000", "091709.173000", "091709.175000", "091709.178000", "091709.180000", "091709.183000", "091709.186000", "091709.188000", "091709.191000", "091709.194000", "091709.196000", "091709.199000", "091723.752000", "091723.755000", "091723.758000", "091723.761000", "091723.763000", "091723.766000", "091723.769000", "091723.771000"], 
      "InstanceNumber": [1, 2, 3, 4, 5, 6, 7, 8, 9, 10, 11, 12, 13, 14, 15, 16, 17, 18, 19, 20, 21, 22, 23, 24, 25, 26, 27, 28, 29, 30, 31, 32, 33, 34, 35, 36, 37, 38, 39, 40, 41, 42, 43, 44, 45, 46, 47, 48, 49, 50, 51, 52, 53, 54, 55, 56, 57, 58, 59, 60, 61, 62, 63, 64, 65, 66, 67, 68, 69, 70, 71, 72, 73, 74, 75, 76, 77, 78, 79, 80, 81, 82, 83, 84, 85, 86, 87, 88, 89, 90, 91, 92, 93, 94, 95, 96, 97, 98, 99, 100, 101, 102, 103, 104, 105, 106, 107, 108, 109, 110, 111, 112, 113, 114, 115, 116, 117, 118, 119, 120, 121, 122, 123, 124, 125, 126, 127, 128, 129, 130, 131, 132, 133, 134, 135, 136, 137, 138, 139, 140, 141, 142, 143, 144, 145, 146, 147, 148, 149, 150, 151, 152, 153, 154, 155, 156, 157], 
      "LargestImagePixelValue": [2223, 2224, 2219, 2226, 2226, 2220, 2218, 2222, 2224, 2221, 2230, 2226, 2219, 2220, 2222, 2222, 2217, 2218, 2220, 2221, 2219, 2223, 2226, 2227, 2223, 2219, 2218, 2222, 2215, 2225, 2219, 2221, 2219, 2221, 2220, 2224, 2223, 2221, 2225, 2225, 2224, 2226, 2220, 2220, 2229, 2221, 2226, 2222, 2220, 2223, 2224, 2219, 2225, 2223, 2219, 2227, 2223, 2219, 2216, 2218, 2218, 2215, 2228, 2222, 2224, 2217, 2221, 2222, 2220, 2218, 2218, 2219, 2226, 2223, 2225, 2218, 2223, 2222, 2227, 2220, 2226, 2223, 2225, 2220, 2224, 2224, 2216, 2221, 2221, 2216, 2219, 2215, 2221, 2219, 2225, 2225, 2220, 2227, 2218, 2222, 2225, 2227, 2222, 2215, 2219, 2224, 2217, 2216, 2217, 2221, 2218, 2219, 2217, 2224, 2222, 2220, 2220, 2222, 2220, 2218, 2215, 2226, 2223, 2217, 2217, 2219, 2219, 2226, 2226, 2219, 2223, 2217, 2210, 2224, 2223, 2223, 2213, 2219, 2219, 2217, 2221, 2217, 2222, 2219, 2219, 2221, 2219, 2218, 2210, 2222, 2216, 2221, 2218, 2219, 2215, 2217, 2220], 
      "WindowCenter": [1003.0, 1004.0, 1003.0, 1003.0, 1003.0, 1003.0, 1003.0, 1003.0, 1003.0, 1003.0, 1003.0, 1003.0, 1003.0, 1003.0, 1003.0, 1003.0, 1003.0, 1003.0, 1003.0, 1003.0, 1004.0, 1004.0, 1003.0, 1003.0, 1003.0, 1003.0, 1003.0, 1003.0, 1004.0, 1003.0, 1003.0, 1003.0, 1003.0, 1003.0, 1003.0, 1003.0, 1003.0, 1003.0, 1003.0, 1004.0, 1003.0, 1004.0, 1003.0, 1003.0, 1004.0, 1003.0, 1003.0, 1004.0, 1003.0, 1004.0, 1003.0, 1003.0, 1003.0, 1003.0, 1003.0, 1003.0, 1003.0, 1003.0, 1003.0, 1003.0, 1003.0, 1003.0, 1003.0, 1003.0, 1003.0, 1003.0, 1003.0, 1003.0, 1003.0, 1003.0, 1004.0, 1003.0, 1003.0, 1003.0, 1003.0, 1003.0, 1003.0, 1004.0, 1003.0, 1003.0, 1003.0, 1003.0, 1004.0, 1003.0, 1003.0, 1003.0, 1003.0, 1003.0, 1004.0, 1003.0, 1003.0, 1003.0, 1003.0, 1004.0, 1003.0, 1003.0, 1003.0, 1003.0, 1003.0, 1003.0, 1003.0, 1003.0, 1003.0, 1004.0, 1003.0, 1003.0, 1003.0, 1003.0, 1003.0, 1003.0, 1003.0, 1003.0, 1003.0, 1003.0, 1003.0, 1003.0, 1003.0, 1003.0, 1003.0, 1003.0, 1003.0, 1003.0, 1003.0, 1003.0, 1003.0, 1003.0, 1003.0, 1003.0, 1003.0, 1004.0, 1003.0, 1003.0, 1003.0, 1003.0, 1003.0, 1003.0, 1003.0, 1003.0, 1003.0, 1003.0, 1003.0, 1003.0, 1003.0, 1003.0, 1003.0, 1003.0, 1003.0, 1003.0, 1003.0, 1003.0, 1004.0, 1003.0, 1003.0, 1003.0, 1003.0, 1003.0, 1004.0], 
      "WindowWidth": [2202.0, 2202.0, 2201.0, 2201.0, 2201.0, 2201.0, 2201.0, 2201.0, 2202.0, 2201.0, 2202.0, 2201.0, 2201.0, 2201.0, 2201.0, 2201.0, 2201.0, 2201.0, 2201.0, 2202.0, 2202.0, 2203.0, 2202.0, 2202.0, 2202.0, 2202.0, 2202.0, 2201.0, 2203.0, 2202.0, 2202.0, 2202.0, 2202.0, 2202.0, 2202.0, 2201.0, 2201.0, 2202.0, 2202.0, 2203.0, 2202.0, 2202.0, 2202.0, 2202.0, 2203.0, 2202.0, 2201.0, 2203.0, 2202.0, 2202.0, 2202.0, 2202.0, 2202.0, 2202.0, 2202.0, 2202.0, 2202.0, 2202.0, 2202.0, 2202.0, 2202.0, 2202.0, 2202.0, 2202.0, 2202.0, 2202.0, 2202.0, 2202.0, 2202.0, 2202.0, 2203.0, 2202.0, 2202.0, 2202.0, 2202.0, 2202.0, 2202.0, 2203.0, 2202.0, 2202.0, 2202.0, 2202.0, 2203.0, 2202.0, 2202.0, 2202.0, 2202.0, 2202.0, 2203.0, 2202.0, 2202.0, 2202.0, 2202.0, 2203.0, 2202.0, 2202.0, 2202.0, 2202.0, 2202.0, 2202.0, 2202.0, 2202.0, 2202.0, 2203.0, 2202.0, 2202.0, 2202.0, 2202.0, 2202.0, 2202.0, 2202.0, 2202.0, 2202.0, 2202.0, 2202.0, 2202.0, 2202.0, 2202.0, 2202.0, 2202.0, 2202.0, 2202.0, 2202.0, 2202.0, 2202.0, 2202.0, 2202.0, 2202.0, 2202.0, 2203.0, 2202.0, 2202.0, 2202.0, 2202.0, 2202.0, 2202.0, 2202.0, 2202.0, 2202.0, 2202.0, 2202.0, 2202.0, 2202.0, 2202.0, 2202.0, 2202.0, 2202.0, 2202.0, 2202.0, 2202.0, 2203.0, 2202.0, 2202.0, 2202.0, 2202.0, 2202.0, 2203.0]
    }, 
    "slices": {}
  }
}