{
  "AcquisitionMatrixPE": 122,
  "AcquisitionNumber": 1,
  "AcquisitionTime": "16:03:7.190000",
  "BandwidthPerPixelPhaseEncode": 28.76,
  "BaseResolution": 122,
  "BodyPartExamined": "BRAIN",
  "CoilCombinationMethod": "Adaptive Combine",
  "ConsistencyInfo": "N4_VE11C_LATEST_20160120",
  "ConversionSoftware": "dcm2niix",
  "ConversionSoftwareVersion": "v1.0.20220720",
  "DerivedVendorReportedEchoSpacing": 0.000570008,
  "DeviceSerialNumber": "66112",
  "DiffusionScheme": "Monopolar",
  "DwellTime": 2e-06,
  "EchoTime": 0.075,
  "EchoTrainLength": 61,
  "EffectiveEchoSpacing": 0.000285004,
  "FlipAngle": 90,
  "HeudiconvVersion": "0.13.1",
  "ImageOrientationPatientDICOM": [0.978376, -0.206832, 9.17772e-05, 0.196742, 0.930785, 0.308109],
  "ImageOrientationText": "Tra>Cor(17.6)>Sag(3.7)",
  "ImageType": [
    "ORIGINAL",
    "PRIMARY",
    "DIFFUSION",
    "NONE",
    "ND",
    "NORM"
],
  "ImagingFrequency": 123.252,
  "InPlanePhaseEncodingDirectionDICOM": "COL",
  "InstitutionAddress": "Maynard 3,Hanover,NH,US,03755",
  "InstitutionName": "Dartmouth College - PBS",
  "InstitutionalDepartmentName": "Department",
  "MRAcquisitionType": "2D",
  "MagneticFieldStrength": 3,
  "Manufacturer": "Siemens",
  "ManufacturersModelName": "Prisma",
  "MatrixCoilMode": "GRAPPA",
  "Modality": "MR",
  "NonlinearGradientCorrection": false,
  "ParallelReductionFactorInPlane": 2,
  "PartialFourier": 1,
  "PatientPosition": "HFS",
  "PercentPhaseFOV": 100,
  "PercentSampling": 100,
  "PhaseEncodingDirection": "j-",
  "PhaseEncodingSteps": 122,
  "PhaseResolution": 1,
  "PixelBandwidth": 2050,
  "ProcedureStepDescription": "dbic^QA",
  "ProtocolName": "dwi_acq-DTI-30-p2",
  "PulseSequenceDetails": "%SiemensSeq%\\ep2d_diff",
  "ReceiveCoilActiveElements": "HEA;HEP",
  "ReceiveCoilName": "Head_32",
  "ReconMatrixPE": 122,
  "RefLinesPE": 38,
  "RepetitionTime": 7.7,
  "SAR": 0.101762,
  "ScanOptions": "FS",
  "ScanningSequence": "EP",
  "SequenceName": "*ep_b0",
  "SequenceVariant": "SK\\SP",
  "SeriesDescription": "dwi_acq-DTI-30-p2",
  "SeriesNumber": 12,
  "ShimSetting": [4148, -7710, -7518, 215, -56, -13, -32, 61],
  "SliceThickness": 2,
  "SliceTiming": [3.84375, 0, 3.95312, 0.10938, 4.0625, 0.21875, 4.17188, 0.34375, 4.28125, 0.45312, 4.39062, 0.54688, 4.5, 0.65625, 4.60938, 0.78125, 4.71875, 0.89062, 4.82812, 1, 4.9375, 1.10938, 5.04688, 1.21875, 5.15625, 1.32812, 5.26562, 1.4375, 5.375, 1.54688, 5.48438, 1.65625, 5.59375, 1.76562, 5.71875, 1.875, 5.82812, 1.98438, 5.9375, 2.09375, 6.04688, 2.20312, 6.15625, 2.3125, 6.26562, 2.42188, 6.375, 2.53125, 6.48438, 2.64062, 6.59375, 2.75, 6.70312, 2.85938, 6.8125, 2.96875, 6.92188, 3.07812, 7.03125, 3.1875, 7.14062, 3.29688, 7.25, 3.40625, 7.35938, 3.51562, 7.46875, 3.625, 7.57812, 3.73438],
  "SoftwareVersions": "syngo MR E11",
  "SpacingBetweenSlices": 2,
  "SpoilingState": true,
  "StationName": "AWP66112",
  "TotalReadoutTime": 0.0344855,
  "TxRefAmp": 226.492,
  "dcmmeta_affine": [
    [-1.9246749877929688, 0.38703399896621704, 0.12762451171875, 88.07915496826172],
    [0.4068828225135803, 1.8310531377792358, 0.6028556823730469, -139.2373046875],
    [0.00018054526299238205, -0.606115996837616, 1.9027023315429688, -32.667144775390625],
    [0.0, 0.0, 0.0, 1.0]
],
  "dcmmeta_reorient_transform": [
    [0.0, -1.0, 0.0, 121.0],
    [1.0, 0.0, 0.0, 0.0],
    [0.0, 0.0, -1.0, 69.0],
    [0.0, 0.0, 0.0, 1.0]
],
  "dcmmeta_shape": [122, 122, 70, 31],
  "dcmmeta_slice_dim": 2,
  "dcmmeta_version": 0.6,
  "global": {
    "const": {
      "AccessionNumber": "qa",
      "AcquisitionMatrix": [122, 0, 0, 122],
      "AngioFlag": "N",
      "BitsAllocated": 16,
      "BitsStored": 12,
      "BodyPartExamined": "BRAIN",
      "Columns": 122,
      "EchoNumbers": 1,
      "EchoTime": 75.0,
      "EchoTrainLength": 61,
      "FlipAngle": 90.0,
      "HighBit": 11,
      "ImageOrientationPatient": [0.97837644814038, -0.2068320993008, 9.177717605e-05, 0.19674227448281, 0.93078533617017, 0.3081089667665],
      "ImageType": [
        "ORIGINAL",
        "PRIMARY",
        "DIFFUSION",
        "NONE",
        "ND",
        "NORM"
],
      "ImagedNucleus": "1H",
      "ImagingFrequency": 123.252398,
      "InPlanePhaseEncodingDirection": "COL",
      "MRAcquisitionType": "2D",
      "MagneticFieldStrength": 3.0,
      "Manufacturer": "SIEMENS",
      "ManufacturerModelName": "Prisma",
      "Modality": "MR",
      "NumberOfAverages": 1.0,
      "NumberOfPhaseEncodingSteps": 122,
      "PercentPhaseFieldOfView": 100.0,
      "PercentSampling": 100.0,
      "PerformedProcedureStepStartTime": "152550.199000",
      "PhotometricInterpretation": "MONOCHROME2",
      "PixelBandwidth": 2050.0,
      "PixelRepresentation": 0,
      "PixelSpacing": [1.9672131538391, 1.9672131538391],
      "ProtocolName": "dwi_acq-DTI-30-p2",
      "RepetitionTime": 7700.0,
      "Rows": 122,
      "SAR": 0.10176232626971,
      "SamplesPerPixel": 1,
      "ScanOptions": "FS",
      "ScanningSequence": "EP",
      "SequenceVariant": [
        "SK",
        "SP"
],
      "SeriesDescription": "dwi_acq-DTI-30-p2",
      "SeriesNumber": 12,
      "SeriesTime": "160323.895000",
      "SliceThickness": 2.0,
      "SmallestImagePixelValue": 0,
      "SoftwareVersions": "syngo MR E11",
      "SpacingBetweenSlices": 2.0,
      "SpecificCharacterSet": "ISO_IR 100",
      "StudyID": "12",
      "StudyTime": "152550.083000",
      "TransmitCoilName": "Body",
      "VariableFlipAngleFlag": "N",
      "WindowCenterWidthExplanation": "Algo1",
      "dBdt": 0.0},
    "slices": {
      "AcquisitionTime": ["160307.190000", "160303.350000", "160307.300000", "160303.460000", "160307.410000", "160303.570000", "160307.520000", "160303.680000", "160307.627500", "160303.790000", "160307.737500", "160303.897500", "160307.847500", "160304.007500", "160307.957500", "160304.117500", "160308.067500", "160304.227500", "160308.177500", "160304.337500", "160308.287500", "160304.447500", "160308.397500", "160304.557500", "160308.507500", "160304.667500", "160308.615000", "160304.775000", "160308.725000", "160304.885000", "160308.835000", "160304.995000", "160308.945000", "160305.105000", "160309.055000", "160305.215000", "160309.165000", "160305.325000", "160309.275000", "160305.435000", "160309.385000", "160305.545000", "160309.492500", "160305.655000", "160309.602500", "160305.762500", "160309.712500", "160305.872500", "160309.822500", "160305.982500", "160309.932500", "160306.092500", "160310.042500", "160306.202500", "160310.152500", "160306.312500", "160310.262500", "160306.422500", "160310.372500", "160306.532500", "160310.480000", "160306.640000", "160310.590000", "160306.750000", "160310.700000", "160306.860000", "160310.810000", "160306.970000", "160310.920000", "160307.080000", "160314.890000", "160311.050000", "160315.000000", "160311.160000", "160315.110000", "160311.270000", "160315.220000", "160311.380000", "160315.327500", "160311.490000", "160315.437500", "160311.597500", "160315.547500", "160311.707500", "160315.657500", "160311.817500", "160315.767500", "160311.927500", "160315.877500", "160312.037500", "160315.987500", "160312.147500", "160316.097500", "160312.257500", "160316.207500", "160312.367500", "160316.315000", "160312.475000", "160316.425000", "160312.585000", "160316.535000", "160312.695000", "160316.645000", "160312.805000", "160316.755000", "160312.915000", "160316.865000", "160313.025000", "160316.975000", "160313.135000", "160317.085000", "160313.245000", "160317.192500", "160313.355000", "160317.302500", "160313.462500", "160317.412500", "160313.572500", "160317.522500", "160313.682500", "160317.632500", "160313.792500", "160317.742500", "160313.902500", "160317.852500", "160314.012500", "160317.962500", "160314.122500", "160318.072500", "160314.232500", "160318.180000", "160314.340000", "160318.290000", "160314.450000", "160318.400000", "160314.560000", "160318.510000", "160314.670000", "160318.620000", "160314.780000", "160322.590000", "160318.750000", "160322.700000", "160318.860000", "160322.810000", "160318.970000", "160322.920000", "160319.080000", "160323.027500", "160319.190000", "160323.137500", "160319.297500", "160323.247500", "160319.407500", "160323.357500", "160319.517500", "160323.467500", "160319.627500", "160323.577500", "160319.737500", "160323.687500", "160319.847500", "160323.797500", "160319.957500", "160323.907500", "160320.067500", "160324.015000", "160320.175000", "160324.125000", "160320.285000", "160324.235000", "160320.395000", "160324.345000", "160320.505000", "160324.455000", "160320.615000", "160324.565000", "160320.725000", "160324.675000", "160320.835000", "160324.785000", "160320.945000", "160324.892500", "160321.055000", "160325.002500", "160321.162500", "160325.112500", "160321.272500", "160325.222500", "160321.382500", "160325.332500", "160321.492500", "160325.442500", "160321.602500", "160325.552500", "160321.712500", "160325.662500", "160321.822500", "160325.772500", "160321.932500", "160325.880000", "160322.040000", "160325.990000", "160322.150000", "160326.100000", "160322.260000", "160326.210000", "160322.370000", "160326.320000", "160322.480000", "160330.290000", "160326.450000", "160330.400000", "160326.560000", "160330.510000", "160326.670000", "160330.620000", "160326.780000", "160330.727500", "160326.890000", "160330.837500", "160326.997500", "160330.947500", "160327.107500", "160331.057500", "160327.217500", "160331.167500", "160327.327500", "160331.277500", "160327.437500", "160331.387500", "160327.547500", "160331.497500", "160327.657500", "160331.607500", "160327.767500", "160331.715000", "160327.875000", "160331.825000", "160327.985000", "160331.935000", "160328.095000", "160332.045000", "160328.205000", "160332.155000", "160328.315000", "160332.265000", "160328.425000", "160332.375000", "160328.535000", "160332.485000", "160328.645000", "160332.592500", "160328.755000", "160332.702500", "160328.862500", "160332.812500", "160328.972500", "160332.922500", "160329.082500", "160333.032500", "160329.192500", "160333.142500", "160329.302500", "160333.252500", "160329.412500", "160333.362500", "160329.522500", "160333.472500", "160329.632500", "160333.580000", "160329.740000", "160333.690000", "160329.850000", "160333.800000", "160329.960000", "160333.910000", "160330.070000", "160334.020000", "160330.180000", "160337.990000", "160334.150000", "160338.100000", "160334.260000", "160338.210000", "160334.370000", "160338.320000", "160334.480000", "160338.427500", "160334.590000", "160338.537500", "160334.697500", "160338.647500", "160334.807500", "160338.757500", "160334.917500", "160338.867500", "160335.027500", "160338.977500", "160335.137500", "160339.087500", "160335.247500", "160339.197500", "160335.357500", "160339.307500", "160335.467500", "160339.415000", "160335.575000", "160339.525000", "160335.685000", "160339.635000", "160335.795000", "160339.745000", "160335.905000", "160339.855000", "160336.015000", "160339.965000", "160336.125000", "160340.075000", "160336.235000", "160340.185000", "160336.345000", "160340.292500", "160336.455000", "160340.402500", "160336.562500", "160340.512500", "160336.672500", "160340.622500", "160336.782500", "160340.732500", "160336.892500", "160340.842500", "160337.002500", "160340.952500", "160337.112500", "160341.062500", "160337.222500", "160341.172500", "160337.332500", "160341.280000", "160337.440000", "160341.390000", "160337.550000", "160341.500000", "160337.660000", "160341.610000", "160337.770000", "160341.720000", "160337.880000", "160345.690000", "160341.850000", "160345.800000", "160341.960000", "160345.910000", "160342.070000", "160346.020000", "160342.180000", "160346.127500", "160342.290000", "160346.237500", "160342.397500", "160346.347500", "160342.507500", "160346.457500", "160342.617500", "160346.567500", "160342.727500", "160346.677500", "160342.837500", "160346.787500", "160342.947500", "160346.897500", "160343.057500", "160347.007500", "160343.167500", "160347.115000", "160343.275000", "160347.225000", "160343.385000", "160347.335000", "160343.495000", "160347.445000", "160343.605000", "160347.555000", "160343.715000", "160347.665000", "160343.825000", "160347.775000", "160343.935000", "160347.885000", "160344.045000", "160347.992500", "160344.155000", "160348.102500", "160344.262500", "160348.212500", "160344.372500", "160348.322500", "160344.482500", "160348.432500", "160344.592500", "160348.542500", "160344.702500", "160348.652500", "160344.812500", "160348.762500", "160344.922500", "160348.872500", "160345.032500", "160348.980000", "160345.140000", "160349.090000", "160345.250000", "160349.200000", "160345.360000", "160349.310000", "160345.470000", "160349.420000", "160345.580000", "160353.390000", "160349.550000", "160353.500000", "160349.660000", "160353.610000", "160349.770000", "160353.720000", "160349.880000", "160353.827500", "160349.990000", "160353.937500", "160350.097500", "160354.047500", "160350.207500", "160354.157500", "160350.317500", "160354.267500", "160350.427500", "160354.377500", "160350.537500", "160354.487500", "160350.647500", "160354.597500", "160350.757500", "160354.707500", "160350.867500", "160354.815000", "160350.975000", "160354.925000", "160351.085000", "160355.035000", "160351.195000", "160355.145000", "160351.305000", "160355.255000", "160351.415000", "160355.365000", "160351.525000", "160355.475000", "160351.635000", "160355.585000", "160351.745000", "160355.692500", "160351.855000", "160355.802500", "160351.962500", "160355.912500", "160352.072500", "160356.022500", "160352.182500", "160356.132500", "160352.292500", "160356.242500", "160352.402500", "160356.352500", "160352.512500", "160356.462500", "160352.622500", "160356.572500", "160352.732500", "160356.680000", "160352.840000", "160356.790000", "160352.950000", "160356.900000", "160353.060000", "160357.010000", "160353.170000", "160357.120000", "160353.280000", "160401.090000", "160357.250000", "160401.200000", "160357.360000", "160401.310000", "160357.470000", "160401.420000", "160357.580000", "160401.527500", "160357.690000", "160401.637500", "160357.797500", "160401.747500", "160357.907500", "160401.857500", "160358.017500", "160401.967500", "160358.127500", "160402.077500", "160358.237500", "160402.187500", "160358.347500", "160402.297500", "160358.457500", "160402.407500", "160358.567500", "160402.515000", "160358.675000", "160402.625000", "160358.785000", "160402.735000", "160358.895000", "160402.845000", "160359.005000", "160402.955000", "160359.115000", "160403.065000", "160359.225000", "160403.175000", "160359.335000", "160403.285000", "160359.445000", "160403.392500", "160359.555000", "160403.502500", "160359.662500", "160403.612500", "160359.772500", "160403.722500", "160359.882500", "160403.832500", "160359.992500", "160403.942500", "160400.102500", "160404.052500", "160400.212500", "160404.162500", "160400.322500", "160404.272500", "160400.432500", "160404.380000", "160400.540000", "160404.490000", "160400.650000", "160404.600000", "160400.760000", "160404.710000", "160400.870000", "160404.820000", "160400.980000", "160408.790000", "160404.950000", "160408.900000", "160405.060000", "160409.010000", "160405.170000", "160409.120000", "160405.280000", "160409.227500", "160405.390000", "160409.337500", "160405.497500", "160409.447500", "160405.607500", "160409.557500", "160405.717500", "160409.667500", "160405.827500", "160409.777500", "160405.937500", "160409.887500", "160406.047500", "160409.997500", "160406.157500", "160410.107500", "160406.267500", "160410.215000", "160406.375000", "160410.325000", "160406.485000", "160410.435000", "160406.595000", "160410.545000", "160406.705000", "160410.655000", "160406.815000", "160410.765000", "160406.925000", "160410.875000", "160407.035000", "160410.985000", "160407.145000", "160411.092500", "160407.255000", "160411.202500", "160407.362500", "160411.312500", "160407.472500", "160411.422500", "160407.582500", "160411.532500", "160407.692500", "160411.642500", "160407.802500", "160411.752500", "160407.912500", "160411.862500", "160408.022500", "160411.972500", "160408.132500", "160412.080000", "160408.240000", "160412.190000", "160408.350000", "160412.300000", "160408.460000", "160412.410000", "160408.570000", "160412.520000", "160408.680000", "160416.490000", "160412.650000", "160416.600000", "160412.760000", "160416.710000", "160412.870000", "160416.820000", "160412.980000", "160416.927500", "160413.090000", "160417.037500", "160413.197500", "160417.147500", "160413.307500", "160417.257500", "160413.417500", "160417.367500", "160413.527500", "160417.477500", "160413.637500", "160417.587500", "160413.747500", "160417.697500", "160413.857500", "160417.807500", "160413.967500", "160417.915000", "160414.075000", "160418.025000", "160414.185000", "160418.135000", "160414.295000", "160418.245000", "160414.405000", "160418.355000", "160414.515000", "160418.465000", "160414.625000", "160418.575000", "160414.735000", "160418.685000", "160414.845000", "160418.792500", "160414.955000", "160418.902500", "160415.062500", "160419.012500", "160415.172500", "160419.122500", "160415.282500", "160419.232500", "160415.392500", "160419.342500", "160415.502500", "160419.452500", "160415.612500", "160419.562500", "160415.722500", "160419.672500", "160415.832500", "160419.780000", "160415.940000", "160419.890000", "160416.050000", "160420.000000", "160416.160000", "160420.110000", "160416.270000", "160420.220000", "160416.380000", "160424.190000", "160420.350000", "160424.300000", "160420.460000", "160424.410000", "160420.570000", "160424.520000", "160420.680000", "160424.627500", "160420.790000", "160424.737500", "160420.897500", "160424.847500", "160421.007500", "160424.957500", "160421.117500", "160425.067500", "160421.227500", "160425.177500", "160421.337500", "160425.287500", "160421.447500", "160425.397500", "160421.557500", "160425.507500", "160421.667500", "160425.615000", "160421.775000", "160425.725000", "160421.885000", "160425.835000", "160421.995000", "160425.945000", "160422.105000", "160426.055000", "160422.215000", "160426.165000", "160422.325000", "160426.275000", "160422.435000", "160426.385000", "160422.545000", "160426.492500", "160422.655000", "160426.602500", "160422.762500", "160426.712500", "160422.872500", "160426.822500", "160422.982500", "160426.932500", "160423.092500", "160427.042500", "160423.202500", "160427.152500", "160423.312500", "160427.262500", "160423.422500", "160427.372500", "160423.532500", "160427.480000", "160423.640000", "160427.590000", "160423.750000", "160427.700000", "160423.860000", "160427.810000", "160423.970000", "160427.920000", "160424.080000", "160431.890000", "160428.050000", "160432.000000", "160428.160000", "160432.110000", "160428.270000", "160432.220000", "160428.380000", "160432.327500", "160428.490000", "160432.437500", "160428.597500", "160432.547500", "160428.707500", "160432.657500", "160428.817500", "160432.767500", "160428.927500", "160432.877500", "160429.037500", "160432.987500", "160429.147500", "160433.097500", "160429.257500", "160433.207500", "160429.367500", "160433.315000", "160429.475000", "160433.425000", "160429.585000", "160433.535000", "160429.695000", "160433.645000", "160429.805000", "160433.755000", "160429.915000", "160433.865000", "160430.025000", "160433.975000", "160430.135000", "160434.085000", "160430.245000", "160434.192500", "160430.355000", "160434.302500", "160430.462500", "160434.412500", "160430.572500", "160434.522500", "160430.682500", "160434.632500", "160430.792500", "160434.742500", "160430.902500", "160434.852500", "160431.012500", "160434.962500", "160431.122500", "160435.072500", "160431.232500", "160435.180000", "160431.340000", "160435.290000", "160431.450000", "160435.400000", "160431.560000", "160435.510000", "160431.670000", "160435.620000", "160431.780000", "160439.590000", "160435.750000", "160439.700000", "160435.860000", "160439.810000", "160435.970000", "160439.920000", "160436.080000", "160440.027500", "160436.190000", "160440.137500", "160436.297500", "160440.247500", "160436.407500", "160440.357500", "160436.517500", "160440.467500", "160436.627500", "160440.577500", "160436.737500", "160440.687500", "160436.847500", "160440.797500", "160436.957500", "160440.907500", "160437.067500", "160441.015000", "160437.175000", "160441.125000", "160437.285000", "160441.235000", "160437.395000", "160441.345000", "160437.505000", "160441.455000", "160437.615000", "160441.565000", "160437.725000", "160441.675000", "160437.835000", "160441.785000", "160437.945000", "160441.892500", "160438.055000", "160442.002500", "160438.162500", "160442.112500", "160438.272500", "160442.222500", "160438.382500", "160442.332500", "160438.492500", "160442.442500", "160438.602500", "160442.552500", "160438.712500", "160442.662500", "160438.822500", "160442.772500", "160438.932500", "160442.880000", "160439.040000", "160442.990000", "160439.150000", "160443.100000", "160439.260000", "160443.210000", "160439.370000", "160443.320000", "160439.480000", "160447.290000", "160443.450000", "160447.400000", "160443.560000", "160447.510000", "160443.670000", "160447.620000", "160443.780000", "160447.727500", "160443.890000", "160447.837500", "160443.997500", "160447.947500", "160444.107500", "160448.057500", "160444.217500", "160448.167500", "160444.327500", "160448.277500", "160444.437500", "160448.387500", "160444.547500", "160448.497500", "160444.657500", "160448.607500", "160444.767500", "160448.715000", "160444.875000", "160448.825000", "160444.985000", "160448.935000", "160445.095000", "160449.045000", "160445.205000", "160449.155000", "160445.315000", "160449.265000", "160445.425000", "160449.375000", "160445.535000", "160449.485000", "160445.645000", "160449.592500", "160445.755000", "160449.702500", "160445.862500", "160449.812500", "160445.972500", "160449.922500", "160446.082500", "160450.032500", "160446.192500", "160450.142500", "160446.302500", "160450.252500", "160446.412500", "160450.362500", "160446.522500", "160450.472500", "160446.632500", "160450.580000", "160446.740000", "160450.690000", "160446.850000", "160450.800000", "160446.960000", "160450.910000", "160447.070000", "160451.020000", "160447.180000", "160454.990000", "160451.150000", "160455.100000", "160451.260000", "160455.210000", "160451.370000", "160455.320000", "160451.480000", "160455.427500", "160451.590000", "160455.537500", "160451.697500", "160455.647500", "160451.807500", "160455.757500", "160451.917500", "160455.867500", "160452.027500", "160455.977500", "160452.137500", "160456.087500", "160452.247500", "160456.197500", "160452.357500", "160456.307500", "160452.467500", "160456.415000", "160452.575000", "160456.525000", "160452.685000", "160456.635000", "160452.795000", "160456.745000", "160452.905000", "160456.855000", "160453.015000", "160456.965000", "160453.125000", "160457.075000", "160453.235000", "160457.185000", "160453.345000", "160457.292500", "160453.455000", "160457.402500", "160453.562500", "160457.512500", "160453.672500", "160457.622500", "160453.782500", "160457.732500", "160453.892500", "160457.842500", "160454.002500", "160457.952500", "160454.112500", "160458.062500", "160454.222500", "160458.172500", "160454.332500", "160458.280000", "160454.440000", "160458.390000", "160454.550000", "160458.500000", "160454.660000", "160458.610000", "160454.770000", "160458.720000", "160454.880000", "160502.690000", "160458.850000", "160502.800000", "160458.960000", "160502.910000", "160459.070000", "160503.020000", "160459.180000", "160503.127500", "160459.290000", "160503.237500", "160459.397500", "160503.347500", "160459.507500", "160503.457500", "160459.617500", "160503.567500", "160459.727500", "160503.677500", "160459.837500", "160503.787500", "160459.947500", "160503.897500", "160500.057500", "160504.007500", "160500.167500", "160504.115000", "160500.275000", "160504.225000", "160500.385000", "160504.335000", "160500.495000", "160504.445000", "160500.605000", "160504.555000", "160500.715000", "160504.665000", "160500.825000", "160504.775000", "160500.935000", "160504.885000", "160501.045000", "160504.992500", "160501.155000", "160505.102500", "160501.262500", "160505.212500", "160501.372500", "160505.322500", "160501.482500", "160505.432500", "160501.592500", "160505.542500", "160501.702500", "160505.652500", "160501.812500", "160505.762500", "160501.922500", "160505.872500", "160502.032500", "160505.980000", "160502.140000", "160506.090000", "160502.250000", "160506.200000", "160502.360000", "160506.310000", "160502.470000", "160506.420000", "160502.580000", "160510.390000", "160506.550000", "160510.500000", "160506.660000", "160510.610000", "160506.770000", "160510.720000", "160506.880000", "160510.827500", "160506.990000", "160510.937500", "160507.097500", "160511.047500", "160507.207500", "160511.157500", "160507.317500", "160511.267500", "160507.427500", "160511.377500", "160507.537500", "160511.487500", "160507.647500", "160511.597500", "160507.757500", "160511.707500", "160507.867500", "160511.815000", "160507.975000", "160511.925000", "160508.085000", "160512.035000", "160508.195000", "160512.145000", "160508.305000", "160512.255000", "160508.415000", "160512.365000", "160508.525000", "160512.475000", "160508.635000", "160512.585000", "160508.745000", "160512.692500", "160508.855000", "160512.802500", "160508.962500", "160512.912500", "160509.072500", "160513.022500", "160509.182500", "160513.132500", "160509.292500", "160513.242500", "160509.402500", "160513.352500", "160509.512500", "160513.462500", "160509.622500", "160513.572500", "160509.732500", "160513.680000", "160509.840000", "160513.790000", "160509.950000", "160513.900000", "160510.060000", "160514.010000", "160510.170000", "160514.120000", "160510.280000", "160518.090000", "160514.250000", "160518.200000", "160514.360000", "160518.310000", "160514.470000", "160518.420000", "160514.580000", "160518.527500", "160514.690000", "160518.637500", "160514.797500", "160518.747500", "160514.907500", "160518.857500", "160515.017500", "160518.967500", "160515.127500", "160519.077500", "160515.237500", "160519.187500", "160515.347500", "160519.297500", "160515.457500", "160519.407500", "160515.567500", "160519.515000", "160515.675000", "160519.625000", "160515.785000", "160519.735000", "160515.895000", "160519.845000", "160516.005000", "160519.955000", "160516.115000", "160520.065000", "160516.225000", "160520.175000", "160516.335000", "160520.285000", "160516.445000", "160520.392500", "160516.555000", "160520.502500", "160516.662500", "160520.612500", "160516.772500", "160520.722500", "160516.882500", "160520.832500", "160516.992500", "160520.942500", "160517.102500", "160521.052500", "160517.212500", "160521.162500", "160517.322500", "160521.272500", "160517.432500", "160521.380000", "160517.540000", "160521.490000", "160517.650000", "160521.600000", "160517.760000", "160521.710000", "160517.870000", "160521.820000", "160517.980000", "160525.790000", "160521.950000", "160525.900000", "160522.060000", "160526.010000", "160522.170000", "160526.120000", "160522.280000", "160526.227500", "160522.390000", "160526.337500", "160522.497500", "160526.447500", "160522.607500", "160526.557500", "160522.717500", "160526.667500", "160522.827500", "160526.777500", "160522.937500", "160526.887500", "160523.047500", "160526.997500", "160523.157500", "160527.107500", "160523.267500", "160527.215000", "160523.375000", "160527.325000", "160523.485000", "160527.435000", "160523.595000", "160527.545000", "160523.705000", "160527.655000", "160523.815000", "160527.765000", "160523.925000", "160527.875000", "160524.035000", "160527.985000", "160524.145000", "160528.092500", "160524.255000", "160528.202500", "160524.362500", "160528.312500", "160524.472500", "160528.422500", "160524.582500", "160528.532500", "160524.692500", "160528.642500", "160524.802500", "160528.752500", "160524.912500", "160528.862500", "160525.022500", "160528.972500", "160525.132500", "160529.080000", "160525.240000", "160529.190000", "160525.350000", "160529.300000", "160525.460000", "160529.410000", "160525.570000", "160529.520000", "160525.680000", "160533.490000", "160529.650000", "160533.600000", "160529.760000", "160533.710000", "160529.870000", "160533.820000", "160529.980000", "160533.927500", "160530.090000", "160534.037500", "160530.197500", "160534.147500", "160530.307500", "160534.257500", "160530.417500", "160534.367500", "160530.527500", "160534.477500", "160530.637500", "160534.587500", "160530.747500", "160534.697500", "160530.857500", "160534.807500", "160530.967500", "160534.915000", "160531.075000", "160535.025000", "160531.185000", "160535.135000", "160531.295000", "160535.245000", "160531.405000", "160535.355000", "160531.515000", "160535.465000", "160531.625000", "160535.575000", "160531.735000", "160535.685000", "160531.845000", "160535.792500", "160531.955000", "160535.902500", "160532.062500", "160536.012500", "160532.172500", "160536.122500", "160532.282500", "160536.232500", "160532.392500", "160536.342500", "160532.502500", "160536.452500", "160532.612500", "160536.562500", "160532.722500", "160536.672500", "160532.832500", "160536.780000", "160532.940000", "160536.890000", "160533.050000", "160537.000000", "160533.160000", "160537.110000", "160533.270000", "160537.220000", "160533.380000", "160541.190000", "160537.350000", "160541.300000", "160537.460000", "160541.410000", "160537.570000", "160541.520000", "160537.680000", "160541.627500", "160537.790000", "160541.737500", "160537.897500", "160541.847500", "160538.007500", "160541.957500", "160538.117500", "160542.067500", "160538.227500", "160542.177500", "160538.337500", "160542.287500", "160538.447500", "160542.397500", "160538.557500", "160542.507500", "160538.667500", "160542.615000", "160538.775000", "160542.725000", "160538.885000", "160542.835000", "160538.995000", "160542.945000", "160539.105000", "160543.055000", "160539.215000", "1605