{
  "AcquisitionMatrixPE": 80,
  "AcquisitionNumber": 1,
  "AcquisitionTime": "09:14:57.127500",
  "BandwidthPerPixelPhaseEncode": 44.643,
  "BaseResolution": 80,
  "BodyPartExamined": "BRAIN",
  "CoilCombinationMethod": "Sum of Squares",
  "ConsistencyInfo": "N4_VE11C_LATEST_20160120",
  "ConversionSoftware": "dcm2niix",
  "ConversionSoftwareVersion": "v1.0.20220720",
  "DerivedVendorReportedEchoSpacing": 0.000559998,
  "DeviceSerialNumber": "66112",
  "DwellTime": 2.7e-06,
  "EchoTime": 0.035,
  "EchoTrainLength": 39,
  "EffectiveEchoSpacing": 0.000279999,
  "FlipAngle": 90,
  "HeudiconvVersion": "0.13.1",
  "ImageOrientationPatientDICOM": [0.984942, 0.17233, 0.0138435, -0.168359, 0.937876, 0.303387],
  "ImageOrientationText": "Tra>Cor(17.5)>Sag(-2.3)",
  "ImageType": [
    "ORIGINAL",
    "PRIMARY",
    "M",
    "ND",
    "NORM",
    "MOSAIC"
],
  "ImagingFrequency": 123.252,
  "InPlanePhaseEncodingDirectionDICOM": "COL",
  "InstitutionAddress": "Maynard 3,Hanover,NH,US,03755",
  "InstitutionName": "Dartmouth College - PBS",
  "InstitutionalDepartmentName": "Department",
  "MRAcquisitionType": "2D",
  "MagneticFieldStrength": 3,
  "Manufacturer": "Siemens",
  "ManufacturersModelName": "Prisma",
  "Modality": "MR",
  "MultibandAccelerationFactor": 4,
  "NonlinearGradientCorrection": false,
  "ParallelReductionFactorInPlane": 2,
  "PartialFourier": 1,
  "PatientPosition": "HFS",
  "PercentPhaseFOV": 100,
  "PercentSampling": 100,
  "PhaseEncodingDirection": "j-",
  "PhaseEncodingSteps": 79,
  "PhaseResolution": 1,
  "PixelBandwidth": 2315,
  "ProcedureStepDescription": "dbic^QA",
  "ProtocolName": "func-bold_task-rest_acq-p2-s4-3.5mm",
  "PulseSequenceDetails": "%SiemensSeq%\\ep2d_bold",
  "ReceiveCoilActiveElements": "HEA;HEP",
  "ReceiveCoilName": "Head_32",
  "ReconMatrixPE": 80,
  "RefLinesPE": 24,
  "RepetitionTime": 2,
  "SAR": 0.0208626,
  "ScanOptions": "FS",
  "ScanningSequence": "EP",
  "SequenceName": "*epfid2d1_80",
  "SequenceVariant": "SK",
  "SeriesDescription": "func-bold_task-rest_acq-p2-s4-3.5mm",
  "SeriesNumber": 7,
  "ShimSetting": [4148, -7694, -7519, 254, -46, -108, -34, 59],
  "SliceThickness": 3.5,
  "SliceTiming": [1.485, 0, 0.99, 0.2475, 1.2375, 0.7425, 1.7325, 0.495, 1.485, 0, 0.99, 0.2475, 1.2375, 0.7425, 1.7325, 0.495, 1.485, 0, 0.99, 0.2475, 1.2375, 0.7425, 1.7325, 0.495, 1.485, 0, 0.99, 0.2475, 1.2375, 0.7425, 1.7325, 0.495],
  "SoftwareVersions": "syngo MR E11",
  "SpacingBetweenSlices": 3.99,
  "StationName": "AWP66112",
  "TaskName": "rest",
  "TotalReadoutTime": 0.0221199,
  "TxRefAmp": 231.766,
  "dcmmeta_affine": [
    [-2.9548261165618896, -0.5050775408744812, -0.15680313110351562, 145.96780395507812],
    [-0.5169896483421326, 2.813628673553467, 1.2015838623046875, -101.60906982421875],
    [0.04153064638376236, -0.9101596474647522, 3.8015403747558594, -16.48421859741211],
    [0.0, 0.0, 0.0, 1.0]
],
  "dcmmeta_reorient_transform": [
    [0.0, -1.0, 0.0, 79.0],
    [1.0, 0.0, 0.0, 0.0],
    [0.0, 0.0, 1.0, 0.0],
    [0.0, 0.0, 0.0, 1.0]
],
  "dcmmeta_shape": [80, 80, 32, 200],
  "dcmmeta_slice_dim": 2,
  "dcmmeta_version": 0.6,
  "global": {
    "const": {
      "AccessionNumber": "qa",
      "AcquisitionMatrix": [80, 0, 0, 80],
      "AngioFlag": "N",
      "BitsAllocated": 16,
      "BitsStored": 12,
      "BodyPartExamined": "BRAIN",
      "Columns": 480,
      "EchoNumbers": 1,
      "EchoTime": 35.0,
      "EchoTrainLength": 39,
      "FlipAngle": 90.0,
      "HighBit": 11,
      "ImageOrientationPatient": [0.98494201358382, 0.17232987565583, 0.01384354845766, -0.1683591878065, 0.93787621301121, 0.3033865404874],
      "ImagePositionPatient": [-596.01637387092, -786.79124348993, -278.72488172233],
      "ImageType": [
        "ORIGINAL",
        "PRIMARY",
        "M",
        "ND",
        "NORM",
        "MOSAIC"
],
      "ImagedNucleus": "1H",
      "ImagingFrequency": 123.252423,
      "InPlanePhaseEncodingDirection": "COL",
      "MRAcquisitionType": "2D",
      "MagneticFieldStrength": 3.0,
      "Manufacturer": "SIEMENS",
      "ManufacturerModelName": "Prisma",
      "Modality": "MR",
      "NumberOfAverages": 1.0,
      "NumberOfPhaseEncodingSteps": 79,
      "PercentPhaseFieldOfView": 100.0,
      "PercentSampling": 100.0,
      "PerformedProcedureStepStartTime": "085922.681000",
      "PhotometricInterpretation": "MONOCHROME2",
      "PixelBandwidth": 2315.0,
      "PixelRepresentation": 0,
      "PixelSpacing": [3.0, 3.0],
      "ProtocolName": "func-bold_task-rest_acq-p2-s4-3.5mm",
      "RepetitionTime": 2000.0,
      "Rows": 480,
      "SAR": 0.02086257520445,
      "SamplesPerPixel": 1,
      "ScanOptions": "FS",
      "ScanningSequence": "EP",
      "SequenceName": "*epfid2d1_80",
      "SequenceVariant": "SK",
      "SeriesDescription": "func-bold_task-rest_acq-p2-s4-3.5mm",
      "SeriesNumber": 7,
      "SeriesTime": "091549.819000",
      "SliceLocation": -52.041466509881,
      "SliceThickness": 3.5,
      "SmallestImagePixelValue": 0,
      "SoftwareVersions": "syngo MR E11",
      "SpacingBetweenSlices": 3.9900000270865,
      "SpecificCharacterSet": "ISO_IR 100",
      "StudyID": "89",
      "StudyTime": "085922.606000",
      "TransmitCoilName": "Body",
      "VariableFlipAngleFlag": "N",
      "WindowCenter": 930.0,
      "WindowCenterWidthExplanation": "Algo1",
      "dBdt": 0.0},
    "slices": {}
  },
  "time": {
    "samples": {
      "AcquisitionNumber": [1, 2, 3, 4, 5, 6, 7, 8, 9, 10, 11, 12, 13, 14, 15, 16, 17, 18, 19, 20, 21, 22, 23, 24, 25, 26, 27, 28, 29, 30, 31, 32, 33, 34, 35, 36, 37, 38, 39, 40, 41, 42, 43, 44, 45, 46, 47, 48, 49, 50, 51, 52, 53, 54, 55, 56, 57, 58, 59, 60, 61, 62, 63, 64, 65, 66, 67, 68, 69, 70, 71, 72, 73, 74, 75, 76, 77, 78, 79, 80, 81, 82, 83, 84, 85, 86, 87, 88, 89, 90, 91, 92, 93, 94, 95, 96, 97, 98, 99, 100, 101, 102, 103, 104, 105, 106, 107, 108, 109, 110, 111, 112, 113, 114, 115, 116, 117, 118, 119, 120, 121, 122, 123, 124, 125, 126, 127, 128, 129, 130, 131, 132, 133, 134, 135, 136, 137, 138, 139, 140, 141, 142, 143, 144, 145, 146, 147, 148, 149, 150, 151, 152, 153, 154, 155, 156, 157, 158, 159, 160, 161, 162, 163, 164, 165, 166, 167, 168, 169, 170, 171, 172, 173, 174, 175, 176, 177, 178, 179, 180, 181, 182, 183, 184, 185, 186, 187, 188, 189, 190, 191, 192, 193, 194, 195, 196, 197, 198, 199, 200],
      "AcquisitionTime": ["091457.127500", "091459.127500", "091501.127500", "091503.127500", "091505.127500", "091507.127500", "091509.127500", "091511.127500", "091513.127500", "091515.127500", "091517.127500", "091519.127500", "091521.127500", "091523.127500", "091525.127500", "091527.127500", "091529.127500", "091531.127500", "091533.127500", "091535.127500", "091537.127500", "091539.127500", "091541.127500", "091543.127500", "091545.127500", "091547.127500", "091549.127500", "091551.127500", "091553.127500", "091555.127500", "091557.127500", "091559.127500", "091601.127500", "091603.127500", "091605.127500", "091607.127500", "091609.127500", "091611.127500", "091613.127500", "091615.127500", "091617.127500", "091619.127500", "091621.127500", "091623.127500", "091625.127500", "091627.127500", "091629.127500", "091631.127500", "091633.127500", "091635.127500", "091637.127500", "091639.127500", "091641.127500", "091643.127500", "091645.127500", "091647.127500", "091649.127500", "091651.127500", "091653.127500", "091655.127500", "091657.127500", "091659.127500", "091701.127500", "091703.127500", "091705.127500", "091707.127500", "091709.127500", "091711.127500", "091713.127500", "091715.127500", "091717.127500", "091719.127500", "091721.127500", "091723.127500", "091725.127500", "091727.127500", "091729.127500", "091731.127500", "091733.127500", "091735.127500", "091737.127500", "091739.127500", "091741.127500", "091743.127500", "091745.127500", "091747.127500", "091749.127500", "091751.127500", "091753.127500", "091755.127500", "091757.127500", "091759.127500", "091801.127500", "091803.127500", "091805.127500", "091807.127500", "091809.127500", "091811.127500", "091813.127500", "091815.127500", "091817.127500", "091819.127500", "091821.127500", "091823.127500", "091825.127500", "091827.127500", "091829.127500", "091831.127500", "091833.127500", "091835.127500", "091837.127500", "091839.127500", "091841.127500", "091843.127500", "091845.127500", "091847.127500", "091849.127500", "091851.127500", "091853.127500", "091855.127500", "091857.127500", "091859.127500", "091901.127500", "091903.127500", "091905.127500", "091907.127500", "091909.127500", "091911.127500", "091913.127500", "091915.127500", "091917.127500", "091919.127500", "091921.127500", "091923.127500", "091925.127500", "091927.127500", "091929.127500", "091931.127500", "091933.127500", "091935.127500", "091937.127500", "091939.127500", "091941.127500", "091943.127500", "091945.127500", "091947.127500", "091949.127500", "091951.127500", "091953.127500", "091955.127500", "091957.127500", "091959.127500", "092001.127500", "092003.127500", "092005.127500", "092007.127500", "092009.127500", "092011.127500", "092013.127500", "092015.127500", "092017.127500", "092019.127500", "092021.127500", "092023.127500", "092025.127500", "092027.127500", "092029.127500", "092031.127500", "092033.127500", "092035.127500", "092037.127500", "092039.127500", "092041.127500", "092043.127500", "092045.127500", "092047.127500", "092049.127500", "092051.127500", "092053.127500", "092055.127500", "092057.127500", "092059.127500", "092101.127500", "092103.127500", "092105.127500", "092107.127500", "092109.127500", "092111.127500", "092113.127500", "092115.127500", "092117.127500", "092119.127500", "092121.127500", "092123.127500", "092125.127500", "092127.127500", "092129.127500", "092131.127500", "092133.127500", "092135.127500"],
      "ContentTime": ["091549.822000", "091549.826000", "091549.831000", "091549.834000", "091549.836000", "091549.839000", "091549.843000", "091549.846000", "091549.848000", "091549.851000", "091549.853000", "091549.856000", "091549.859000", "091549.869000", "091549.872000", "091549.874000", "091549.877000", "091549.879000", "091549.882000", "091549.885000", "091549.887000", "091549.890000", "091549.893000", "091549.895000", "091549.898000", "091549.901000", "091629.817000", "091629.820000", "091629.823000", "091629.825000", "091629.828000", "091629.831000", "091629.834000", "091629.836000", "091629.839000", "091629.841000", "091629.844000", "091629.856000", "091629.859000", "091629.861000", "091629.864000", "091629.866000", "091629.887000", "091629.890000", "091629.892000", "091629.895000", "091709.816000", "091709.819000", "091709.822000", "091709.824000", "091709.827000", "091709.830000", "091709.832000", "091709.835000", "091709.838000", "091709.840000", "091709.843000", "091709.846000", "091709.848000", "091709.851000", "091709.855000", "091709.857000", "091709.860000", "091709.863000", "091709.865000", "091709.868000", "091749.817000", "091749.820000", "091749.823000", "091749.825000", "091749.828000", "091749.831000", "091749.833000", "091749.836000", "091749.839000", "091749.841000", "091749.844000", "091749.846000", "091749.849000", "091749.852000", "091749.854000", "091749.857000", "091749.860000", "091749.862000", "091749.865000", "091749.868000", "091829.817000", "091829.820000", "091829.823000", "091829.825000", "091829.828000", "091829.831000", "091829.833000", "091829.836000", "091829.839000", "091829.841000", "091829.844000", "091829.846000", "091829.849000", "091829.852000", "091829.854000", "091829.857000", "091829.860000", "091829.862000", "091829.865000", "091829.867000", "091909.818000", "091909.821000", "091909.823000", "091909.826000", "091909.829000", "091909.831000", "091909.834000", "091909.836000", "091909.839000", "091909.842000", "091909.844000", "091909.847000", "091909.850000", "091909.852000", "091909.855000", "091909.857000", "091909.860000", "091909.863000", "091909.865000", "091909.868000", "091949.818000", "091949.821000", "091949.823000", "091949.826000", "091949.829000", "091949.831000", "091949.834000", "091949.837000", "091949.839000", "091949.842000", "091949.845000", "091949.847000", "091949.850000", "091949.853000", "091949.855000", "091949.858000", "091949.860000", "091949.863000", "091949.866000", "091949.868000", "092029.817000", "092029.820000", "092029.823000", "092029.826000", "092029.828000", "092029.831000", "092029.833000", "092029.836000", "092029.839000", "092029.841000", "092029.844000", "092029.847000", "092029.849000", "092029.852000", "092029.855000", "092029.857000", "092029.869000", "092029.872000", "092029.874000", "092029.877000", "092109.818000", "092109.820000", "092109.829000", "092109.832000", "092109.835000", "092109.837000", "092109.840000", "092109.842000", "092109.845000", "092109.848000", "092109.850000", "092109.853000", "092109.856000", "092109.858000", "092109.861000", "092109.864000", "092109.866000", "092109.869000", "092109.872000", "092109.874000", "092136.301000", "092136.304000", "092136.306000", "092136.309000", "092136.312000", "092136.315000", "092136.317000", "092136.320000", "092136.323000", "092136.325000", "092136.328000", "092136.332000", "092136.338000", "092136.342000"],
      "InstanceCreationTime": ["091549.822000", "091549.826000", "091549.831000", "091549.834000", "091549.836000", "091549.839000", "091549.843000", "091549.846000", "091549.848000", "091549.851000", "091549.853000", "091549.856000", "091549.859000", "091549.869000", "091549.872000", "091549.874000", "091549.877000", "091549.879000", "091549.882000", "091549.885000", "091549.887000", "091549.890000", "091549.893000", "091549.895000", "091549.898000", "091549.901000", "091629.817000", "091629.820000", "091629.823000", "091629.825000", "091629.828000", "091629.831000", "091629.834000", "091629.836000", "091629.839000", "091629.841000", "091629.844000", "091629.856000", "091629.859000", "091629.861000", "091629.864000", "091629.866000", "091629.887000", "091629.890000", "091629.892000", "091629.895000", "091709.816000", "091709.819000", "091709.822000", "091709.824000", "091709.827000", "091709.830000", "091709.832000", "091709.835000", "091709.838000", "091709.840000", "091709.843000", "091709.846000", "091709.848000", "091709.851000", "091709.855000", "091709.857000", "091709.860000", "091709.863000", "091709.865000", "091709.868000", "091749.817000", "091749.820000", "091749.823000", "091749.825000", "091749.828000", "091749.831000", "091749.833000", "091749.836000", "091749.839000", "091749.841000", "091749.844000", "091749.846000", "091749.849000", "091749.852000", "091749.854000", "091749.857000", "091749.860000", "091749.862000", "091749.865000", "091749.868000", "091829.817000", "091829.820000", "091829.823000", "091829.825000", "091829.828000", "091829.831000", "091829.833000", "091829.836000", "091829.839000", "091829.841000", "091829.844000", "091829.846000", "091829.849000", "091829.852000", "091829.854000", "091829.857000", "091829.860000", "091829.862000", "091829.865000", "091829.867000", "091909.818000", "091909.821000", "091909.823000", "091909.826000", "091909.829000", "091909.831000", "091909.834000", "091909.836000", "091909.839000", "091909.842000", "091909.844000", "091909.847000", "091909.850000", "091909.852000", "091909.855000", "091909.857000", "091909.860000", "091909.863000", "091909.865000", "091909.868000", "091949.818000", "091949.821000", "091949.823000", "091949.826000", "091949.829000", "091949.831000", "091949.834000", "091949.837000", "091949.839000", "091949.842000", "091949.845000", "091949.847000", "091949.850000", "091949.853000", "091949.855000", "091949.858000", "091949.860000", "091949.863000", "091949.866000", "091949.868000", "092029.817000", "092029.820000", "092029.823000", "092029.826000", "092029.828000", "092029.831000", "092029.833000", "092029.836000", "092029.839000", "092029.841000", "092029.844000", "092029.847000", "092029.849000", "092029.852000", "092029.855000", "092029.857000", "092029.869000", "092029.872000", "092029.874000", "092029.877000", "092109.818000", "092109.820000", "092109.829000", "092109.832000", "092109.835000", "092109.837000", "092109.840000", "092109.842000", "092109.845000", "092109.848000", "092109.850000", "092109.853000", "092109.856000", "092109.858000", "092109.861000", "092109.864000", "092109.866000", "092109.869000", "092109.872000", "092109.874000", "092136.301000", "092136.304000", "092136.306000", "092136.309000", "092136.312000", "092136.315000", "092136.317000", "092136.320000", "092136.323000", "092136.325000", "092136.328000", "092136.332000", "092136.338000", "092136.342000"],
      "InstanceNumber": [1, 2, 3, 4, 5, 6, 7, 8, 9, 10, 11, 12, 13, 14, 15, 16, 17, 18, 19, 20, 21, 22, 23, 24, 25, 26, 27, 28, 29, 30, 31, 32, 33, 34, 35, 36, 37, 38, 39, 40, 41, 42, 43, 44, 45, 46, 47, 48, 49, 50, 51, 52, 53, 54, 55, 56, 57, 58, 59, 60, 61, 62, 63, 64, 65, 66, 67, 68, 69, 70, 71, 72, 73, 74, 75, 76, 77, 78, 79, 80, 81, 82, 83, 84, 85, 86, 87, 88, 89, 90, 91, 92, 93, 94, 95, 96, 97, 98, 99, 100, 101, 102, 103, 104, 105, 106, 107, 108, 109, 110, 111, 112, 113, 114, 115, 116, 117, 118, 119, 120, 121, 122, 123, 124, 125, 126, 127, 128, 129, 130, 131, 132, 133, 134, 135, 136, 137, 138, 139, 140, 141, 142, 143, 144, 145, 146, 147, 148, 149, 150, 151, 152, 153, 154, 155, 156, 157, 158, 159, 160, 161, 162, 163, 164, 165, 166, 167, 168, 169, 170, 171, 172, 173, 174, 175, 176, 177, 178, 179, 180, 181, 182, 183, 184, 185, 186, 187, 188, 189, 190, 191, 192, 193, 194, 195, 196, 197, 198, 199, 200],
      "LargestImagePixelValue": [2191, 2191, 2190, 2191, 2188, 2185, 2190, 2183, 2190, 2190, 2188, 2191, 2188, 2189, 2191, 2187, 2183, 2186, 2195, 2189, 2193, 2189, 2185, 2190, 2180, 2188, 2187, 2189, 2192, 2186, 2181, 2183, 2190, 2185, 2191, 2182, 2189, 2190, 2187, 2192, 2192, 2192, 2189, 2193, 2190, 2189, 2191, 2187, 2187, 2188, 2189, 2188, 2193, 2185, 2186, 2187, 2184, 2187, 2192, 2189, 2185, 2184, 2184, 2190, 2186, 2187, 2189, 2189, 2184, 2191, 2190, 2189, 2189, 2189, 2186, 2188, 2189, 2187, 2187, 2181, 2185, 2183, 2186, 2186, 2191, 2187, 2189, 2190, 2189, 2186, 2190, 2194, 2188, 2191, 2192, 2185, 2186, 2186, 2184, 2181, 2188, 2186, 2188, 2188, 2189, 2189, 2186, 2189, 2185, 2188, 2186, 2189, 2181, 2187, 2186, 2192, 2184, 2185, 2183, 2183, 2182, 2188, 2185, 2185, 2187, 2188, 2188, 2191, 2184, 2184, 2184, 2185, 2188, 2188, 2187, 2181, 2189, 2187, 2184, 2183, 2184, 2177, 2189, 2180, 2183, 2179, 2183, 2181, 2188, 2183, 2185, 2183, 2180, 2183, 2181, 2184, 2180, 2187, 2179, 2190, 2185, 2182, 2188, 2185, 2190, 2192, 2181, 2182, 2176, 2178, 2184, 2178, 2177, 2182, 2179, 2182, 2187, 2180, 2176, 2187, 2188, 2182, 2183, 2184, 2182, 2180, 2184, 2178, 2183, 2180, 2178, 2175, 2181, 2187, 2187, 2187, 2188, 2183, 2185, 2182],
      "WindowWidth": [2128.0, 2128.0, 2128.0, 2128.0, 2127.0, 2127.0, 2127.0, 2127.0, 2127.0, 2128.0, 2127.0, 2127.0, 2127.0, 2127.0, 2127.0, 2127.0, 2127.0, 2127.0, 2127.0, 2127.0, 2127.0, 2127.0, 2127.0, 2127.0, 2127.0, 2127.0, 2127.0, 2127.0, 2127.0, 2127.0, 2127.0, 2127.0, 2127.0, 2127.0, 2127.0, 2127.0, 2127.0, 2127.0, 2127.0, 2127.0, 2127.0, 2127.0, 2127.0, 2127.0, 2127.0, 2127.0, 2127.0, 2127.0, 2127.0, 2127.0, 2127.0, 2127.0, 2127.0, 2127.0, 2127.0, 2127.0, 2127.0, 2127.0, 2127.0, 2127.0, 2127.0, 2127.0, 2127.0, 2127.0, 2127.0, 2127.0, 2127.0, 2127.0, 2127.0, 2127.0, 2127.0, 2127.0, 2127.0, 2127.0, 2127.0, 2127.0, 2127.0, 2127.0, 2127.0, 2127.0, 2127.0, 2127.0, 2127.0, 2127.0, 2127.0, 2127.0, 2127.0, 2127.0, 2127.0, 2127.0, 2127.0, 2127.0, 2127.0, 2127.0, 2127.0, 2127.0, 2127.0, 2127.0, 2127.0, 2127.0, 2127.0, 2127.0, 2127.0, 2127.0, 2127.0, 2127.0, 2127.0, 2127.0, 2127.0, 2127.0, 2127.0, 2127.0, 2127.0, 2127.0, 2127.0, 2127.0, 2127.0, 2127.0, 2127.0, 2127.0, 2127.0, 2127.0, 2127.0, 2127.0, 2127.0, 2127.0, 2127.0, 2127.0, 2127.0, 2127.0, 2127.0, 2127.0, 2127.0, 2127.0, 2127.0, 2127.0, 2127.0, 2127.0, 2127.0, 2127.0, 2127.0, 2127.0, 2127.0, 2127.0, 2127.0, 2127.0, 2127.0, 2127.0, 2127.0, 2127.0, 2127.0, 2127.0, 2127.0, 2127.0, 2127.0, 2127.0, 2127.0, 2127.0, 2127.0, 2127.0, 2127.0, 2127.0, 2127.0, 2127.0, 2127.0, 2127.0, 2127.0, 2127.0, 2127.0, 2127.0, 2127.0, 2127.0, 2127.0, 2127.0, 2127.0, 2127.0, 2127.0, 2127.0, 2127.0, 2127.0, 2127.0, 2127.0, 2127.0, 2127.0, 2127.0, 2127.0, 2127.0, 2127.0, 2127.0, 2127.0, 2127.0, 2127.0, 2127.0, 2127.0, 2127.0, 2127.0, 2127.0, 2127.0, 2127.0, 2127.0]
    },
    "slices": {}
  }
}