{
  "AcquisitionMatrixPE": 122,
  "AcquisitionNumber": 1,
  "AcquisitionTime": "14:58:34.060000",
  "BandwidthPerPixelPhaseEncode": 28.76,
  "BaseResolution": 122,
  "BodyPartExamined": "BRAIN",
  "CoilCombinationMethod": "Adaptive Combine",
  "ConsistencyInfo": "N4_VE11C_LATEST_20160120",
  "ConversionSoftware": "dcm2niix",
  "ConversionSoftwareVersion": "v1.0.20220720",
  "DerivedVendorReportedEchoSpacing": 0.000570008,
  "DeviceSerialNumber": "66112",
  "DiffusionScheme": "Monopolar",
  "DwellTime": 2e-06,
  "EchoTime": 0.075,
  "EchoTrainLength": 61,
  "EffectiveEchoSpacing": 0.000285004,
  "FlipAngle": 90,
  "HeudiconvVersion": "0.13.1",
  "ImageOrientationPatientDICOM": [0.987889, 0.154909, 0.00883895, -0.15011, 0.939761, 0.307109],
  "ImageOrientationText": "Tra>Cor(17.8)>Sag(-2.3)",
  "ImageType": [
    "ORIGINAL",
    "PRIMARY",
    "DIFFUSION",
    "NONE",
    "ND",
    "NORM"
],
  "ImagingFrequency": 123.252,
  "InPlanePhaseEncodingDirectionDICOM": "COL",
  "InstitutionAddress": "Maynard 3,Hanover,NH,US,03755",
  "InstitutionName": "Dartmouth College - PBS",
  "InstitutionalDepartmentName": "Department",
  "MRAcquisitionType": "2D",
  "MagneticFieldStrength": 3,
  "Manufacturer": "Siemens",
  "ManufacturersModelName": "Prisma",
  "MatrixCoilMode": "GRAPPA",
  "Modality": "MR",
  "NonlinearGradientCorrection": false,
  "ParallelReductionFactorInPlane": 2,
  "PartialFourier": 1,
  "PatientPosition": "HFS",
  "PercentPhaseFOV": 100,
  "PercentSampling": 100,
  "PhaseEncodingDirection": "j-",
  "PhaseEncodingSteps": 122,
  "PhaseResolution": 1,
  "PixelBandwidth": 2050,
  "ProcedureStepDescription": "dbic^QA",
  "ProtocolName": "dwi_acq-DTI-30-p2",
  "PulseSequenceDetails": "%SiemensSeq%\\ep2d_diff",
  "ReceiveCoilActiveElements": "HEA;HEP",
  "ReceiveCoilName": "Head_32",
  "ReconMatrixPE": 122,
  "RefLinesPE": 38,
  "RepetitionTime": 7.7,
  "SAR": 0.102343,
  "ScanOptions": "FS",
  "ScanningSequence": "EP",
  "SequenceName": "*ep_b0",
  "SequenceVariant": "SK\\SP",
  "SeriesDescription": "dwi_acq-DTI-30-p2",
  "SeriesNumber": 8,
  "ShimSetting": [4145, -7687, -7513, 342, -52, -209, -65, 69],
  "SliceThickness": 2,
  "SliceTiming": [3.84375, 0, 3.95312, 0.10938, 4.0625, 0.21875, 4.17188, 0.32812, 4.28125, 0.4375, 4.39062, 0.54688, 4.5, 0.65625, 4.60938, 0.76562, 4.71875, 0.875, 4.82812, 0.98438, 4.9375, 1.09375, 5.04688, 1.20312, 5.15625, 1.3125, 5.26562, 1.42188, 5.375, 1.53125, 5.48438, 1.64062, 5.59375, 1.75, 5.70312, 1.85938, 5.8125, 1.96875, 5.92188, 2.09375, 6.03125, 2.1875, 6.14062, 2.29688, 6.25, 2.40625, 6.35938, 2.53125, 6.46875, 2.64062, 6.57812, 2.75, 6.6875, 2.85938, 6.79688, 2.96875, 6.90625, 3.07812, 7.01562, 3.1875, 7.125, 3.29688, 7.23438, 3.40625, 7.34375, 3.51562, 7.46875, 3.625, 7.57812, 3.73438],
  "SoftwareVersions": "syngo MR E11",
  "SpacingBetweenSlices": 2,
  "SpoilingState": true,
  "StationName": "AWP66112",
  "TotalReadoutTime": 0.0344855,
  "TxRefAmp": 233.036,
  "dcmmeta_affine": [
    [-1.9433887004852295, -0.29529792070388794, -0.07853484153747559, 139.2061004638672],
    [-0.30473873019218445, 1.848710298538208, 0.6094341278076172, -109.3388900756836],
    [0.017388099804520607, -0.6041498184204102, 1.9032669067382812, -42.17595291137695],
    [0.0, 0.0, 0.0, 1.0]
],
  "dcmmeta_reorient_transform": [
    [0.0, -1.0, 0.0, 121.0],
    [1.0, 0.0, 0.0, 0.0],
    [0.0, 0.0, -1.0, 69.0],
    [0.0, 0.0, 0.0, 1.0]
],
  "dcmmeta_shape": [122, 122, 70, 31],
  "dcmmeta_slice_dim": 2,
  "dcmmeta_version": 0.6,
  "global": {
    "const": {
      "AccessionNumber": "qa",
      "AcquisitionMatrix": [122, 0, 0, 122],
      "AngioFlag": "N",
      "BitsAllocated": 16,
      "BitsStored": 12,
      "BodyPartExamined": "BRAIN",
      "Columns": 122,
      "EchoNumbers": 1,
      "EchoTime": 75.0,
      "EchoTrainLength": 61,
      "FlipAngle": 90.0,
      "HighBit": 11,
      "ImageOrientationPatient": [0.98788922579645, 0.15490884582088, 0.00883895026243, -0.1501097697439, 0.93976104446724, 0.3071094858992],
      "ImageType": [
        "ORIGINAL",
        "PRIMARY",
        "DIFFUSION",
        "NONE",
        "ND",
        "NORM"
],
      "ImagedNucleus": "1H",
      "ImagingFrequency": 123.252461,
      "InPlanePhaseEncodingDirection": "COL",
      "MRAcquisitionType": "2D",
      "MagneticFieldStrength": 3.0,
      "Manufacturer": "SIEMENS",
      "ManufacturerModelName": "Prisma",
      "Modality": "MR",
      "NumberOfAverages": 1.0,
      "NumberOfPhaseEncodingSteps": 122,
      "PercentPhaseFieldOfView": 100.0,
      "PercentSampling": 100.0,
      "PerformedProcedureStepStartTime": "143642.564000",
      "PhotometricInterpretation": "MONOCHROME2",
      "PixelBandwidth": 2050.0,
      "PixelRepresentation": 0,
      "PixelSpacing": [1.9672131538391, 1.9672131538391],
      "ProtocolName": "dwi_acq-DTI-30-p2",
      "RepetitionTime": 7700.0,
      "Rows": 122,
      "SAR": 0.10234331608541,
      "SamplesPerPixel": 1,
      "ScanOptions": "FS",
      "ScanningSequence": "EP",
      "SequenceVariant": [
        "SK",
        "SP"
],
      "SeriesDescription": "dwi_acq-DTI-30-p2",
      "SeriesNumber": 8,
      "SeriesTime": "145844.247000",
      "SliceThickness": 2.0,
      "SmallestImagePixelValue": 0,
      "SoftwareVersions": "syngo MR E11",
      "SpacingBetweenSlices": 2.0,
      "SpecificCharacterSet": "ISO_IR 100",
      "StudyID": "26",
      "StudyTime": "143642.508000",
      "TransmitCoilName": "Body",
      "VariableFlipAngleFlag": "N",
      "WindowCenterWidthExplanation": "Algo1",
      "dBdt": 0.0},
    "slices": {
      "AcquisitionTime": ["145834.060000", "145830.220000", "145834.170000", "145830.330000", "145834.277500", "145830.437500", "145834.387500", "145830.547500", "145834.497500", "145830.657500", "145834.607500", "145830.767500", "145834.717500", "145830.877500", "145834.827500", "145830.987500", "145834.937500", "145831.097500", "145835.047500", "145831.207500", "145835.157500", "145831.317500", "145835.265000", "145831.425000", "145835.375000", "145831.535000", "145835.485000", "145831.645000", "145835.595000", "145831.755000", "145835.705000", "145831.865000", "145835.815000", "145831.975000", "145835.925000", "145832.085000", "145836.035000", "145832.195000", "145836.142500", "145832.305000", "145836.252500", "145832.412500", "145836.362500", "145832.522500", "145836.472500", "145832.632500", "145836.582500", "145832.742500", "145836.692500", "145832.852500", "145836.802500", "145832.962500", "145836.912500", "145833.072500", "145837.022500", "145833.182500", "145837.130000", "145833.290000", "145837.240000", "145833.400000", "145837.350000", "145833.510000", "145837.460000", "145833.620000", "145837.570000", "145833.730000", "145837.680000", "145833.840000", "145837.790000", "145833.950000", "145841.760000", "145837.920000", "145841.870000", "145838.030000", "145841.977500", "145838.137500", "145842.087500", "145838.247500", "145842.197500", "145838.357500", "145842.307500", "145838.467500", "145842.417500", "145838.577500", "145842.527500", "145838.687500", "145842.637500", "145838.797500", "145842.747500", "145838.907500", "145842.857500", "145839.017500", "145842.965000", "145839.125000", "145843.075000", "145839.235000", "145843.185000", "145839.345000", "145843.295000", "145839.455000", "145843.405000", "145839.565000", "145843.515000", "145839.675000", "145843.625000", "145839.785000", "145843.735000", "145839.895000", "145843.842500", "145840.005000", "145843.952500", "145840.112500", "145844.062500", "145840.222500", "145844.172500", "145840.332500", "145844.282500", "145840.442500", "145844.392500", "145840.552500", "145844.502500", "145840.662500", "145844.612500", "145840.772500", "145844.722500", "145840.882500", "145844.830000", "145840.990000", "145844.940000", "145841.100000", "145845.050000", "145841.210000", "145845.160000", "145841.320000", "145845.270000", "145841.430000", "145845.380000", "145841.540000", "145845.490000", "145841.650000", "145849.460000", "145845.620000", "145849.570000", "145845.730000", "145849.677500", "145845.837500", "145849.787500", "145845.947500", "145849.897500", "145846.057500", "145850.007500", "145846.167500", "145850.117500", "145846.277500", "145850.227500", "145846.387500", "145850.337500", "145846.497500", "145850.447500", "145846.607500", "145850.557500", "145846.717500", "145850.665000", "145846.825000", "145850.775000", "145846.935000", "145850.885000", "145847.045000", "145850.995000", "145847.155000", "145851.105000", "145847.265000", "145851.215000", "145847.375000", "145851.325000", "145847.485000", "145851.435000", "145847.595000", "145851.542500", "145847.705000", "145851.652500", "145847.812500", "145851.762500", "145847.922500", "145851.872500", "145848.032500", "145851.982500", "145848.142500", "145852.092500", "145848.252500", "145852.202500", "145848.362500", "145852.312500", "145848.472500", "145852.422500", "145848.582500", "145852.530000", "145848.690000", "145852.640000", "145848.800000", "145852.750000", "145848.910000", "145852.860000", "145849.020000", "145852.970000", "145849.130000", "145853.080000", "145849.240000", "145853.190000", "145849.350000", "145857.160000", "145853.320000", "145857.270000", "145853.430000", "145857.377500", "145853.537500", "145857.487500", "145853.647500", "145857.597500", "145853.757500", "145857.707500", "145853.867500", "145857.817500", "145853.977500", "145857.927500", "145854.087500", "145858.037500", "145854.197500", "145858.147500", "145854.307500", "145858.257500", "145854.417500", "145858.365000", "145854.525000", "145858.475000", "145854.635000", "145858.585000", "145854.745000", "145858.695000", "145854.855000", "145858.805000", "145854.965000", "145858.915000", "145855.075000", "145859.025000", "145855.185000", "145859.135000", "145855.295000", "145859.242500", "145855.405000", "145859.352500", "145855.512500", "145859.462500", "145855.622500", "145859.572500", "145855.732500", "145859.682500", "145855.842500", "145859.792500", "145855.952500", "145859.902500", "145856.062500", "145900.012500", "145856.172500", "145900.122500", "145856.282500", "145900.230000", "145856.390000", "145900.340000", "145856.500000", "145900.450000", "145856.610000", "145900.560000", "145856.720000", "145900.670000", "145856.830000", "145900.780000", "145856.940000", "145900.890000", "145857.050000", "145904.860000", "145901.020000", "145904.970000", "145901.130000", "145905.077500", "145901.237500", "145905.187500", "145901.347500", "145905.297500", "145901.457500", "145905.407500", "145901.567500", "145905.517500", "145901.677500", "145905.627500", "145901.787500", "145905.737500", "145901.897500", "145905.847500", "145902.007500", "145905.957500", "145902.117500", "145906.065000", "145902.225000", "145906.175000", "145902.335000", "145906.285000", "145902.445000", "145906.395000", "145902.555000", "145906.505000", "145902.665000", "145906.615000", "145902.775000", "145906.725000", "145902.885000", "145906.835000", "145902.995000", "145906.942500", "145903.105000", "145907.052500", "145903.212500", "145907.162500", "145903.322500", "145907.272500", "145903.432500", "145907.382500", "145903.542500", "145907.492500", "145903.652500", "145907.602500", "145903.762500", "145907.712500", "145903.872500", "145907.822500", "145903.982500", "145907.930000", "145904.090000", "145908.040000", "145904.200000", "145908.150000", "145904.310000", "145908.260000", "145904.420000", "145908.370000", "145904.530000", "145908.480000", "145904.640000", "145908.590000", "145904.750000", "145912.560000", "145908.720000", "145912.670000", "145908.830000", "145912.777500", "145908.937500", "145912.887500", "145909.047500", "145912.997500", "145909.157500", "145913.107500", "145909.267500", "145913.217500", "145909.377500", "145913.327500", "145909.487500", "145913.437500", "145909.597500", "145913.547500", "145909.707500", "145913.657500", "145909.817500", "145913.765000", "145909.925000", "145913.875000", "145910.035000", "145913.985000", "145910.145000", "145914.095000", "145910.255000", "145914.205000", "145910.365000", "145914.315000", "145910.475000", "145914.425000", "145910.585000", "145914.535000", "145910.695000", "145914.642500", "145910.805000", "145914.752500", "145910.912500", "145914.862500", "145911.022500", "145914.972500", "145911.132500", "145915.082500", "145911.242500", "145915.192500", "145911.352500", "145915.302500", "145911.462500", "145915.412500", "145911.572500", "145915.522500", "145911.682500", "145915.630000", "145911.790000", "145915.740000", "145911.900000", "145915.850000", "145912.010000", "145915.960000", "145912.120000", "145916.070000", "145912.230000", "145916.180000", "145912.340000", "145916.290000", "145912.450000", "145920.260000", "145916.420000", "145920.370000", "145916.530000", "145920.477500", "145916.637500", "145920.587500", "145916.747500", "145920.697500", "145916.857500", "145920.807500", "145916.967500", "145920.917500", "145917.077500", "145921.027500", "145917.187500", "145921.137500", "145917.297500", "145921.247500", "145917.407500", "145921.357500", "145917.517500", "145921.465000", "145917.625000", "145921.575000", "145917.735000", "145921.685000", "145917.845000", "145921.795000", "145917.955000", "145921.905000", "145918.065000", "145922.015000", "145918.175000", "145922.125000", "145918.285000", "145922.235000", "145918.395000", "145922.342500", "145918.505000", "145922.452500", "145918.612500", "145922.562500", "145918.722500", "145922.672500", "145918.832500", "145922.782500", "145918.942500", "145922.892500", "145919.052500", "145923.002500", "145919.162500", "145923.112500", "145919.272500", "145923.222500", "145919.382500", "145923.330000", "145919.490000", "145923.440000", "145919.600000", "145923.550000", "145919.710000", "145923.660000", "145919.820000", "145923.770000", "145919.930000", "145923.880000", "145920.040000", "145923.990000", "145920.150000", "145927.960000", "145924.120000", "145928.070000", "145924.230000", "145928.177500", "145924.337500", "145928.287500", "145924.447500", "145928.397500", "145924.557500", "145928.507500", "145924.667500", "145928.617500", "145924.777500", "145928.727500", "145924.887500", "145928.837500", "145924.997500", "145928.947500", "145925.107500", "145929.057500", "145925.217500", "145929.165000", "145925.325000", "145929.275000", "145925.435000", "145929.385000", "145925.545000", "145929.495000", "145925.655000", "145929.605000", "145925.765000", "145929.715000", "145925.875000", "145929.825000", "145925.985000", "145929.935000", "145926.095000", "145930.042500", "145926.205000", "145930.152500", "145926.312500", "145930.262500", "145926.422500", "145930.372500", "145926.532500", "145930.482500", "145926.642500", "145930.592500", "145926.752500", "145930.702500", "145926.862500", "145930.812500", "145926.972500", "145930.922500", "145927.082500", "145931.030000", "145927.190000", "145931.140000", "145927.300000", "145931.250000", "145927.410000", "145931.360000", "145927.520000", "145931.470000", "145927.630000", "145931.580000", "145927.740000", "145931.690000", "145927.850000", "145935.660000", "145931.820000", "145935.770000", "145931.930000", "145935.877500", "145932.037500", "145935.987500", "145932.147500", "145936.097500", "145932.257500", "145936.207500", "145932.367500", "145936.317500", "145932.477500", "145936.427500", "145932.587500", "145936.537500", "145932.697500", "145936.647500", "145932.807500", "145936.757500", "145932.917500", "145936.865000", "145933.025000", "145936.975000", "145933.135000", "145937.085000", "145933.245000", "145937.195000", "145933.355000", "145937.305000", "145933.465000", "145937.415000", "145933.575000", "145937.525000", "145933.685000", "145937.635000", "145933.795000", "145937.742500", "145933.905000", "145937.852500", "145934.012500", "145937.962500", "145934.122500", "145938.072500", "145934.232500", "145938.182500", "145934.342500", "145938.292500", "145934.452500", "145938.402500", "145934.562500", "145938.512500", "145934.672500", "145938.622500", "145934.782500", "145938.730000", "145934.890000", "145938.840000", "145935.000000", "145938.950000", "145935.110000", "145939.060000", "145935.220000", "145939.170000", "145935.330000", "145939.280000", "145935.440000", "145939.390000", "145935.550000", "145943.360000", "145939.520000", "145943.470000", "145939.630000", "145943.577500", "145939.737500", "145943.687500", "145939.847500", "145943.797500", "145939.957500", "145943.907500", "145940.067500", "145944.017500", "145940.177500", "145944.127500", "145940.287500", "145944.237500", "145940.397500", "145944.347500", "145940.507500", "145944.457500", "145940.617500", "145944.565000", "145940.725000", "145944.675000", "145940.835000", "145944.785000", "145940.945000", "145944.895000", "145941.055000", "145945.005000", "145941.165000", "145945.115000", "145941.275000", "145945.225000", "145941.385000", "145945.335000", "145941.495000", "145945.442500", "145941.605000", "145945.552500", "145941.712500", "145945.662500", "145941.822500", "145945.772500", "145941.932500", "145945.882500", "145942.042500", "145945.992500", "145942.152500", "145946.102500", "145942.262500", "145946.212500", "145942.372500", "145946.322500", "145942.482500", "145946.430000", "145942.590000", "145946.540000", "145942.700000", "145946.650000", "145942.810000", "145946.760000", "145942.920000", "145946.870000", "145943.030000", "145946.980000", "145943.140000", "145947.090000", "145943.250000", "145951.060000", "145947.220000", "145951.170000", "145947.330000", "145951.277500", "145947.437500", "145951.387500", "145947.547500", "145951.497500", "145947.657500", "145951.607500", "145947.767500", "145951.717500", "145947.877500", "145951.827500", "145947.987500", "145951.937500", "145948.097500", "145952.047500", "145948.207500", "145952.157500", "145948.317500", "145952.265000", "145948.425000", "145952.375000", "145948.535000", "145952.485000", "145948.645000", "145952.595000", "145948.755000", "145952.705000", "145948.865000", "145952.815000", "145948.975000", "145952.925000", "145949.085000", "145953.035000", "145949.195000", "145953.142500", "145949.305000", "145953.252500", "145949.412500", "145953.362500", "145949.522500", "145953.472500", "145949.632500", "145953.582500", "145949.742500", "145953.692500", "145949.852500", "145953.802500", "145949.962500", "145953.912500", "145950.072500", "145954.022500", "145950.182500", "145954.130000", "145950.290000", "145954.240000", "145950.400000", "145954.350000", "145950.510000", "145954.460000", "145950.620000", "145954.570000", "145950.730000", "145954.680000", "145950.840000", "145954.790000", "145950.950000", "145958.760000", "145954.920000", "145958.870000", "145955.030000", "145958.977500", "145955.137500", "145959.087500", "145955.247500", "145959.197500", "145955.357500", "145959.307500", "145955.467500", "145959.417500", "145955.577500", "145959.527500", "145955.687500", "145959.637500", "145955.797500", "145959.747500", "145955.907500", "145959.857500", "145956.017500", "145959.965000", "145956.125000", "150000.075000", "145956.235000", "150000.185000", "145956.345000", "150000.295000", "145956.455000", "150000.405000", "145956.565000", "150000.515000", "145956.675000", "150000.625000", "145956.785000", "150000.735000", "145956.895000", "150000.842500", "145957.005000", "150000.952500", "145957.112500", "150001.062500", "145957.222500", "150001.172500", "145957.332500", "150001.282500", "145957.442500", "150001.392500", "145957.552500", "150001.502500", "145957.662500", "150001.612500", "145957.772500", "150001.722500", "145957.882500", "150001.830000", "145957.990000", "150001.940000", "145958.100000", "150002.050000", "145958.210000", "150002.160000", "145958.320000", "150002.270000", "145958.430000", "150002.380000", "145958.540000", "150002.490000", "145958.650000", "150006.460000", "150002.620000", "150006.570000", "150002.730000", "150006.677500", "150002.837500", "150006.787500", "150002.947500", "150006.897500", "150003.057500", "150007.007500", "150003.167500", "150007.117500", "150003.277500", "150007.227500", "150003.387500", "150007.337500", "150003.497500", "150007.447500", "150003.607500", "150007.557500", "150003.717500", "150007.665000", "150003.825000", "150007.775000", "150003.935000", "150007.885000", "150004.045000", "150007.995000", "150004.155000", "150008.105000", "150004.265000", "150008.215000", "150004.375000", "150008.325000", "150004.485000", "150008.435000", "150004.595000", "150008.542500", "150004.705000", "150008.652500", "150004.812500", "150008.762500", "150004.922500", "150008.872500", "150005.032500", "150008.982500", "150005.142500", "150009.092500", "150005.252500", "150009.202500", "150005.362500", "150009.312500", "150005.472500", "150009.422500", "150005.582500", "150009.530000", "150005.690000", "150009.640000", "150005.800000", "150009.750000", "150005.910000", "150009.860000", "150006.020000", "150009.970000", "150006.130000", "150010.080000", "150006.240000", "150010.190000", "150006.350000", "150014.160000", "150010.320000", "150014.270000", "150010.430000", "150014.377500", "150010.537500", "150014.487500", "150010.647500", "150014.597500", "150010.757500", "150014.707500", "150010.867500", "150014.817500", "150010.977500", "150014.927500", "150011.087500", "150015.037500", "150011.197500", "150015.147500", "150011.307500", "150015.257500", "150011.417500", "150015.365000", "150011.525000", "150015.475000", "150011.635000", "150015.585000", "150011.745000", "150015.695000", "150011.855000", "150015.805000", "150011.965000", "150015.915000", "150012.075000", "150016.025000", "150012.185000", "150016.135000", "150012.295000", "150016.242500", "150012.405000", "150016.352500", "150012.512500", "150016.462500", "150012.622500", "150016.572500", "150012.732500", "150016.682500", "150012.842500", "150016.792500", "150012.952500", "150016.902500", "150013.062500", "150017.012500", "150013.172500", "150017.122500", "150013.282500", "150017.230000", "150013.390000", "150017.340000", "150013.500000", "150017.450000", "150013.610000", "150017.560000", "150013.720000", "150017.670000", "150013.830000", "150017.780000", "150013.940000", "150017.890000", "150014.050000", "150021.860000", "150018.020000", "150021.970000", "150018.130000", "150022.077500", "150018.237500", "150022.187500", "150018.347500", "150022.297500", "150018.457500", "150022.407500", "150018.567500", "150022.517500", "150018.677500", "150022.627500", "150018.787500", "150022.737500", "150018.897500", "150022.847500", "150019.007500", "150022.957500", "150019.117500", "150023.065000", "150019.225000", "150023.175000", "150019.335000", "150023.285000", "150019.445000", "150023.395000", "150019.555000", "150023.505000", "150019.665000", "150023.615000", "150019.775000", "150023.725000", "150019.885000", "150023.835000", "150019.995000", "150023.942500", "150020.105000", "150024.052500", "150020.212500", "150024.162500", "150020.322500", "150024.272500", "150020.432500", "150024.382500", "150020.542500", "150024.492500", "150020.652500", "150024.602500", "150020.762500", "150024.712500", "150020.872500", "150024.822500", "150020.982500", "150024.930000", "150021.090000", "150025.040000", "150021.200000", "150025.150000", "150021.310000", "150025.260000", "150021.420000", "150025.370000", "150021.530000", "150025.480000", "150021.640000", "150025.590000", "150021.750000", "150029.560000", "150025.720000", "150029.670000", "150025.830000", "150029.777500", "150025.937500", "150029.887500", "150026.047500", "150029.997500", "150026.157500", "150030.107500", "150026.267500", "150030.217500", "150026.377500", "150030.327500", "150026.487500", "150030.437500", "150026.597500", "150030.547500", "150026.707500", "150030.657500", "150026.817500", "150030.765000", "150026.925000", "150030.875000", "150027.035000", "150030.985000", "150027.145000", "150031.095000", "150027.255000", "150031.205000", "150027.365000", "150031.315000", "150027.475000", "150031.425000", "150027.585000", "150031.535000", "150027.695000", "150031.642500", "150027.805000", "150031.752500", "150027.912500", "150031.862500", "150028.022500", "150031.972500", "150028.132500", "150032.082500", "150028.242500", "150032.192500", "150028.352500", "150032.302500", "150028.462500", "150032.412500", "150028.572500", "150032.522500", "150028.682500", "150032.630000", "150028.790000", "150032.740000", "150028.900000", "150032.850000", "150029.010000", "150032.960000", "150029.120000", "150033.070000", "150029.230000", "150033.180000", "150029.340000", "150033.290000", "150029.450000", "150037.260000", "150033.420000", "150037.370000", "150033.530000", "150037.477500", "150033.637500", "150037.587500", "150033.747500", "150037.697500", "150033.857500", "150037.807500", "150033.967500", "150037.917500", "150034.077500", "150038.027500", "150034.187500", "150038.137500", "150034.297500", "150038.247500", "150034.407500", "150038.357500", "150034.517500", "150038.465000", "150034.625000", "150038.575000", "150034.735000", "150038.685000", "150034.845000", "150038.795000", "150034.955000", "150038.905000", "150035.065000", "150039.015000", "150035.175000", "150039.125000", "150035.285000", "150039.235000", "150035.395000", "150039.342500", "150035.505000", "150039.452500", "150035.612500", "150039.562500", "150035.722500", "150039.672500", "150035.832500", "150039.782500", "150035.942500", "150039.892500", "150036.052500", "150040.002500", "150036.162500", "150040.112500", "150036.272500", "150040.222500", "150036.382500", "150040.330000", "150036.490000", "150040.440000", "150036.600000", "150040.550000", "150036.710000", "150040.660000", "150036.820000", "150040.770000", "150036.930000", "150040.880000", "150037.040000", "150040.990000", "150037.150000", "150044.960000", "150041.120000", "150045.070000", "150041.230000", "150045.177500", "150041.337500", "150045.287500", "150041.447500", "150045.397500", "150041.557500", "150045.507500", "150041.667500", "150045.617500", "150041.777500", "150045.727500", "150041.887500", "150045.837500", "150041.997500", "150045.947500", "150042.107500", "150046.057500", "150042.217500", "150046.165000", "150042.325000", "150046.275000", "150042.435000", "150046.385000", "150042.545000", "150046.495000", "150042.655000", "150046.605000", "150042.765000", "150046.715000", "150042.875000", "150046.825000", "150042.985000", "150046.935000", "150043.095000", "150047.042500", "150043.205000", "150047.152500", "150043.312500", "150047.262500", "150043.422500", "150047.372500", "150043.532500", "150047.482500", "150043.642500", "150047.592500", "150043.752500", "150047.702500", "150043.862500", "150047.812500", "150043.972500", "150047.922500", "150044.082500", "150048.030000", "150044.190000", "150048.140000", "150044.300000", "150048.250000", "150044.410000", "150048.360000", "150044.520000", "150048.470000", "150044.630000", "150048.580000", "150044.740000", "150048.690000", "150044.850000", "150052.660000", "150048.820000", "150052.770000", "150048.930000", "150052.877500", "150049.037500", "150052.987500", "150049.147500", "150053.097500", "150049.257500", "150053.207500", "150049.367500", "150053.317500", "150049.477500", "150053.427500", "150049.587500", "150053.537500", "150049.697500", "150053.647500", "150049.807500", "150053.757500", "150049.917500", "150053.865000", "150050.025000", "150053.975000", "150050.135000", "150054.085000", "150050.245000", "150054.195000", "150050.355000", "150054.305000", "150050.465000", "150054.415000", "150050.575000", "150054.525000", "150050.685000", "150054.635000", "150050.795000", "150054.742500", "150050.905000", "150054.852500", "150051.012500", "150054.962500", "150051.122500", "150055.072500", "150051.232500", "150055.182500", "150051.342500", "150055.292500", "150051.452500", "150055.402500", "150051.562500", "150055.512500", "150051.672500", "150055.622500", "150051.782500", "150055.730000", "150051.890000", "150055.840000", "150052.000000", "150055.950000", "150052.110000", "150056.060000", "150052.220000", "150056.170000", "150052.330000", "150056.280000", "150052.440000", "150056.390000", "150052.550000", "150100.360000", "150056.520000", "150100.470000", "150056.630000", "150100.577500", "150056.737500", "150100.687500", "150056.847500", "150100.797500", "150056.957500", "150100.907500", "150057.067500", "150101.017500", "150057.177500", "150101.127500", "150057.287500", "150101.237500", "150057.397500", "150101.347500", "150057.507500", "150101.457500", "150057.617500", "150101.565000", "150057.725000", "150101.675000", "150057.835000", "150101.785000", "150057.945000", "150101.895000", "150058.055000", "150102.005000", "150058.165000", "150102.115000", "150058.275000", "150102.225000", "150058.385000", "150102.335000", "150058.495000", "150102.442500", "150058.605000", "150102.552500", "150058.712500", "150102.662500", "150058.822500", "150102.772500", "150058.932500", "150102.882500", "150059.042500", "150102.992500", "150059.152500", "150103.102500", "150059.262500", "150103.212500", "150059.372500", "150103.322500", "150059.482500", "150103.430000", "150059.590000", "150103.540000", "150059.700000", "150103.650000", "150059.810000", "150103.760000", "150059.920000", "150103.870000", "150100.030000", "150103.980000", "150100.140000", "150104.090000", "150100.250000", "150108.060000", "150104.220000", "150108.170000", "150104.330000", "150108.277500", "150104.437500", "150108.387500", "150104.547500", "150108.497500", "150104.657500", "150108.607500", "150104.767500", "150108.717500", "150104.877500", "150108.827500", "150104.987500", "150108.937500", "150105.097500", "150109.047500", "150105.207500", "150109.157500", "150105.317500", "150109.265000", "150105.425000", "150109.375000", "150105.535000", "150109.485000", "150105.645000", "150109.595000", "150105.755000", "150109.705000", "150105.865000", "150109.815000", "150105.975000", "150109.925000", "150106.08500