{
  "AcquisitionMatrixPE": 80,
  "AcquisitionNumber": 1,
  "AcquisitionTime": "10:56:48.500000",
  "BandwidthPerPixelPhaseEncode": 25,
  "BaseResolution": 80,
  "BodyPartExamined": "BRAIN",
  "CoilCombinationMethod": "Sum of Squares",
  "ConsistencyInfo": "N4_VE11C_LATEST_20160120",
  "ConversionSoftware": "dcm2niix",
  "ConversionSoftwareVersion": "v1.0.20220720",
  "DerivedVendorReportedEchoSpacing": 0.0005,
  "DeviceSerialNumber": "66112",
  "DwellTime": 2.7e-06,
  "EchoTime": 0.03,
  "EchoTrainLength": 80,
  "EffectiveEchoSpacing": 0.0005,
  "FlipAngle": 10,
  "HeudiconvVersion": "0.13.1",
  "ImageOrientationPatientDICOM": [0.98656, 0.163035, 0.0108973, -0.157668, 0.932337, 0.325406],
  "ImageOrientationText": "Tra>Cor(18.8)>Sag(-2.5)",
  "ImageType": [
    "ORIGINAL",
    "PRIMARY",
    "M",
    "ND",
    "NORM",
    "MOSAIC"
],
  "ImagingFrequency": 123.252,
  "InPlanePhaseEncodingDirectionDICOM": "COL",
  "InstitutionAddress": "Maynard 3,Hanover,NH,US,03755",
  "InstitutionName": "Dartmouth College - PBS",
  "InstitutionalDepartmentName": "Department",
  "MRAcquisitionType": "2D",
  "MagneticFieldStrength": 3,
  "Manufacturer": "Siemens",
  "ManufacturersModelName": "Prisma",
  "MatrixCoilMode": "SENSE",
  "Modality": "MR",
  "NonlinearGradientCorrection": false,
  "PartialFourier": 1,
  "PatientPosition": "HFS",
  "PercentPhaseFOV": 100,
  "PercentSampling": 100,
  "PhaseEncodingDirection": "j-",
  "PhaseEncodingSteps": 80,
  "PhaseResolution": 1,
  "PixelBandwidth": 2315,
  "ProcedureStepDescription": "dbic^QA",
  "ProtocolName": "func-bold_fa-10",
  "PulseSequenceDetails": "%SiemensSeq%\\ep2d_bold",
  "ReceiveCoilActiveElements": "HC1-7;NC1,2",
  "ReceiveCoilName": "HeadNeck_64",
  "ReconMatrixPE": 80,
  "RepetitionTime": 2,
  "SAR": 0.00764014,
  "ScanOptions": "FS",
  "ScanningSequence": "EP",
  "SequenceName": "*epfid2d1_80",
  "SequenceVariant": "SK",
  "SeriesDescription": "func-bold_fa-10",
  "SeriesNumber": 9,
  "ShimSetting": [4144, -7675, -7504, 189, -87, -328, -33, 74],
  "SliceThickness": 3.5,
  "SliceTiming": [0.99, 0, 1.055, 0.065, 1.1225, 0.1325, 1.1875, 0.1975, 1.255, 0.265, 1.32, 0.33, 1.385, 0.395, 1.4525, 0.4625, 1.5175, 0.5275, 1.585, 0.595, 1.65, 0.66, 1.715, 0.725, 1.7825, 0.7925, 1.8475, 0.8575, 1.915, 0.925],
  "SoftwareVersions": "syngo MR E11",
  "SpacingBetweenSlices": 3.99,
  "StationName": "AWP66112",
  "TotalReadoutTime": 0.0395,
  "TxRefAmp": 218.315,
  "dcmmeta_affine": [
    [-2.9596805572509766, -0.47300443053245544, -0.17114132642745972, 140.33644104003906],
    [-0.48910367488861084, 2.7970097064971924, 1.2877767086029053, -90.37947082519531],
    [0.032691773027181625, -0.9762189984321594, 3.7725908756256104, -42.80889892578125],
    [0.0, 0.0, 0.0, 1.0]
],
  "dcmmeta_reorient_transform": [
    [0.0, -1.0, 0.0, 79.0],
    [1.0, 0.0, 0.0, 0.0],
    [0.0, 0.0, 1.0, 0.0],
    [0.0, 0.0, 0.0, 1.0]
],
  "dcmmeta_shape": [80, 80, 30, 200],
  "dcmmeta_slice_dim": 2,
  "dcmmeta_version": 0.6,
  "global": {
    "const": {
      "AccessionNumber": "qa64",
      "AcquisitionMatrix": [80, 0, 0, 80],
      "AngioFlag": "N",
      "BitsAllocated": 16,
      "BitsStored": 12,
      "BodyPartExamined": "BRAIN",
      "Columns": 480,
      "EchoNumbers": 1,
      "EchoTime": 30.0,
      "EchoTrainLength": 80,
      "FlipAngle": 10.0,
      "HighBit": 11,
      "ImageOrientationPatient": [0.98656017742553, 0.16303455487132, 0.01089725818795, -0.1576681462478, 0.9323365694264, 0.32540632595111],
      "ImagePositionPatient": [-600.30431451669, -787.80697219396, -321.71234919585],
      "ImageType": [
        "ORIGINAL",
        "PRIMARY",
        "M",
        "ND",
        "NORM",
        "MOSAIC"
],
      "ImagedNucleus": "1H",
      "ImagingFrequency": 123.252376,
      "InPlanePhaseEncodingDirection": "COL",
      "MRAcquisitionType": "2D",
      "MagneticFieldStrength": 3.0,
      "Manufacturer": "SIEMENS",
      "ManufacturerModelName": "Prisma",
      "Modality": "MR",
      "NumberOfAverages": 1.0,
      "NumberOfPhaseEncodingSteps": 80,
      "PercentPhaseFieldOfView": 100.0,
      "PercentSampling": 100.0,
      "PerformedProcedureStepStartTime": "104025.707000",
      "PhotometricInterpretation": "MONOCHROME2",
      "PixelBandwidth": 2315.0,
      "PixelRepresentation": 0,
      "PixelSpacing": [3.0, 3.0],
      "ProtocolName": "func-bold_fa-10",
      "RepetitionTime": 2000.0,
      "Rows": 480,
      "SAR": 0.00764013749354,
      "SamplesPerPixel": 1,
      "ScanOptions": "FS",
      "ScanningSequence": "EP",
      "SequenceName": "*epfid2d1_80",
      "SequenceVariant": "SK",
      "SeriesDescription": "func-bold_fa-10",
      "SeriesNumber": 9,
      "SeriesTime": "105736.168000",
      "SliceLocation": -75.665766822964,
      "SliceThickness": 3.5,
      "SmallestImagePixelValue": 0,
      "SoftwareVersions": "syngo MR E11",
      "SpacingBetweenSlices": 3.9899999499885,
      "SpecificCharacterSet": "ISO_IR 100",
      "StudyID": "5",
      "StudyTime": "104025.622000",
      "TransmitCoilName": "Body",
      "VariableFlipAngleFlag": "N",
      "WindowCenterWidthExplanation": "Algo1",
      "dBdt": 0.0},
    "slices": {}
  },
  "time": {
    "samples": {
      "AcquisitionNumber": [1, 2, 3, 4, 5, 6, 7, 8, 9, 10, 11, 12, 13, 14, 15, 16, 17, 18, 19, 20, 21, 22, 23, 24, 25, 26, 27, 28, 29, 30, 31, 32, 33, 34, 35, 36, 37, 38, 39, 40, 41, 42, 43, 44, 45, 46, 47, 48, 49, 50, 51, 52, 53, 54, 55, 56, 57, 58, 59, 60, 61, 62, 63, 64, 65, 66, 67, 68, 69, 70, 71, 72, 73, 74, 75, 76, 77, 78, 79, 80, 81, 82, 83, 84, 85, 86, 87, 88, 89, 90, 91, 92, 93, 94, 95, 96, 97, 98, 99, 100, 101, 102, 103, 104, 105, 106, 107, 108, 109, 110, 111, 112, 113, 114, 115, 116, 117, 118, 119, 120, 121, 122, 123, 124, 125, 126, 127, 128, 129, 130, 131, 132, 133, 134, 135, 136, 137, 138, 139, 140, 141, 142, 143, 144, 145, 146, 147, 148, 149, 150, 151, 152, 153, 154, 155, 156, 157, 158, 159, 160, 161, 162, 163, 164, 165, 166, 167, 168, 169, 170, 171, 172, 173, 174, 175, 176, 177, 178, 179, 180, 181, 182, 183, 184, 185, 186, 187, 188, 189, 190, 191, 192, 193, 194, 195, 196, 197, 198, 199, 200],
      "AcquisitionTime": ["105648.500000", "105650.500000", "105652.500000", "105654.500000", "105656.500000", "105658.500000", "105700.500000", "105702.500000", "105704.500000", "105706.500000", "105708.500000", "105710.500000", "105712.500000", "105714.500000", "105716.500000", "105718.500000", "105720.500000", "105722.500000", "105724.500000", "105726.500000", "105728.500000", "105730.500000", "105732.500000", "105734.500000", "105736.500000", "105738.500000", "105740.500000", "105742.500000", "105744.500000", "105746.500000", "105748.500000", "105750.500000", "105752.500000", "105754.500000", "105756.500000", "105758.500000", "105800.500000", "105802.500000", "105804.500000", "105806.500000", "105808.500000", "105810.500000", "105812.500000", "105814.500000", "105816.500000", "105818.500000", "105820.500000", "105822.500000", "105824.500000", "105826.500000", "105828.500000", "105830.500000", "105832.500000", "105834.500000", "105836.500000", "105838.500000", "105840.500000", "105842.500000", "105844.500000", "105846.500000", "105848.500000", "105850.500000", "105852.500000", "105854.500000", "105856.500000", "105858.500000", "105900.500000", "105902.500000", "105904.500000", "105906.500000", "105908.500000", "105910.500000", "105912.500000", "105914.500000", "105916.500000", "105918.500000", "105920.500000", "105922.500000", "105924.500000", "105926.500000", "105928.500000", "105930.500000", "105932.500000", "105934.500000", "105936.500000", "105938.500000", "105940.500000", "105942.500000", "105944.500000", "105946.500000", "105948.500000", "105950.500000", "105952.500000", "105954.500000", "105956.500000", "105958.500000", "110000.500000", "110002.500000", "110004.500000", "110006.500000", "110008.500000", "110010.500000", "110012.500000", "110014.500000", "110016.500000", "110018.500000", "110020.500000", "110022.500000", "110024.500000", "110026.500000", "110028.500000", "110030.500000", "110032.500000", "110034.500000", "110036.500000", "110038.500000", "110040.500000", "110042.500000", "110044.500000", "110046.500000", "110048.500000", "110050.500000", "110052.500000", "110054.500000", "110056.500000", "110058.500000", "110100.500000", "110102.500000", "110104.500000", "110106.500000", "110108.500000", "110110.500000", "110112.500000", "110114.500000", "110116.500000", "110118.500000", "110120.500000", "110122.500000", "110124.500000", "110126.500000", "110128.500000", "110130.500000", "110132.500000", "110134.500000", "110136.500000", "110138.500000", "110140.500000", "110142.500000", "110144.500000", "110146.500000", "110148.500000", "110150.500000", "110152.500000", "110154.500000", "110156.500000", "110158.500000", "110200.500000", "110202.500000", "110204.500000", "110206.500000", "110208.500000", "110210.500000", "110212.500000", "110214.500000", "110216.500000", "110218.500000", "110220.500000", "110222.500000", "110224.500000", "110226.500000", "110228.500000", "110230.500000", "110232.500000", "110234.500000", "110236.500000", "110238.500000", "110240.500000", "110242.500000", "110244.500000", "110246.500000", "110248.500000", "110250.500000", "110252.500000", "110254.500000", "110256.500000", "110258.500000", "110300.500000", "110302.500000", "110304.500000", "110306.500000", "110308.500000", "110310.500000", "110312.500000", "110314.500000", "110316.500000", "110318.500000", "110320.500000", "110322.500000", "110324.500000", "110326.500000"],
      "ContentTime": ["105736.171000", "105736.175000", "105736.177000", "105736.180000", "105736.183000", "105736.185000", "105736.188000", "105736.190000", "105736.193000", "105736.195000", "105736.198000", "105736.200000", "105736.203000", "105736.209000", "105736.212000", "105736.214000", "105736.217000", "105736.219000", "105736.222000", "105736.224000", "105736.227000", "105736.229000", "105736.232000", "105736.235000", "105816.167000", "105816.170000", "105816.173000", "105816.176000", "105816.178000", "105816.181000", "105816.183000", "105816.186000", "105816.188000", "105816.191000", "105816.193000", "105816.196000", "105816.198000", "105816.201000", "105816.204000", "105816.206000", "105816.209000", "105816.211000", "105816.214000", "105816.216000", "105856.166000", "105856.169000", "105856.172000", "105856.174000", "105856.177000", "105856.180000", "105856.182000", "105856.185000", "105856.187000", "105856.190000", "105856.192000", "105856.195000", "105856.197000", "105856.200000", "105856.202000", "105856.205000", "105856.207000", "105856.210000", "105856.213000", "105856.215000", "105936.166000", "105936.169000", "105936.172000", "105936.174000", "105936.177000", "105936.180000", "105936.182000", "105936.185000", "105936.187000", "105936.190000", "105936.192000", "105936.195000", "105936.197000", "105936.200000", "105936.202000", "105936.205000", "105936.208000", "105936.210000", "105936.213000", "105936.215000", "110016.166000", "110016.169000", "110016.172000", "110016.174000", "110016.177000", "110016.180000", "110016.182000", "110016.185000", "110016.187000", "110016.190000", "110016.192000", "110016.195000", "110016.197000", "110016.200000", "110016.203000", "110016.205000", "110016.208000", "110016.210000", "110016.213000", "110016.215000", "110056.166000", "110056.169000", "110056.172000", "110056.174000", "110056.177000", "110056.180000", "110056.182000", "110056.185000", "110056.187000", "110056.190000", "110056.192000", "110056.195000", "110056.197000", "110056.200000", "110056.203000", "110056.205000", "110056.208000", "110056.210000", "110056.213000", "110056.215000", "110136.167000", "110136.169000", "110136.172000", "110136.175000", "110136.177000", "110136.180000", "110136.182000", "110136.185000", "110136.187000", "110136.190000", "110136.192000", "110136.195000", "110136.197000", "110136.200000", "110136.203000", "110136.205000", "110136.208000", "110136.210000", "110136.213000", "110136.215000", "110216.167000", "110216.169000", "110216.172000", "110216.175000", "110216.177000", "110216.180000", "110216.182000", "110216.185000", "110216.187000", "110216.190000", "110216.192000", "110216.195000", "110216.198000", "110216.200000", "110216.203000", "110216.205000", "110216.208000", "110216.210000", "110216.213000", "110216.215000", "110256.167000", "110256.169000", "110256.172000", "110256.175000", "110256.177000", "110256.180000", "110256.182000", "110256.185000", "110256.187000", "110256.190000", "110256.193000", "110256.195000", "110256.198000", "110256.200000", "110256.203000", "110256.205000", "110256.208000", "110256.210000", "110256.213000", "110256.216000", "110327.924000", "110327.927000", "110327.930000", "110327.932000", "110327.935000", "110327.938000", "110327.940000", "110327.943000", "110327.946000", "110327.948000", "110327.951000", "110327.954000", "110327.963000", "110327.969000", "110327.979000", "110327.982000"],
      "InstanceCreationTime": ["105736.171000", "105736.175000", "105736.177000", "105736.180000", "105736.183000", "105736.185000", "105736.188000", "105736.190000", "105736.193000", "105736.195000", "105736.198000", "105736.200000", "105736.203000", "105736.209000", "105736.212000", "105736.214000", "105736.217000", "105736.219000", "105736.222000", "105736.224000", "105736.227000", "105736.229000", "105736.232000", "105736.235000", "105816.167000", "105816.170000", "105816.173000", "105816.176000", "105816.178000", "105816.181000", "105816.183000", "105816.186000", "105816.188000", "105816.191000", "105816.193000", "105816.196000", "105816.198000", "105816.201000", "105816.204000", "105816.206000", "105816.209000", "105816.211000", "105816.214000", "105816.216000", "105856.166000", "105856.169000", "105856.172000", "105856.174000", "105856.177000", "105856.180000", "105856.182000", "105856.185000", "105856.187000", "105856.190000", "105856.192000", "105856.195000", "105856.197000", "105856.200000", "105856.202000", "105856.205000", "105856.207000", "105856.210000", "105856.213000", "105856.215000", "105936.166000", "105936.169000", "105936.172000", "105936.174000", "105936.177000", "105936.180000", "105936.182000", "105936.185000", "105936.187000", "105936.190000", "105936.192000", "105936.195000", "105936.197000", "105936.200000", "105936.202000", "105936.205000", "105936.208000", "105936.210000", "105936.213000", "105936.215000", "110016.166000", "110016.169000", "110016.172000", "110016.174000", "110016.177000", "110016.180000", "110016.182000", "110016.185000", "110016.187000", "110016.190000", "110016.192000", "110016.195000", "110016.197000", "110016.200000", "110016.203000", "110016.205000", "110016.208000", "110016.210000", "110016.213000", "110016.215000", "110056.166000", "110056.169000", "110056.172000", "110056.174000", "110056.177000", "110056.180000", "110056.182000", "110056.185000", "110056.187000", "110056.190000", "110056.192000", "110056.195000", "110056.197000", "110056.200000", "110056.203000", "110056.205000", "110056.208000", "110056.210000", "110056.213000", "110056.215000", "110136.167000", "110136.169000", "110136.172000", "110136.175000", "110136.177000", "110136.180000", "110136.182000", "110136.185000", "110136.187000", "110136.190000", "110136.192000", "110136.195000", "110136.197000", "110136.200000", "110136.203000", "110136.205000", "110136.208000", "110136.210000", "110136.213000", "110136.215000", "110216.167000", "110216.169000", "110216.172000", "110216.175000", "110216.177000", "110216.180000", "110216.182000", "110216.185000", "110216.187000", "110216.190000", "110216.192000", "110216.195000", "110216.198000", "110216.200000", "110216.203000", "110216.205000", "110216.208000", "110216.210000", "110216.213000", "110216.215000", "110256.167000", "110256.169000", "110256.172000", "110256.175000", "110256.177000", "110256.180000", "110256.182000", "110256.185000", "110256.187000", "110256.190000", "110256.193000", "110256.195000", "110256.198000", "110256.200000", "110256.203000", "110256.205000", "110256.208000", "110256.210000", "110256.213000", "110256.216000", "110327.924000", "110327.927000", "110327.930000", "110327.932000", "110327.935000", "110327.938000", "110327.940000", "110327.943000", "110327.946000", "110327.948000", "110327.951000", "110327.954000", "110327.963000", "110327.969000", "110327.979000", "110327.982000"],
      "InstanceNumber": [1, 2, 3, 4, 5, 6, 7, 8, 9, 10, 11, 12, 13, 14, 15, 16, 17, 18, 19, 20, 21, 22, 23, 24, 25, 26, 27, 28, 29, 30, 31, 32, 33, 34, 35, 36, 37, 38, 39, 40, 41, 42, 43, 44, 45, 46, 47, 48, 49, 50, 51, 52, 53, 54, 55, 56, 57, 58, 59, 60, 61, 62, 63, 64, 65, 66, 67, 68, 69, 70, 71, 72, 73, 74, 75, 76, 77, 78, 79, 80, 81, 82, 83, 84, 85, 86, 87, 88, 89, 90, 91, 92, 93, 94, 95, 96, 97, 98, 99, 100, 101, 102, 103, 104, 105, 106, 107, 108, 109, 110, 111, 112, 113, 114, 115, 116, 117, 118, 119, 120, 121, 122, 123, 124, 125, 126, 127, 128, 129, 130, 131, 132, 133, 134, 135, 136, 137, 138, 139, 140, 141, 142, 143, 144, 145, 146, 147, 148, 149, 150, 151, 152, 153, 154, 155, 156, 157, 158, 159, 160, 161, 162, 163, 164, 165, 166, 167, 168, 169, 170, 171, 172, 173, 174, 175, 176, 177, 178, 179, 180, 181, 182, 183, 184, 185, 186, 187, 188, 189, 190, 191, 192, 193, 194, 195, 196, 197, 198, 199, 200],
      "LargestImagePixelValue": [627, 627, 626, 625, 626, 629, 627, 625, 629, 627, 623, 619, 617, 618, 618, 620, 617, 616, 617, 618, 615, 619, 617, 617, 615, 617, 617, 617, 619, 618, 622, 618, 617, 618, 618, 619, 618, 618, 616, 618, 617, 617, 618, 618, 617, 616, 615, 617, 619, 618, 622, 620, 620, 618, 615, 615, 617, 616, 617, 617, 619, 615, 613, 616, 616, 618, 616, 616, 612, 613, 618, 617, 618, 619, 614, 617, 618, 617, 617, 620, 616, 620, 615, 617, 616, 617, 619, 620, 615, 616, 618, 616, 617, 616, 616, 614, 617, 617, 613, 614, 619, 620, 616, 616, 617, 616, 617, 619, 618, 614, 613, 617, 618, 618, 614, 618, 615, 616, 616, 615, 617, 614, 616, 619, 616, 617, 615, 615, 616, 614, 614, 614, 618, 615, 618, 617, 618, 615, 616, 616, 616, 620, 614, 617, 614, 617, 615, 616, 614, 615, 617, 617, 614, 617, 613, 618, 617, 616, 617, 617, 615, 615, 615, 618, 620, 615, 615, 615, 616, 618, 618, 615, 618, 614, 618, 615, 617, 617, 618, 617, 617, 615, 615, 619, 616, 618, 618, 617, 615, 628, 626, 625, 624, 623, 626, 617, 615, 619, 614, 617],
      "WindowCenter": [446.0, 446.0, 446.0, 446.0, 446.0, 446.0, 445.0, 446.0, 446.0, 445.0, 444.0, 442.0, 441.0, 441.0, 441.0, 441.0, 441.0, 441.0, 441.0, 441.0, 442.0, 441.0, 441.0, 441.0, 441.0, 441.0, 441.0, 441.0, 441.0, 441.0, 441.0, 441.0, 441.0, 441.0, 441.0, 441.0, 441.0, 441.0, 441.0, 441.0, 441.0, 441.0, 441.0, 441.0, 442.0, 441.0, 441.0, 441.0, 441.0, 441.0, 441.0, 441.0, 441.0, 441.0, 441.0, 441.0, 441.0, 441.0, 441.0, 441.0, 441.0, 441.0, 441.0, 441.0, 441.0, 441.0, 441.0, 441.0, 441.0, 441.0, 441.0, 441.0, 441.0, 441.0, 441.0, 441.0, 441.0, 441.0, 441.0, 441.0, 441.0, 441.0, 441.0, 441.0, 441.0, 441.0, 441.0, 441.0, 441.0, 441.0, 441.0, 440.0, 440.0, 440.0, 440.0, 440.0, 440.0, 440.0, 440.0, 441.0, 440.0, 440.0, 440.0, 440.0, 440.0, 441.0, 440.0, 440.0, 440.0, 440.0, 440.0, 440.0, 440.0, 440.0, 440.0, 440.0, 440.0, 440.0, 440.0, 440.0, 441.0, 440.0, 440.0, 440.0, 440.0, 440.0, 440.0, 440.0, 440.0, 440.0, 441.0, 440.0, 440.0, 440.0, 440.0, 440.0, 440.0, 441.0, 440.0, 440.0, 440.0, 440.0, 440.0, 440.0, 440.0, 440.0, 440.0, 440.0, 440.0, 440.0, 440.0, 440.0, 440.0, 440.0, 440.0, 440.0, 440.0, 440.0, 440.0, 440.0, 440.0, 440.0, 440.0, 440.0, 440.0, 440.0, 440.0, 440.0, 440.0, 440.0, 440.0, 440.0, 440.0, 440.0, 440.0, 440.0, 440.0, 440.0, 440.0, 440.0, 440.0, 440.0, 440.0, 440.0, 440.0, 440.0, 440.0, 440.0, 440.0, 442.0, 445.0, 444.0, 444.0, 444.0, 444.0, 442.0, 440.0, 440.0, 440.0, 440.0],
      "WindowWidth": [928.0, 928.0, 928.0, 928.0, 928.0, 928.0, 927.0, 928.0, 928.0, 927.0, 924.0, 920.0, 919.0, 919.0, 919.0, 919.0, 919.0, 919.0, 919.0, 919.0, 920.0, 919.0, 919.0, 919.0, 919.0, 919.0, 919.0, 919.0, 919.0, 919.0, 919.0, 919.0, 919.0, 919.0, 919.0, 919.0, 919.0, 919.0, 919.0, 919.0, 919.0, 919.0, 919.0, 919.0, 920.0, 919.0, 919.0, 919.0, 919.0, 919.0, 919.0, 919.0, 919.0, 919.0, 919.0, 919.0, 919.0, 919.0, 919.0, 919.0, 919.0, 919.0, 919.0, 919.0, 919.0, 919.0, 919.0, 919.0, 919.0, 919.0, 918.0, 919.0, 919.0, 919.0, 919.0, 919.0, 919.0, 919.0, 919.0, 919.0, 918.0, 919.0, 919.0, 919.0, 919.0, 919.0, 918.0, 918.0, 918.0, 918.0, 918.0, 918.0, 918.0, 918.0, 918.0, 918.0, 918.0, 918.0, 918.0, 918.0, 918.0, 918.0, 918.0, 918.0, 918.0, 918.0, 918.0, 917.0, 917.0, 917.0, 917.0, 917.0, 917.0, 917.0, 917.0, 918.0, 917.0, 917.0, 917.0, 917.0, 918.0, 917.0, 917.0, 917.0, 917.0, 917.0, 917.0, 917.0, 917.0, 917.0, 918.0, 917.0, 917.0, 917.0, 918.0, 917.0, 917.0, 918.0, 917.0, 917.0, 917.0, 917.0, 917.0, 917.0, 917.0, 917.0, 917.0, 917.0, 917.0, 917.0, 917.0, 917.0, 917.0, 917.0, 917.0, 917.0, 917.0, 917.0, 917.0, 917.0, 917.0, 917.0, 917.0, 917.0, 917.0, 917.0, 917.0, 917.0, 917.0, 917.0, 917.0, 917.0, 917.0, 916.0, 917.0, 917.0, 917.0, 917.0, 917.0, 917.0, 917.0, 917.0, 917.0, 917.0, 917.0, 917.0, 916.0, 917.0, 917.0, 921.0, 925.0, 925.0, 925.0, 925.0, 925.0, 921.0, 917.0, 917.0, 917.0, 917.0]
    },
    "slices": {}
  }
}