{
  "AcquisitionMatrixPE": 80,
  "AcquisitionNumber": 1,
  "AcquisitionTime": "10:43:13.207500",
  "BandwidthPerPixelPhaseEncode": 48.077,
  "BaseResolution": 80,
  "BodyPartExamined": "BRAIN",
  "CoilCombinationMethod": "Sum of Squares",
  "ConsistencyInfo": "N4_VE11C_LATEST_20160120",
  "ConversionSoftware": "dcm2niix",
  "ConversionSoftwareVersion": "v1.0.20220720",
  "DerivedVendorReportedEchoSpacing": 0.000519999,
  "DeviceSerialNumber": "66112",
  "DwellTime": 2.7e-06,
  "EchoTime": 0.035,
  "EchoTrainLength": 39,
  "EffectiveEchoSpacing": 0.00026,
  "FlipAngle": 90,
  "HeudiconvVersion": "0.13.1",
  "ImageOrientationPatientDICOM": [0.98656, 0.163035, 0.0108973, -0.157668, 0.932337, 0.325406],
  "ImageOrientationText": "Tra>Cor(18.8)>Sag(-2.5)",
  "ImageType": [
    "ORIGINAL",
    "PRIMARY",
    "M",
    "ND",
    "NORM",
    "MOSAIC"
],
  "ImagingFrequency": 123.252,
  "InPlanePhaseEncodingDirectionDICOM": "COL",
  "InstitutionAddress": "Maynard 3,Hanover,NH,US,03755",
  "InstitutionName": "Dartmouth College - PBS",
  "InstitutionalDepartmentName": "Department",
  "MRAcquisitionType": "2D",
  "MagneticFieldStrength": 3,
  "Manufacturer": "Siemens",
  "ManufacturersModelName": "Prisma",
  "MatrixCoilMode": "GRAPPA",
  "Modality": "MR",
  "NonlinearGradientCorrection": false,
  "ParallelReductionFactorInPlane": 2,
  "PartialFourier": 1,
  "PatientPosition": "HFS",
  "PercentPhaseFOV": 100,
  "PercentSampling": 100,
  "PhaseEncodingDirection": "j-",
  "PhaseEncodingSteps": 79,
  "PhaseResolution": 1,
  "PixelBandwidth": 2315,
  "ProcedureStepDescription": "dbic^QA",
  "ProtocolName": "func-bold_task-rest_acq-p2",
  "PulseSequenceDetails": "%SiemensSeq%\\ep2d_bold",
  "ReceiveCoilActiveElements": "HC1-7;NC1,2",
  "ReceiveCoilName": "HeadNeck_64",
  "ReconMatrixPE": 80,
  "RefLinesPE": 24,
  "RepetitionTime": 2,
  "SAR": 0.0362429,
  "ScanOptions": "FS",
  "ScanningSequence": "EP",
  "SequenceName": "*epfid2d1_80",
  "SequenceVariant": "SK",
  "SeriesDescription": "func-bold_task-rest_acq-p2",
  "SeriesNumber": 5,
  "ShimSetting": [4144, -7676, -7504, 189, -87, -328, -33, 75],
  "SliceThickness": 3.5,
  "SliceTiming": [0.99, 0, 1.055, 0.065, 1.1225, 0.1325, 1.1875, 0.1975, 1.255, 0.265, 1.32, 0.33, 1.385, 0.395, 1.4525, 0.4625, 1.5175, 0.5275, 1.585, 0.595, 1.65, 0.66, 1.715, 0.725, 1.7825, 0.7925, 1.8475, 0.8575, 1.915, 0.925],
  "SoftwareVersions": "syngo MR E11",
  "SpacingBetweenSlices": 3.99,
  "StationName": "AWP66112",
  "TaskName": "rest",
  "TotalReadoutTime": 0.02054,
  "TxRefAmp": 218.315,
  "dcmmeta_affine": [
    [-2.9596805572509766, -0.47300443053245544, -0.17114132642745972, 141.72987365722656],
    [-0.48910367488861084, 2.7970097064971924, 1.2877767086029053, -90.97345733642578],
    [0.032691773027181625, -0.9762189984321594, 3.7725908756256104, -43.00389099121094],
    [0.0, 0.0, 0.0, 1.0]
],
  "dcmmeta_reorient_transform": [
    [0.0, -1.0, 0.0, 79.0],
    [1.0, 0.0, 0.0, 0.0],
    [0.0, 0.0, 1.0, 0.0],
    [0.0, 0.0, 0.0, 1.0]
],
  "dcmmeta_shape": [80, 80, 30, 200],
  "dcmmeta_slice_dim": 2,
  "dcmmeta_version": 0.6,
  "global": {
    "const": {
      "AccessionNumber": "qa64",
      "AcquisitionMatrix": [80, 0, 0, 80],
      "AngioFlag": "N",
      "BitsAllocated": 16,
      "BitsStored": 12,
      "BodyPartExamined": "BRAIN",
      "Columns": 480,
      "EchoNumbers": 1,
      "EchoTime": 35.0,
      "EchoTrainLength": 39,
      "FlipAngle": 90.0,
      "HighBit": 11,
      "ImageOrientationPatient": [0.98656017742553, 0.16303455487132, 0.01089725818795, -0.1576681462478, 0.9323365694264, 0.32540632595111],
      "ImagePositionPatient": [-601.69773497453, -787.21298693443, -321.90734126128],
      "ImageType": [
        "ORIGINAL",
        "PRIMARY",
        "M",
        "ND",
        "NORM",
        "MOSAIC"
],
      "ImagedNucleus": "1H",
      "ImagingFrequency": 123.252378,
      "InPlanePhaseEncodingDirection": "COL",
      "MRAcquisitionType": "2D",
      "MagneticFieldStrength": 3.0,
      "Manufacturer": "SIEMENS",
      "ManufacturerModelName": "Prisma",
      "Modality": "MR",
      "NumberOfAverages": 1.0,
      "NumberOfPhaseEncodingSteps": 79,
      "PercentPhaseFieldOfView": 100.0,
      "PercentSampling": 100.0,
      "PerformedProcedureStepStartTime": "104025.707000",
      "PhotometricInterpretation": "MONOCHROME2",
      "PixelBandwidth": 2315.0,
      "PixelRepresentation": 0,
      "PixelSpacing": [3.0, 3.0],
      "ProtocolName": "func-bold_task-rest_acq-p2",
      "RepetitionTime": 2000.0,
      "Rows": 480,
      "SAR": 0.03624293056018,
      "SamplesPerPixel": 1,
      "ScanOptions": "FS",
      "ScanningSequence": "EP",
      "SequenceName": "*epfid2d1_80",
      "SequenceVariant": "SK",
      "SeriesDescription": "func-bold_task-rest_acq-p2",
      "SeriesNumber": 5,
      "SeriesTime": "104356.028000",
      "SliceLocation": -76.101610815772,
      "SliceThickness": 3.5,
      "SmallestImagePixelValue": 0,
      "SoftwareVersions": "syngo MR E11",
      "SpacingBetweenSlices": 3.9899999365868,
      "SpecificCharacterSet": "ISO_IR 100",
      "StudyID": "5",
      "StudyTime": "104025.622000",
      "TransmitCoilName": "Body",
      "VariableFlipAngleFlag": "N",
      "WindowCenterWidthExplanation": "Algo1",
      "dBdt": 0.0},
    "slices": {}
  },
  "time": {
    "samples": {
      "AcquisitionNumber": [1, 2, 3, 4, 5, 6, 7, 8, 9, 10, 11, 12, 13, 14, 15, 16, 17, 18, 19, 20, 21, 22, 23, 24, 25, 26, 27, 28, 29, 30, 31, 32, 33, 34, 35, 36, 37, 38, 39, 40, 41, 42, 43, 44, 45, 46, 47, 48, 49, 50, 51, 52, 53, 54, 55, 56, 57, 58, 59, 60, 61, 62, 63, 64, 65, 66, 67, 68, 69, 70, 71, 72, 73, 74, 75, 76, 77, 78, 79, 80, 81, 82, 83, 84, 85, 86, 87, 88, 89, 90, 91, 92, 93, 94, 95, 96, 97, 98, 99, 100, 101, 102, 103, 104, 105, 106, 107, 108, 109, 110, 111, 112, 113, 114, 115, 116, 117, 118, 119, 120, 121, 122, 123, 124, 125, 126, 127, 128, 129, 130, 131, 132, 133, 134, 135, 136, 137, 138, 139, 140, 141, 142, 143, 144, 145, 146, 147, 148, 149, 150, 151, 152, 153, 154, 155, 156, 157, 158, 159, 160, 161, 162, 163, 164, 165, 166, 167, 168, 169, 170, 171, 172, 173, 174, 175, 176, 177, 178, 179, 180, 181, 182, 183, 184, 185, 186, 187, 188, 189, 190, 191, 192, 193, 194, 195, 196, 197, 198, 199, 200],
      "AcquisitionTime": ["104313.207500", "104315.207500", "104317.207500", "104319.207500", "104321.207500", "104323.207500", "104325.207500", "104327.207500", "104329.207500", "104331.207500", "104333.207500", "104335.207500", "104337.207500", "104339.207500", "104341.207500", "104343.207500", "104345.207500", "104347.207500", "104349.207500", "104351.207500", "104353.207500", "104355.207500", "104357.207500", "104359.207500", "104401.207500", "104403.207500", "104405.207500", "104407.207500", "104409.207500", "104411.207500", "104413.207500", "104415.207500", "104417.207500", "104419.207500", "104421.207500", "104423.207500", "104425.207500", "104427.207500", "104429.207500", "104431.207500", "104433.207500", "104435.207500", "104437.207500", "104439.207500", "104441.207500", "104443.207500", "104445.207500", "104447.207500", "104449.207500", "104451.207500", "104453.207500", "104455.207500", "104457.207500", "104459.207500", "104501.207500", "104503.207500", "104505.207500", "104507.207500", "104509.207500", "104511.207500", "104513.207500", "104515.207500", "104517.207500", "104519.207500", "104521.207500", "104523.207500", "104525.207500", "104527.207500", "104529.207500", "104531.207500", "104533.207500", "104535.207500", "104537.207500", "104539.207500", "104541.207500", "104543.207500", "104545.207500", "104547.207500", "104549.207500", "104551.207500", "104553.207500", "104555.207500", "104557.207500", "104559.207500", "104601.207500", "104603.207500", "104605.207500", "104607.207500", "104609.207500", "104611.207500", "104613.207500", "104615.207500", "104617.207500", "104619.207500", "104621.207500", "104623.207500", "104625.207500", "104627.207500", "104629.207500", "104631.207500", "104633.207500", "104635.207500", "104637.207500", "104639.207500", "104641.207500", "104643.207500", "104645.207500", "104647.207500", "104649.207500", "104651.207500", "104653.207500", "104655.207500", "104657.207500", "104659.207500", "104701.207500", "104703.207500", "104705.207500", "104707.207500", "104709.207500", "104711.207500", "104713.207500", "104715.207500", "104717.207500", "104719.207500", "104721.207500", "104723.207500", "104725.207500", "104727.207500", "104729.207500", "104731.207500", "104733.207500", "104735.207500", "104737.207500", "104739.207500", "104741.207500", "104743.207500", "104745.207500", "104747.207500", "104749.207500", "104751.207500", "104753.207500", "104755.207500", "104757.207500", "104759.207500", "104801.207500", "104803.207500", "104805.207500", "104807.207500", "104809.207500", "104811.207500", "104813.207500", "104815.207500", "104817.207500", "104819.207500", "104821.207500", "104823.207500", "104825.207500", "104827.207500", "104829.207500", "104831.207500", "104833.207500", "104835.207500", "104837.207500", "104839.207500", "104841.207500", "104843.207500", "104845.207500", "104847.207500", "104849.207500", "104851.207500", "104853.207500", "104855.207500", "104857.207500", "104859.207500", "104901.207500", "104903.207500", "104905.207500", "104907.207500", "104909.207500", "104911.207500", "104913.207500", "104915.207500", "104917.207500", "104919.207500", "104921.207500", "104923.207500", "104925.207500", "104927.207500", "104929.207500", "104931.207500", "104933.207500", "104935.207500", "104937.207500", "104939.207500", "104941.207500", "104943.207500", "104945.207500", "104947.207500", "104949.207500", "104951.207500"],
      "ContentTime": ["104356.032000", "104356.035000", "104356.038000", "104356.050000", "104356.052000", "104356.055000", "104356.057000", "104356.060000", "104356.062000", "104356.065000", "104356.068000", "104356.070000", "104356.073000", "104356.075000", "104356.078000", "104356.080000", "104356.083000", "104356.086000", "104356.088000", "104356.091000", "104356.093000", "104436.027000", "104436.030000", "104436.032000", "104436.035000", "104436.037000", "104436.040000", "104436.043000", "104436.045000", "104436.048000", "104436.050000", "104436.053000", "104436.056000", "104436.058000", "104436.061000", "104436.063000", "104436.066000", "104436.068000", "104436.071000", "104436.074000", "104436.076000", "104516.027000", "104516.029000", "104516.032000", "104516.035000", "104516.037000", "104516.040000", "104516.042000", "104516.045000", "104516.048000", "104516.050000", "104516.062000", "104516.064000", "104516.067000", "104516.069000", "104516.072000", "104516.074000", "104516.077000", "104516.080000", "104516.082000", "104516.085000", "104556.027000", "104556.030000", "104556.032000", "104556.035000", "104556.037000", "104556.040000", "104556.043000", "104556.046000", "104556.048000", "104556.051000", "104556.054000", "104556.056000", "104556.059000", "104556.062000", "104556.064000", "104556.067000", "104556.070000", "104556.072000", "104556.075000", "104556.077000", "104636.027000", "104636.030000", "104636.032000", "104636.035000", "104636.037000", "104636.040000", "104636.043000", "104636.051000", "104636.054000", "104636.056000", "104636.059000", "104636.062000", "104636.064000", "104636.067000", "104636.069000", "104636.072000", "104636.075000", "104636.077000", "104636.080000", "104636.082000", "104656.026000", "104656.029000", "104656.032000", "104656.034000", "104656.037000", "104656.040000", "104656.042000", "104656.045000", "104656.047000", "104656.050000", "104736.027000", "104736.029000", "104736.032000", "104736.035000", "104736.037000", "104736.040000", "104736.043000", "104736.045000", "104736.048000", "104736.050000", "104736.053000", "104736.056000", "104736.058000", "104736.061000", "104736.063000", "104736.066000", "104736.068000", "104736.071000", "104736.074000", "104736.076000", "104816.027000", "104816.029000", "104816.032000", "104816.035000", "104816.037000", "104816.040000", "104816.042000", "104816.045000", "104816.047000", "104816.050000", "104816.053000", "104816.055000", "104816.058000", "104816.060000", "104816.063000", "104816.066000", "104816.068000", "104816.071000", "104816.073000", "104816.076000", "104856.027000", "104856.029000", "104856.032000", "104856.035000", "104856.037000", "104856.040000", "104856.043000", "104856.045000", "104856.048000", "104856.050000", "104856.066000", "104856.068000", "104856.071000", "104856.074000", "104856.076000", "104856.079000", "104856.081000", "104856.084000", "104856.087000", "104856.089000", "104936.027000", "104936.030000", "104936.032000", "104936.035000", "104936.037000", "104936.040000", "104936.043000", "104936.045000", "104936.048000", "104936.051000", "104936.053000", "104936.056000", "104936.058000", "104936.061000", "104936.064000", "104936.066000", "104936.069000", "104936.071000", "104936.074000", "104936.092000", "104952.403000", "104952.406000", "104952.408000", "104952.411000", "104952.414000", "104952.416000", "104952.419000", "104952.422000", "104952.425000"],
      "InstanceCreationTime": ["104356.032000", "104356.035000", "104356.038000", "104356.050000", "104356.052000", "104356.055000", "104356.057000", "104356.060000", "104356.062000", "104356.065000", "104356.068000", "104356.070000", "104356.073000", "104356.075000", "104356.078000", "104356.080000", "104356.083000", "104356.086000", "104356.088000", "104356.091000", "104356.093000", "104436.027000", "104436.030000", "104436.032000", "104436.035000", "104436.037000", "104436.040000", "104436.043000", "104436.045000", "104436.048000", "104436.050000", "104436.053000", "104436.056000", "104436.058000", "104436.061000", "104436.063000", "104436.066000", "104436.068000", "104436.071000", "104436.074000", "104436.076000", "104516.027000", "104516.029000", "104516.032000", "104516.035000", "104516.037000", "104516.040000", "104516.042000", "104516.045000", "104516.048000", "104516.050000", "104516.062000", "104516.064000", "104516.067000", "104516.069000", "104516.072000", "104516.074000", "104516.077000", "104516.080000", "104516.082000", "104516.085000", "104556.027000", "104556.030000", "104556.032000", "104556.035000", "104556.037000", "104556.040000", "104556.043000", "104556.046000", "104556.048000", "104556.051000", "104556.054000", "104556.056000", "104556.059000", "104556.062000", "104556.064000", "104556.067000", "104556.070000", "104556.072000", "104556.075000", "104556.077000", "104636.027000", "104636.030000", "104636.032000", "104636.035000", "104636.037000", "104636.040000", "104636.043000", "104636.051000", "104636.054000", "104636.056000", "104636.059000", "104636.062000", "104636.064000", "104636.067000", "104636.069000", "104636.072000", "104636.075000", "104636.077000", "104636.080000", "104636.082000", "104656.026000", "104656.029000", "104656.032000", "104656.034000", "104656.037000", "104656.040000", "104656.042000", "104656.045000", "104656.047000", "104656.050000", "104736.027000", "104736.029000", "104736.032000", "104736.035000", "104736.037000", "104736.040000", "104736.043000", "104736.045000", "104736.048000", "104736.050000", "104736.053000", "104736.056000", "104736.058000", "104736.061000", "104736.063000", "104736.066000", "104736.068000", "104736.071000", "104736.074000", "104736.076000", "104816.027000", "104816.029000", "104816.032000", "104816.035000", "104816.037000", "104816.040000", "104816.042000", "104816.045000", "104816.047000", "104816.050000", "104816.053000", "104816.055000", "104816.058000", "104816.060000", "104816.063000", "104816.066000", "104816.068000", "104816.071000", "104816.073000", "104816.076000", "104856.027000", "104856.029000", "104856.032000", "104856.035000", "104856.037000", "104856.040000", "104856.043000", "104856.045000", "104856.048000", "104856.050000", "104856.066000", "104856.068000", "104856.071000", "104856.074000", "104856.076000", "104856.079000", "104856.081000", "104856.084000", "104856.087000", "104856.089000", "104936.027000", "104936.030000", "104936.032000", "104936.035000", "104936.037000", "104936.040000", "104936.043000", "104936.045000", "104936.048000", "104936.051000", "104936.053000", "104936.056000", "104936.058000", "104936.061000", "104936.064000", "104936.066000", "104936.069000", "104936.071000", "104936.074000", "104936.092000", "104952.403000", "104952.406000", "104952.408000", "104952.411000", "104952.414000", "104952.416000", "104952.419000", "104952.422000", "104952.425000"],
      "InstanceNumber": [1, 2, 3, 4, 5, 6, 7, 8, 9, 10, 11, 12, 13, 14, 15, 16, 17, 18, 19, 20, 21, 22, 23, 24, 25, 26, 27, 28, 29, 30, 31, 32, 33, 34, 35, 36, 37, 38, 39, 40, 41, 42, 43, 44, 45, 46, 47, 48, 49, 50, 51, 52, 53, 54, 55, 56, 57, 58, 59, 60, 61, 62, 63, 64, 65, 66, 67, 68, 69, 70, 71, 72, 73, 74, 75, 76, 77, 78, 79, 80, 81, 82, 83, 84, 85, 86, 87, 88, 89, 90, 91, 92, 93, 94, 95, 96, 97, 98, 99, 100, 101, 102, 103, 104, 105, 106, 107, 108, 109, 110, 111, 112, 113, 114, 115, 116, 117, 118, 119, 120, 121, 122, 123, 124, 125, 126, 127, 128, 129, 130, 131, 132, 133, 134, 135, 136, 137, 138, 139, 140, 141, 142, 143, 144, 145, 146, 147, 148, 149, 150, 151, 152, 153, 154, 155, 156, 157, 158, 159, 160, 161, 162, 163, 164, 165, 166, 167, 168, 169, 170, 171, 172, 173, 174, 175, 176, 177, 178, 179, 180, 181, 182, 183, 184, 185, 186, 187, 188, 189, 190, 191, 192, 193, 194, 195, 196, 197, 198, 199, 200],
      "LargestImagePixelValue": [3668, 3657, 3659, 3648, 3669, 3657, 3659, 3662, 3646, 3662, 3653, 3659, 3669, 3668, 3654, 3655, 3662, 3671, 3649, 3659, 3666, 3651, 3659, 3656, 3650, 3648, 3664, 3668, 3663, 3658, 3664, 3656, 3663, 3660, 3644, 3655, 3658, 3652, 3659, 3647, 3652, 3648, 3652, 3659, 3653, 3671, 3663, 3662, 3669, 3647, 3646, 3649, 3655, 3652, 3651, 3645, 3665, 3649, 3646, 3661, 3652, 3660, 3662, 3652, 3650, 3656, 3665, 3653, 3649, 3644, 3656, 3651, 3656, 3666, 3658, 3661, 3652, 3660, 3651, 3654, 3659, 3660, 3666, 3660, 3645, 3651, 3665, 3658, 3660, 3663, 3661, 3652, 3646, 3655, 3654, 3646, 3651, 3659, 3657, 3657, 3656, 3655, 3656, 3657, 3651, 3653, 3659, 3649, 3649, 3641, 3649, 3651, 3656, 3648, 3652, 3653, 3655, 3648, 3648, 3648, 3655, 3647, 3666, 3660, 3643, 3661, 3642, 3649, 3658, 3655, 3653, 3651, 3654, 3645, 3654, 3643, 3649, 3659, 3661, 3644, 3651, 3652, 3658, 3653, 3653, 3651, 3649, 3647, 3654, 3657, 3656, 3649, 3652, 3637, 3646, 3653, 3657, 3647, 3646, 3640, 3645, 3649, 3657, 3653, 3657, 3649, 3656, 3651, 3657, 3647, 3655, 3653, 3649, 3638, 3643, 3653, 3644, 3650, 3643, 3646, 3649, 3663, 3650, 3651, 3647, 3638, 3646, 3639, 3646, 3657, 3648, 3649, 3647, 3642, 3646, 3640, 3656, 3645, 3645, 3649],
      "WindowCenter": [1407.0, 1407.0, 1406.0, 1407.0, 1407.0, 1406.0, 1406.0, 1406.0, 1406.0, 1406.0, 1405.0, 1406.0, 1406.0, 1406.0, 1405.0, 1405.0, 1405.0, 1405.0, 1406.0, 1405.0, 1406.0, 1405.0, 1406.0, 1406.0, 1405.0, 1405.0, 1405.0, 1405.0, 1405.0, 1405.0, 1405.0, 1405.0, 1405.0, 1405.0, 1405.0, 1405.0, 1405.0, 1404.0, 1405.0, 1405.0, 1405.0, 1405.0, 1405.0, 1405.0, 1405.0, 1404.0, 1405.0, 1405.0, 1405.0, 1405.0, 1404.0, 1405.0, 1405.0, 1404.0, 1405.0, 1404.0, 1404.0, 1404.0, 1404.0, 1404.0, 1405.0, 1404.0, 1403.0, 1404.0, 1403.0, 1404.0, 1404.0, 1404.0, 1404.0, 1404.0, 1403.0, 1404.0, 1403.0, 1403.0, 1403.0, 1403.0, 1403.0, 1403.0, 1404.0, 1403.0, 1404.0, 1403.0, 1403.0, 1403.0, 1403.0, 1403.0, 1403.0, 1403.0, 1403.0, 1403.0, 1403.0, 1403.0, 1403.0, 1402.0, 1402.0, 1403.0, 1402.0, 1402.0, 1402.0, 1402.0, 1402.0, 1402.0, 1402.0, 1402.0, 1401.0, 1402.0, 1402.0, 1402.0, 1402.0, 1402.0, 1402.0, 1403.0, 1402.0, 1402.0, 1402.0, 1402.0, 1402.0, 1401.0, 1402.0, 1402.0, 1401.0, 1401.0, 1401.0, 1402.0, 1402.0, 1402.0, 1402.0, 1402.0, 1401.0, 1402.0, 1401.0, 1401.0, 1401.0, 1402.0, 1402.0, 1402.0, 1402.0, 1401.0, 1402.0, 1401.0, 1401.0, 1401.0, 1401.0, 1400.0, 1400.0, 1401.0, 1401.0, 1401.0, 1401.0, 1401.0, 1400.0, 1401.0, 1401.0, 1401.0, 1401.0, 1400.0, 1400.0, 1401.0, 1401.0, 1401.0, 1400.0, 1401.0, 1400.0, 1400.0, 1399.0, 1401.0, 1401.0, 1400.0, 1401.0, 1400.0, 1400.0, 1400.0, 1400.0, 1400.0, 1400.0, 1400.0, 1400.0, 1400.0, 1401.0, 1400.0, 1401.0, 1400.0, 1400.0, 1400.0, 1400.0, 1400.0, 1400.0, 1400.0, 1400.0, 1399.0, 1400.0, 1400.0, 1399.0, 1400.0, 1400.0, 1399.0, 1399.0, 1400.0, 1399.0, 1399.0],
      "WindowWidth": [3268.0, 3266.0, 3266.0, 3266.0, 3266.0, 3265.0, 3266.0, 3265.0, 3265.0, 3265.0, 3265.0, 3265.0, 3265.0, 3265.0, 3265.0, 3265.0, 3265.0, 3265.0, 3264.0, 3264.0, 3264.0, 3264.0, 3264.0, 3264.0, 3264.0, 3264.0, 3264.0, 3264.0, 3264.0, 3264.0, 3264.0, 3264.0, 3264.0, 3264.0, 3263.0, 3264.0, 3263.0, 3264.0, 3263.0, 3263.0, 3263.0, 3263.0, 3263.0, 3263.0, 3263.0, 3263.0, 3263.0, 3263.0, 3263.0, 3262.0, 3263.0, 3262.0, 3262.0, 3262.0, 3262.0, 3262.0, 3262.0, 3262.0, 3262.0, 3262.0, 3262.0, 3262.0, 3262.0, 3262.0, 3262.0, 3262.0, 3262.0, 3262.0, 3261.0, 3261.0, 3261.0, 3261.0, 3262.0, 3261.0, 3261.0, 3261.0, 3261.0, 3261.0, 3261.0, 3261.0, 3261.0, 3261.0, 3261.0, 3261.0, 3261.0, 3261.0, 3261.0, 3261.0, 3261.0, 3261.0, 3260.0, 3260.0, 3260.0, 3260.0, 3260.0, 3260.0, 3260.0, 3260.0, 3260.0, 3260.0, 3260.0, 3260.0, 3260.0, 3260.0, 3260.0, 3260.0, 3260.0, 3260.0, 3260.0, 3260.0, 3260.0, 3259.0, 3259.0, 3260.0, 3260.0, 3259.0, 3259.0, 3259.0, 3260.0, 3259.0, 3259.0, 3259.0, 3259.0, 3259.0, 3259.0, 3259.0, 3259.0, 3259.0, 3259.0, 3259.0, 3259.0, 3259.0, 3259.0, 3258.0, 3258.0, 3258.0, 3258.0, 3259.0, 3258.0, 3258.0, 3259.0, 3258.0, 3259.0, 3258.0, 3258.0, 3258.0, 3258.0, 3258.0, 3258.0, 3258.0, 3258.0, 3257.0, 3258.0, 3257.0, 3257.0, 3258.0, 3258.0, 3257.0, 3257.0, 3257.0, 3258.0, 3257.0, 3258.0, 3258.0, 3258.0, 3257.0, 3257.0, 3258.0, 3257.0, 3257.0, 3257.0, 3257.0, 3257.0, 3257.0, 3257.0, 3257.0, 3257.0, 3257.0, 3257.0, 3257.0, 3257.0, 3257.0, 3257.0, 3257.0, 3257.0, 3257.0, 3256.0, 3257.0, 3256.0, 3257.0, 3256.0, 3256.0, 3257.0, 3256.0, 3256.0, 3257.0, 3257.0, 3256.0, 3257.0, 3256.0]
    },
    "slices": {}
  }
}