{
  "AcquisitionMatrixPE": 122,
  "AcquisitionNumber": 1,
  "AcquisitionTime": "09:43:11.495000",
  "BandwidthPerPixelPhaseEncode": 27.785,
  "BaseResolution": 122,
  "BodyPartExamined": "BRAIN",
  "CoilCombinationMethod": "Adaptive Combine",
  "ConsistencyInfo": "N4_VE11C_LATEST_20160120",
  "ConversionSoftware": "dcm2niix",
  "ConversionSoftwareVersion": "v1.0.20220720",
  "DerivedVendorReportedEchoSpacing": 0.000590011,
  "DeviceSerialNumber": "66112",
  "DiffusionScheme": "Monopolar",
  "DwellTime": 2e-06,
  "EchoTime": 0.068,
  "EchoTrainLength": 61,
  "EffectiveEchoSpacing": 0.000295005,
  "FlipAngle": 90,
  "HeudiconvVersion": "0.13.1",
  "ImageOrientationPatientDICOM": [0.989656, 0.14288, 0.0129036, -0.139792, 0.940218, 0.310561],
  "ImageOrientationText": "Tra>Cor(18.0)>Sag(-1.8)",
  "ImageType": [
    "ORIGINAL",
    "PRIMARY",
    "DIFFUSION",
    "NONE",
    "ND",
    "NORM"
],
  "ImagingFrequency": 123.252,
  "InPlanePhaseEncodingDirectionDICOM": "COL",
  "InstitutionAddress": "Maynard 3,Hanover,NH,US,03755",
  "InstitutionName": "Dartmouth College - PBS",
  "InstitutionalDepartmentName": "Department",
  "MRAcquisitionType": "2D",
  "MagneticFieldStrength": 3,
  "Manufacturer": "Siemens",
  "ManufacturersModelName": "Prisma",
  "Modality": "MR",
  "MultibandAccelerationFactor": 4,
  "NonlinearGradientCorrection": false,
  "ParallelReductionFactorInPlane": 2,
  "PartialFourier": 1,
  "PatientPosition": "HFS",
  "PercentPhaseFOV": 100,
  "PercentSampling": 100,
  "PhaseEncodingDirection": "j-",
  "PhaseEncodingSteps": 122,
  "PhaseResolution": 1,
  "PixelBandwidth": 2050,
  "ProcedureStepDescription": "dbic^QA",
  "ProtocolName": "dwi_acq-DTI-30-p2-s4",
  "PulseSequenceDetails": "%SiemensSeq%\\ep2d_diff",
  "ReceiveCoilActiveElements": "HEA;HEP",
  "ReceiveCoilName": "Head_32",
  "ReconMatrixPE": 122,
  "RefLinesPE": 38,
  "RepetitionTime": 3.6,
  "SAR": 0.160402,
  "ScanOptions": "FS",
  "ScanningSequence": "EP",
  "SequenceName": "*ep_b0",
  "SequenceVariant": "SK\\SP",
  "SeriesDescription": "dwi_acq-DTI-30-p2-s4",
  "SeriesNumber": 9,
  "ShimSetting": [4145, -7691, -7512, 318, -21, -155, -50, 57],
  "SliceThickness": 2,
  "SliceTiming": [2.58594, 0, 1.79688, 0.20312, 1.99219, 0.39844, 2.1875, 0.60156, 2.39062, 1, 2.78906, 1.19531, 2.98438, 1.39062, 3.1875, 1.59375, 3.38281, 0.79688, 2.58594, 0, 1.79688, 0.20312, 1.99219, 0.39844, 2.1875, 0.60156, 2.39062, 1, 2.78906, 1.19531, 2.98438, 1.39062, 3.1875, 1.59375, 3.38281, 0.79688, 2.58594, 0, 1.79688, 0.20312, 1.99219, 0.39844, 2.1875, 0.60156, 2.39062, 1, 2.78906, 1.19531, 2.98438, 1.39062, 3.1875, 1.59375, 3.38281, 0.79688, 2.58594, 0, 1.79688, 0.20312, 1.99219, 0.39844, 2.1875, 0.60156, 2.39062, 1, 2.78906, 1.19531, 2.98438, 1.39062, 3.1875, 1.59375, 3.38281, 0.79688],
  "SoftwareVersions": "syngo MR E11",
  "SpacingBetweenSlices": 2,
  "SpoilingState": true,
  "StationName": "AWP66112",
  "TotalReadoutTime": 0.0356956,
  "TxRefAmp": 229.479,
  "dcmmeta_affine": [
    [-1.946864128112793, -0.2749999761581421, -0.06448164582252502, 139.44503784179688],
    [-0.28107526898384094, 1.8496092557907104, 0.6183052062988281, -109.16664123535156],
    [0.02538410574197769, -0.6109405755996704, 1.9009323120117188, -30.991750717163086],
    [0.0, 0.0, 0.0, 1.0]
],
  "dcmmeta_reorient_transform": [
    [0.0, -1.0, 0.0, 121.0],
    [1.0, 0.0, 0.0, 0.0],
    [0.0, 0.0, -1.0, 71.0],
    [0.0, 0.0, 0.0, 1.0]
],
  "dcmmeta_shape": [122, 122, 72, 31],
  "dcmmeta_slice_dim": 2,
  "dcmmeta_version": 0.6,
  "global": {
    "const": {
      "AccessionNumber": "qa",
      "AcquisitionMatrix": [122, 0, 0, 122],
      "AngioFlag": "N",
      "BitsAllocated": 16,
      "BitsStored": 12,
      "BodyPartExamined": "BRAIN",
      "Columns": 122,
      "EchoNumbers": 1,
      "EchoTime": 68.0,
      "EchoTrainLength": 61,
      "FlipAngle": 90.0,
      "HighBit": 11,
      "ImageOrientationPatient": [0.98965591238316, 0.14287992347, 0.01290358687568, -0.1397916488891, 0.94021799452621, 0.31056145554461],
      "ImageType": [
        "ORIGINAL",
        "PRIMARY",
        "DIFFUSION",
        "NONE",
        "ND",
        "NORM"
],
      "ImagedNucleus": "1H",
      "ImagingFrequency": 123.252436,
      "InPlanePhaseEncodingDirection": "COL",
      "MRAcquisitionType": "2D",
      "MagneticFieldStrength": 3.0,
      "Manufacturer": "SIEMENS",
      "ManufacturerModelName": "Prisma",
      "Modality": "MR",
      "NumberOfAverages": 1.0,
      "NumberOfPhaseEncodingSteps": 122,
      "PercentPhaseFieldOfView": 100.0,
      "PercentSampling": 100.0,
      "PerformedProcedureStepStartTime": "091917.899000",
      "PhotometricInterpretation": "MONOCHROME2",
      "PixelBandwidth": 2050.0,
      "PixelRepresentation": 0,
      "PixelSpacing": [1.9672131538391, 1.9672131538391],
      "ProtocolName": "dwi_acq-DTI-30-p2-s4",
      "RepetitionTime": 3600.0,
      "Rows": 122,
      "SAR": 0.16040241364052,
      "SamplesPerPixel": 1,
      "ScanOptions": "FS",
      "ScanningSequence": "EP",
      "SequenceVariant": [
        "SK",
        "SP"
],
      "SeriesDescription": "dwi_acq-DTI-30-p2-s4",
      "SeriesNumber": 9,
      "SeriesTime": "094320.397000",
      "SliceThickness": 2.0,
      "SmallestImagePixelValue": 0,
      "SoftwareVersions": "syngo MR E11",
      "SpacingBetweenSlices": 2.0,
      "SpecificCharacterSet": "ISO_IR 100",
      "StudyID": "74",
      "StudyTime": "091917.809000",
      "TransmitCoilName": "Body",
      "VariableFlipAngleFlag": "N",
      "WindowCenterWidthExplanation": "Algo1",
      "dBdt": 0.0},
    "slices": {
      "AcquisitionTime": ["094311.495000", "094308.910000", "094310.700000", "094309.107500", "094310.897500", "094309.307500", "094311.097500", "094309.505000", "094311.295000", "094309.902500", "094311.692500", "094310.102500", "094311.892500", "094310.300000", "094312.090000", "094310.500000", "094312.290000", "094309.705000", "094311.495000", "094308.910000", "094310.700000", "094309.107500", "094310.897500", "094309.307500", "094311.097500", "094309.505000", "094311.295000", "094309.902500", "094311.692500", "094310.102500", "094311.892500", "094310.300000", "094312.090000", "094310.500000", "094312.290000", "094309.705000", "094311.495000", "094308.910000", "094310.700000", "094309.107500", "094310.897500", "094309.307500", "094311.097500", "094309.505000", "094311.295000", "094309.902500", "094311.692500", "094310.102500", "094311.892500", "094310.300000", "094312.090000", "094310.500000", "094312.290000", "094309.705000", "094311.495000", "094308.910000", "094310.700000", "094309.107500", "094310.897500", "094309.307500", "094311.097500", "094309.505000", "094311.295000", "094309.902500", "094311.692500", "094310.102500", "094311.892500", "094310.300000", "094312.090000", "094310.500000", "094312.290000", "094309.705000", "094315.095000", "094312.510000", "094314.300000", "094312.707500", "094314.497500", "094312.907500", "094314.697500", "094313.105000", "094314.895000", "094313.502500", "094315.292500", "094313.702500", "094315.492500", "094313.900000", "094315.690000", "094314.100000", "094315.890000", "094313.305000", "094315.095000", "094312.510000", "094314.300000", "094312.707500", "094314.497500", "094312.907500", "094314.697500", "094313.105000", "094314.895000", "094313.502500", "094315.292500", "094313.702500", "094315.492500", "094313.900000", "094315.690000", "094314.100000", "094315.890000", "094313.305000", "094315.095000", "094312.510000", "094314.300000", "094312.707500", "094314.497500", "094312.907500", "094314.697500", "094313.105000", "094314.895000", "094313.502500", "094315.292500", "094313.702500", "094315.492500", "094313.900000", "094315.690000", "094314.100000", "094315.890000", "094313.305000", "094315.095000", "094312.510000", "094314.300000", "094312.707500", "094314.497500", "094312.907500", "094314.697500", "094313.105000", "094314.895000", "094313.502500", "094315.292500", "094313.702500", "094315.492500", "094313.900000", "094315.690000", "094314.100000", "094315.890000", "094313.305000", "094318.695000", "094316.110000", "094317.900000", "094316.307500", "094318.097500", "094316.507500", "094318.297500", "094316.705000", "094318.495000", "094317.102500", "094318.892500", "094317.302500", "094319.092500", "094317.500000", "094319.290000", "094317.700000", "094319.490000", "094316.905000", "094318.695000", "094316.110000", "094317.900000", "094316.307500", "094318.097500", "094316.507500", "094318.297500", "094316.705000", "094318.495000", "094317.102500", "094318.892500", "094317.302500", "094319.092500", "094317.500000", "094319.290000", "094317.700000", "094319.490000", "094316.905000", "094318.695000", "094316.110000", "094317.900000", "094316.307500", "094318.097500", "094316.507500", "094318.297500", "094316.705000", "094318.495000", "094317.102500", "094318.892500", "094317.302500", "094319.092500", "094317.500000", "094319.290000", "094317.700000", "094319.490000", "094316.905000", "094318.695000", "094316.110000", "094317.900000", "094316.307500", "094318.097500", "094316.507500", "094318.297500", "094316.705000", "094318.495000", "094317.102500", "094318.892500", "094317.302500", "094319.092500", "094317.500000", "094319.290000", "094317.700000", "094319.490000", "094316.905000", "094322.295000", "094319.710000", "094321.500000", "094319.907500", "094321.697500", "094320.107500", "094321.897500", "094320.305000", "094322.095000", "094320.702500", "094322.492500", "094320.902500", "094322.692500", "094321.100000", "094322.890000", "094321.300000", "094323.090000", "094320.505000", "094322.295000", "094319.710000", "094321.500000", "094319.907500", "094321.697500", "094320.107500", "094321.897500", "094320.305000", "094322.095000", "094320.702500", "094322.492500", "094320.902500", "094322.692500", "094321.100000", "094322.890000", "094321.300000", "094323.090000", "094320.505000", "094322.295000", "094319.710000", "094321.500000", "094319.907500", "094321.697500", "094320.107500", "094321.897500", "094320.305000", "094322.095000", "094320.702500", "094322.492500", "094320.902500", "094322.692500", "094321.100000", "094322.890000", "094321.300000", "094323.090000", "094320.505000", "094322.295000", "094319.710000", "094321.500000", "094319.907500", "094321.697500", "094320.107500", "094321.897500", "094320.305000", "094322.095000", "094320.702500", "094322.492500", "094320.902500", "094322.692500", "094321.100000", "094322.890000", "094321.300000", "094323.090000", "094320.505000", "094325.895000", "094323.310000", "094325.100000", "094323.507500", "094325.297500", "094323.707500", "094325.497500", "094323.905000", "094325.695000", "094324.302500", "094326.092500", "094324.502500", "094326.292500", "094324.700000", "094326.490000", "094324.900000", "094326.690000", "094324.105000", "094325.895000", "094323.310000", "094325.100000", "094323.507500", "094325.297500", "094323.707500", "094325.497500", "094323.905000", "094325.695000", "094324.302500", "094326.092500", "094324.502500", "094326.292500", "094324.700000", "094326.490000", "094324.900000", "094326.690000", "094324.105000", "094325.895000", "094323.310000", "094325.100000", "094323.507500", "094325.297500", "094323.707500", "094325.497500", "094323.905000", "094325.695000", "094324.302500", "094326.092500", "094324.502500", "094326.292500", "094324.700000", "094326.490000", "094324.900000", "094326.690000", "094324.105000", "094325.895000", "094323.310000", "094325.100000", "094323.507500", "094325.297500", "094323.707500", "094325.497500", "094323.905000", "094325.695000", "094324.302500", "094326.092500", "094324.502500", "094326.292500", "094324.700000", "094326.490000", "094324.900000", "094326.690000", "094324.105000", "094329.495000", "094326.910000", "094328.700000", "094327.107500", "094328.897500", "094327.307500", "094329.097500", "094327.505000", "094329.295000", "094327.902500", "094329.692500", "094328.102500", "094329.892500", "094328.300000", "094330.090000", "094328.500000", "094330.290000", "094327.705000", "094329.495000", "094326.910000", "094328.700000", "094327.107500", "094328.897500", "094327.307500", "094329.097500", "094327.505000", "094329.295000", "094327.902500", "094329.692500", "094328.102500", "094329.892500", "094328.300000", "094330.090000", "094328.500000", "094330.290000", "094327.705000", "094329.495000", "094326.910000", "094328.700000", "094327.107500", "094328.897500", "094327.307500", "094329.097500", "094327.505000", "094329.295000", "094327.902500", "094329.692500", "094328.102500", "094329.892500", "094328.300000", "094330.090000", "094328.500000", "094330.290000", "094327.705000", "094329.495000", "094326.910000", "094328.700000", "094327.107500", "094328.897500", "094327.307500", "094329.097500", "094327.505000", "094329.295000", "094327.902500", "094329.692500", "094328.102500", "094329.892500", "094328.300000", "094330.090000", "094328.500000", "094330.290000", "094327.705000", "094333.095000", "094330.510000", "094332.300000", "094330.707500", "094332.497500", "094330.907500", "094332.697500", "094331.105000", "094332.895000", "094331.502500", "094333.292500", "094331.702500", "094333.492500", "094331.900000", "094333.690000", "094332.100000", "094333.890000", "094331.305000", "094333.095000", "094330.510000", "094332.300000", "094330.707500", "094332.497500", "094330.907500", "094332.697500", "094331.105000", "094332.895000", "094331.502500", "094333.292500", "094331.702500", "094333.492500", "094331.900000", "094333.690000", "094332.100000", "094333.890000", "094331.305000", "094333.095000", "094330.510000", "094332.300000", "094330.707500", "094332.497500", "094330.907500", "094332.697500", "094331.105000", "094332.895000", "094331.502500", "094333.292500", "094331.702500", "094333.492500", "094331.900000", "094333.690000", "094332.100000", "094333.890000", "094331.305000", "094333.095000", "094330.510000", "094332.300000", "094330.707500", "094332.497500", "094330.907500", "094332.697500", "094331.105000", "094332.895000", "094331.502500", "094333.292500", "094331.702500", "094333.492500", "094331.900000", "094333.690000", "094332.100000", "094333.890000", "094331.305000", "094336.695000", "094334.110000", "094335.900000", "094334.307500", "094336.097500", "094334.507500", "094336.297500", "094334.705000", "094336.495000", "094335.102500", "094336.892500", "094335.302500", "094337.092500", "094335.500000", "094337.290000", "094335.700000", "094337.490000", "094334.905000", "094336.695000", "094334.110000", "094335.900000", "094334.307500", "094336.097500", "094334.507500", "094336.297500", "094334.705000", "094336.495000", "094335.102500", "094336.892500", "094335.302500", "094337.092500", "094335.500000", "094337.290000", "094335.700000", "094337.490000", "094334.905000", "094336.695000", "094334.110000", "094335.900000", "094334.307500", "094336.097500", "094334.507500", "094336.297500", "094334.705000", "094336.495000", "094335.102500", "094336.892500", "094335.302500", "094337.092500", "094335.500000", "094337.290000", "094335.700000", "094337.490000", "094334.905000", "094336.695000", "094334.110000", "094335.900000", "094334.307500", "094336.097500", "094334.507500", "094336.297500", "094334.705000", "094336.495000", "094335.102500", "094336.892500", "094335.302500", "094337.092500", "094335.500000", "094337.290000", "094335.700000", "094337.490000", "094334.905000", "094340.295000", "094337.710000", "094339.500000", "094337.907500", "094339.697500", "094338.107500", "094339.897500", "094338.305000", "094340.095000", "094338.702500", "094340.492500", "094338.902500", "094340.692500", "094339.100000", "094340.890000", "094339.300000", "094341.090000", "094338.505000", "094340.295000", "094337.710000", "094339.500000", "094337.907500", "094339.697500", "094338.107500", "094339.897500", "094338.305000", "094340.095000", "094338.702500", "094340.492500", "094338.902500", "094340.692500", "094339.100000", "094340.890000", "094339.300000", "094341.090000", "094338.505000", "094340.295000", "094337.710000", "094339.500000", "094337.907500", "094339.697500", "094338.107500", "094339.897500", "094338.305000", "094340.095000", "094338.702500", "094340.492500", "094338.902500", "094340.692500", "094339.100000", "094340.890000", "094339.300000", "094341.090000", "094338.505000", "094340.295000", "094337.710000", "094339.500000", "094337.907500", "094339.697500", "094338.107500", "094339.897500", "094338.305000", "094340.095000", "094338.702500", "094340.492500", "094338.902500", "094340.692500", "094339.100000", "094340.890000", "094339.300000", "094341.090000", "094338.505000", "094343.895000", "094341.310000", "094343.100000", "094341.507500", "094343.297500", "094341.707500", "094343.497500", "094341.905000", "094343.695000", "094342.302500", "094344.092500", "094342.502500", "094344.292500", "094342.700000", "094344.490000", "094342.900000", "094344.690000", "094342.105000", "094343.895000", "094341.310000", "094343.100000", "094341.507500", "094343.297500", "094341.707500", "094343.497500", "094341.905000", "094343.695000", "094342.302500", "094344.092500", "094342.502500", "094344.292500", "094342.700000", "094344.490000", "094342.900000", "094344.690000", "094342.105000", "094343.895000", "094341.310000", "094343.100000", "094341.507500", "094343.297500", "094341.707500", "094343.497500", "094341.905000", "094343.695000", "094342.302500", "094344.092500", "094342.502500", "094344.292500", "094342.700000", "094344.490000", "094342.900000", "094344.690000", "094342.105000", "094343.895000", "094341.310000", "094343.100000", "094341.507500", "094343.297500", "094341.707500", "094343.497500", "094341.905000", "094343.695000", "094342.302500", "094344.092500", "094342.502500", "094344.292500", "094342.700000", "094344.490000", "094342.900000", "094344.690000", "094342.105000", "094347.495000", "094344.910000", "094346.700000", "094345.107500", "094346.897500", "094345.307500", "094347.097500", "094345.505000", "094347.295000", "094345.902500", "094347.692500", "094346.102500", "094347.892500", "094346.300000", "094348.090000", "094346.500000", "094348.290000", "094345.705000", "094347.495000", "094344.910000", "094346.700000", "094345.107500", "094346.897500", "094345.307500", "094347.097500", "094345.505000", "094347.295000", "094345.902500", "094347.692500", "094346.102500", "094347.892500", "094346.300000", "094348.090000", "094346.500000", "094348.290000", "094345.705000", "094347.495000", "094344.910000", "094346.700000", "094345.107500", "094346.897500", "094345.307500", "094347.097500", "094345.505000", "094347.295000", "094345.902500", "094347.692500", "094346.102500", "094347.892500", "094346.300000", "094348.090000", "094346.500000", "094348.290000", "094345.705000", "094347.495000", "094344.910000", "094346.700000", "094345.107500", "094346.897500", "094345.307500", "094347.097500", "094345.505000", "094347.295000", "094345.902500", "094347.692500", "094346.102500", "094347.892500", "094346.300000", "094348.090000", "094346.500000", "094348.290000", "094345.705000", "094351.095000", "094348.510000", "094350.300000", "094348.707500", "094350.497500", "094348.907500", "094350.697500", "094349.105000", "094350.895000", "094349.502500", "094351.292500", "094349.702500", "094351.492500", "094349.900000", "094351.690000", "094350.100000", "094351.890000", "094349.305000", "094351.095000", "094348.510000", "094350.300000", "094348.707500", "094350.497500", "094348.907500", "094350.697500", "094349.105000", "094350.895000", "094349.502500", "094351.292500", "094349.702500", "094351.492500", "094349.900000", "094351.690000", "094350.100000", "094351.890000", "094349.305000", "094351.095000", "094348.510000", "094350.300000", "094348.707500", "094350.497500", "094348.907500", "094350.697500", "094349.105000", "094350.895000", "094349.502500", "094351.292500", "094349.702500", "094351.492500", "094349.900000", "094351.690000", "094350.100000", "094351.890000", "094349.305000", "094351.095000", "094348.510000", "094350.300000", "094348.707500", "094350.497500", "094348.907500", "094350.697500", "094349.105000", "094350.895000", "094349.502500", "094351.292500", "094349.702500", "094351.492500", "094349.900000", "094351.690000", "094350.100000", "094351.890000", "094349.305000", "094354.695000", "094352.110000", "094353.900000", "094352.307500", "094354.097500", "094352.507500", "094354.297500", "094352.705000", "094354.495000", "094353.102500", "094354.892500", "094353.302500", "094355.092500", "094353.500000", "094355.290000", "094353.700000", "094355.490000", "094352.905000", "094354.695000", "094352.110000", "094353.900000", "094352.307500", "094354.097500", "094352.507500", "094354.297500", "094352.705000", "094354.495000", "094353.102500", "094354.892500", "094353.302500", "094355.092500", "094353.500000", "094355.290000", "094353.700000", "094355.490000", "094352.905000", "094354.695000", "094352.110000", "094353.900000", "094352.307500", "094354.097500", "094352.507500", "094354.297500", "094352.705000", "094354.495000", "094353.102500", "094354.892500", "094353.302500", "094355.092500", "094353.500000", "094355.290000", "094353.700000", "094355.490000", "094352.905000", "094354.695000", "094352.110000", "094353.900000", "094352.307500", "094354.097500", "094352.507500", "094354.297500", "094352.705000", "094354.495000", "094353.102500", "094354.892500", "094353.302500", "094355.092500", "094353.500000", "094355.290000", "094353.700000", "094355.490000", "094352.905000", "094358.295000", "094355.710000", "094357.500000", "094355.907500", "094357.697500", "094356.107500", "094357.897500", "094356.305000", "094358.095000", "094356.702500", "094358.492500", "094356.902500", "094358.692500", "094357.100000", "094358.890000", "094357.300000", "094359.090000", "094356.505000", "094358.295000", "094355.710000", "094357.500000", "094355.907500", "094357.697500", "094356.107500", "094357.897500", "094356.305000", "094358.095000", "094356.702500", "094358.492500", "094356.902500", "094358.692500", "094357.100000", "094358.890000", "094357.300000", "094359.090000", "094356.505000", "094358.295000", "094355.710000", "094357.500000", "094355.907500", "094357.697500", "094356.107500", "094357.897500", "094356.305000", "094358.095000", "094356.702500", "094358.492500", "094356.902500", "094358.692500", "094357.100000", "094358.890000", "094357.300000", "094359.090000", "094356.505000", "094358.295000", "094355.710000", "094357.500000", "094355.907500", "094357.697500", "094356.107500", "094357.897500", "094356.305000", "094358.095000", "094356.702500", "094358.492500", "094356.902500", "094358.692500", "094357.100000", "094358.890000", "094357.300000", "094359.090000", "094356.505000", "094401.895000", "094359.310000", "094401.100000", "094359.507500", "094401.297500", "094359.707500", "094401.497500", "094359.905000", "094401.695000", "094400.302500", "094402.092500", "094400.502500", "094402.292500", "094400.700000", "094402.490000", "094400.900000", "094402.690000", "094400.105000", "094401.895000", "094359.310000", "094401.100000", "094359.507500", "094401.297500", "094359.707500", "094401.497500", "094359.905000", "094401.695000", "094400.302500", "094402.092500", "094400.502500", "094402.292500", "094400.700000", "094402.490000", "094400.900000", "094402.690000", "094400.105000", "094401.895000", "094359.310000", "094401.100000", "094359.507500", "094401.297500", "094359.707500", "094401.497500", "094359.905000", "094401.695000", "094400.302500", "094402.092500", "094400.502500", "094402.292500", "094400.700000", "094402.490000", "094400.900000", "094402.690000", "094400.105000", "094401.895000", "094359.310000", "094401.100000", "094359.507500", "094401.297500", "094359.707500", "094401.497500", "094359.905000", "094401.695000", "094400.302500", "094402.092500", "094400.502500", "094402.292500", "094400.700000", "094402.490000", "094400.900000", "094402.690000", "094400.105000", "094405.495000", "094402.910000", "094404.700000", "094403.107500", "094404.897500", "094403.307500", "094405.097500", "094403.505000", "094405.295000", "094403.902500", "094405.692500", "094404.102500", "094405.892500", "094404.300000", "094406.090000", "094404.500000", "094406.290000", "094403.705000", "094405.495000", "094402.910000", "094404.700000", "094403.107500", "094404.897500", "094403.307500", "094405.097500", "094403.505000", "094405.295000", "094403.902500", "094405.692500", "094404.102500", "094405.892500", "094404.300000", "094406.090000", "094404.500000", "094406.290000", "094403.705000", "094405.495000", "094402.910000", "094404.700000", "094403.107500", "094404.897500", "094403.307500", "094405.097500", "094403.505000", "094405.295000", "094403.902500", "094405.692500", "094404.102500", "094405.892500", "094404.300000", "094406.090000", "094404.500000", "094406.290000", "094403.705000", "094405.495000", "094402.910000", "094404.700000", "094403.107500", "094404.897500", "094403.307500", "094405.097500", "094403.505000", "094405.295000", "094403.902500", "094405.692500", "094404.102500", "094405.892500", "094404.300000", "094406.090000", "094404.500000", "094406.290000", "094403.705000", "094409.095000", "094406.510000", "094408.300000", "094406.707500", "094408.497500", "094406.907500", "094408.697500", "094407.105000", "094408.895000", "094407.502500", "094409.292500", "094407.702500", "094409.492500", "094407.900000", "094409.690000", "094408.100000", "094409.890000", "094407.305000", "094409.095000", "094406.510000", "094408.300000", "094406.707500", "094408.497500", "094406.907500", "094408.697500", "094407.105000", "094408.895000", "094407.502500", "094409.292500", "094407.702500", "094409.492500", "094407.900000", "094409.690000", "094408.100000", "094409.890000", "094407.305000", "094409.095000", "094406.510000", "094408.300000", "094406.707500", "094408.497500", "094406.907500", "094408.697500", "094407.105000", "094408.895000", "094407.502500", "094409.292500", "094407.702500", "094409.492500", "094407.900000", "094409.690000", "094408.100000", "094409.890000", "094407.305000", "094409.095000", "094406.510000", "094408.300000", "094406.707500", "094408.497500", "094406.907500", "094408.697500", "094407.105000", "094408.895000", "094407.502500", "094409.292500", "094407.702500", "094409.492500", "094407.900000", "094409.690000", "094408.100000", "094409.890000", "094407.305000", "094412.695000", "094410.110000", "094411.900000", "094410.307500", "094412.097500", "094410.507500", "094412.297500", "094410.705000", "094412.495000", "094411.102500", "094412.892500", "094411.302500", "094413.092500", "094411.500000", "094413.290000", "094411.700000", "094413.490000", "094410.905000", "094412.695000", "094410.110000", "094411.900000", "094410.307500", "094412.097500", "094410.507500", "094412.297500", "094410.705000", "094412.495000", "094411.102500", "094412.892500", "094411.302500", "094413.092500", "094411.500000", "094413.290000", "094411.700000", "094413.490000", "094410.905000", "094412.695000", "094410.110000", "094411.900000", "094410.307500", "094412.097500", "094410.507500", "094412.297500", "094410.705000", "094412.495000", "094411.102500", "094412.892500", "094411.302500", "094413.092500", "094411.500000", "094413.290000", "094411.700000", "094413.490000", "094410.905000", "094412.695000", "094410.110000", "094411.900000", "094410.307500", "094412.097500", "094410.507500", "094412.297500", "094410.705000", "094412.495000", "094411.102500", "094412.892500", "094411.302500", "094413.092500", "094411.500000", "094413.290000", "094411.700000", "094413.490000", "094410.905000", "094416.295000", "094413.710000", "094415.500000", "094413.907500", "094415.697500", "094414.107500", "094415.897500", "094414.305000", "094416.095000", "094414.702500", "094416.492500", "094414.902500", "094416.692500", "094415.100000", "094416.890000", "094415.300000", "094417.090000", "094414.505000", "094416.295000", "094413.710000", "094415.500000", "094413.907500", "094415.697500", "094414.107500", "094415.897500", "094414.305000", "094416.095000", "094414.702500", "094416.492500", "094414.902500", "094416.692500", "094415.100000", "094416.890000", "094415.300000", "094417.090000", "094414.505000", "094416.295000", "094413.710000", "094415.500000", "094413.907500", "094415.697500", "094414.107500", "094415.897500", "094414.305000", "094416.095000", "094414.702500", "094416.492500", "094414.902500", "094416.692500", "094415.100000", "094416.890000", "094415.300000", "094417.090000", "094414.505000", "094416.295000", "094413.710000", "094415.500000", "094413.907500", "094415.697500", "094414.107500", "094415.897500", "094414.305000", "094416.095000", "094414.702500", "094416.492500", "094414.902500", "094416.692500", "094415.100000", "094416.890000", "094415.300000", "094417.090000", "094414.505000", "094419.895000", "094417.310000", "094419.100000", "094417.507500", "094419.297500", "094417.707500", "094419.497500", "094417.905000", "094419.695000", "094418.302500", "094420.092500", "094418.502500", "094420.292500", "094418.700000", "094420.490000", "094418.900000", "094420.690000", "094418.105000", "094419.895000", "094417.310000", "094419.100000", "094417.507500", "094419.297500", "094417.707500", "094419.497500", "094417.905000", "094419.695000", "094418.302500", "094420.092500", "094418.502500", "094420.292500", "094418.700000", "094420.490000", "094418.900000", "094420.690000", "094418.105000", "094419.895000", "094417.310000", "094419.100000", "094417.507500", "094419.297500", "094417.707500", "094419.497500", "094417.905000", "094419.695000", "094418.302500", "094420.092500", "094418.502500", "094420.292500", "094418.700000", "094420.490000", "094418.900000", "094420.690000", "094418.105000", "094419.895000", "094417.310000", "094419.100000", "094417.507500", "094419.297500", "094417.707500", "094419.497500", "094417.905000", "094419.695000", "094418.302500", "094420.092500", "094418.502500", "094420.292500",