{
  "AcquisitionMatrixPE": 122,
  "AcquisitionNumber": 1,
  "AcquisitionTime": "09:38:50.072500",
  "BandwidthPerPixelPhaseEncode": 28.76,
  "BaseResolution": 122,
  "BodyPartExamined": "BRAIN",
  "CoilCombinationMethod": "Adaptive Combine",
  "ConsistencyInfo": "N4_VE11C_LATEST_20160120",
  "ConversionSoftware": "dcm2niix",
  "ConversionSoftwareVersion": "v1.0.20220720",
  "DerivedVendorReportedEchoSpacing": 0.000570008,
  "DeviceSerialNumber": "66112",
  "DiffusionScheme": "Monopolar",
  "DwellTime": 2e-06,
  "EchoTime": 0.075,
  "EchoTrainLength": 61,
  "EffectiveEchoSpacing": 0.000285004,
  "FlipAngle": 90,
  "HeudiconvVersion": "0.13.1",
  "ImageOrientationPatientDICOM": [0.989656, 0.14288, 0.0129036, -0.139792, 0.940218, 0.310561],
  "ImageOrientationText": "Tra>Cor(18.0)>Sag(-1.8)",
  "ImageType": [
    "ORIGINAL",
    "PRIMARY",
    "DIFFUSION",
    "NONE",
    "ND",
    "NORM"
],
  "ImagingFrequency": 123.252,
  "InPlanePhaseEncodingDirectionDICOM": "COL",
  "InstitutionAddress": "Maynard 3,Hanover,NH,US,03755",
  "InstitutionName": "Dartmouth College - PBS",
  "InstitutionalDepartmentName": "Department",
  "MRAcquisitionType": "2D",
  "MagneticFieldStrength": 3,
  "Manufacturer": "Siemens",
  "ManufacturersModelName": "Prisma",
  "MatrixCoilMode": "GRAPPA",
  "Modality": "MR",
  "NonlinearGradientCorrection": false,
  "ParallelReductionFactorInPlane": 2,
  "PartialFourier": 1,
  "PatientPosition": "HFS",
  "PercentPhaseFOV": 100,
  "PercentSampling": 100,
  "PhaseEncodingDirection": "j-",
  "PhaseEncodingSteps": 122,
  "PhaseResolution": 1,
  "PixelBandwidth": 2050,
  "ProcedureStepDescription": "dbic^QA",
  "ProtocolName": "dwi_acq-DTI-30-p2",
  "PulseSequenceDetails": "%SiemensSeq%\\ep2d_diff",
  "ReceiveCoilActiveElements": "HEA;HEP",
  "ReceiveCoilName": "Head_32",
  "ReconMatrixPE": 122,
  "RefLinesPE": 38,
  "RepetitionTime": 7.7,
  "SAR": 0.101399,
  "ScanOptions": "FS",
  "ScanningSequence": "EP",
  "SequenceName": "*ep_b0",
  "SequenceVariant": "SK\\SP",
  "SeriesDescription": "dwi_acq-DTI-30-p2",
  "SeriesNumber": 8,
  "ShimSetting": [4145, -7692, -7512, 317, -20, -153, -50, 57],
  "SliceThickness": 2,
  "SliceTiming": [3.83594, 0, 3.94531, 0.10938, 4.05469, 0.21875, 4.17188, 0.32812, 4.28125, 0.4375, 4.38281, 0.54688, 4.49219, 0.65625, 4.60938, 0.76562, 4.71875, 0.875, 4.82812, 0.98438, 4.9375, 1.09375, 5.04688, 1.20312, 5.15625, 1.3125, 5.26562, 1.42188, 5.375, 1.53125, 5.48438, 1.64062, 5.59375, 1.75, 5.70312, 1.85938, 5.8125, 1.97656, 5.92188, 2.08594, 6.03125, 2.19531, 6.14062, 2.30469, 6.25, 2.41406, 6.35938, 2.52344, 6.46875, 2.63281, 6.57812, 2.74219, 6.6875, 2.85156, 6.79688, 2.96094, 6.91406, 3.07031, 7.02344, 3.17969, 7.13281, 3.28906, 7.23438, 3.39844, 7.35156, 3.50781, 7.46094, 3.61719, 7.57031, 3.72656],
  "SoftwareVersions": "syngo MR E11",
  "SpacingBetweenSlices": 2,
  "SpoilingState": true,
  "StationName": "AWP66112",
  "TotalReadoutTime": 0.0344855,
  "TxRefAmp": 229.479,
  "dcmmeta_affine": [
    [-1.946864128112793, -0.2749999761581421, -0.06448164582252502, 139.3805694580078],
    [-0.28107526898384094, 1.8496092557907104, 0.6183052062988281, -108.54833221435547],
    [0.02538410574197769, -0.6109405755996704, 1.9009323120117188, -29.090818405151367],
    [0.0, 0.0, 0.0, 1.0]
],
  "dcmmeta_reorient_transform": [
    [0.0, -1.0, 0.0, 121.0],
    [1.0, 0.0, 0.0, 0.0],
    [0.0, 0.0, -1.0, 69.0],
    [0.0, 0.0, 0.0, 1.0]
],
  "dcmmeta_shape": [122, 122, 70, 31],
  "dcmmeta_slice_dim": 2,
  "dcmmeta_version": 0.6,
  "global": {
    "const": {
      "AccessionNumber": "qa",
      "AcquisitionMatrix": [122, 0, 0, 122],
      "AngioFlag": "N",
      "BitsAllocated": 16,
      "BitsStored": 12,
      "BodyPartExamined": "BRAIN",
      "Columns": 122,
      "EchoNumbers": 1,
      "EchoTime": 75.0,
      "EchoTrainLength": 61,
      "FlipAngle": 90.0,
      "HighBit": 11,
      "ImageOrientationPatient": [0.98965591238316, 0.14287992347, 0.01290358687568, -0.1397916488891, 0.94021799452621, 0.31056145554461],
      "ImageType": [
        "ORIGINAL",
        "PRIMARY",
        "DIFFUSION",
        "NONE",
        "ND",
        "NORM"
],
      "ImagedNucleus": "1H",
      "ImagingFrequency": 123.252434,
      "InPlanePhaseEncodingDirection": "COL",
      "MRAcquisitionType": "2D",
      "MagneticFieldStrength": 3.0,
      "Manufacturer": "SIEMENS",
      "ManufacturerModelName": "Prisma",
      "Modality": "MR",
      "NumberOfAverages": 1.0,
      "NumberOfPhaseEncodingSteps": 122,
      "PercentPhaseFieldOfView": 100.0,
      "PercentSampling": 100.0,
      "PerformedProcedureStepStartTime": "091917.899000",
      "PhotometricInterpretation": "MONOCHROME2",
      "PixelBandwidth": 2050.0,
      "PixelRepresentation": 0,
      "PixelSpacing": [1.9672131538391, 1.9672131538391],
      "ProtocolName": "dwi_acq-DTI-30-p2",
      "RepetitionTime": 7700.0,
      "Rows": 122,
      "SAR": 0.10139878522871,
      "SamplesPerPixel": 1,
      "ScanOptions": "FS",
      "ScanningSequence": "EP",
      "SequenceVariant": [
        "SK",
        "SP"
],
      "SeriesDescription": "dwi_acq-DTI-30-p2",
      "SeriesNumber": 8,
      "SeriesTime": "093900.919000",
      "SliceThickness": 2.0,
      "SmallestImagePixelValue": 0,
      "SoftwareVersions": "syngo MR E11",
      "SpacingBetweenSlices": 2.0,
      "SpecificCharacterSet": "ISO_IR 100",
      "StudyID": "74",
      "StudyTime": "091917.809000",
      "TransmitCoilName": "Body",
      "VariableFlipAngleFlag": "N",
      "WindowCenterWidthExplanation": "Algo1",
      "dBdt": 0.0},
    "slices": {
      "AcquisitionTime": ["093850.072500", "093846.232500", "093850.182500", "093846.342500", "093850.292500", "093846.452500", "093850.402500", "093846.562500", "093850.512500", "093846.672500", "093850.620000", "093846.782500", "093850.730000", "093846.890000", "093850.840000", "093847.000000", "093850.950000", "093847.110000", "093851.060000", "093847.220000", "093851.170000", "093847.330000", "093851.280000", "093847.440000", "093851.390000", "093847.550000", "093851.500000", "093847.660000", "093851.607500", "093847.767500", "093851.717500", "093847.877500", "093851.827500", "093847.987500", "093851.937500", "093848.097500", "093852.047500", "093848.207500", "093852.157500", "093848.317500", "093852.267500", "093848.427500", "093852.377500", "093848.537500", "093852.487500", "093848.647500", "093852.595000", "093848.755000", "093852.705000", "093848.865000", "093852.815000", "093848.975000", "093852.925000", "093849.085000", "093853.035000", "093849.195000", "093853.145000", "093849.305000", "093853.255000", "093849.415000", "093853.365000", "093849.525000", "093853.472500", "093849.635000", "093853.582500", "093849.742500", "093853.692500", "093849.852500", "093853.802500", "093849.962500", "093857.772500", "093853.932500", "093857.882500", "093854.042500", "093857.992500", "093854.152500", "093858.102500", "093854.262500", "093858.212500", "093854.372500", "093858.320000", "093854.482500", "093858.430000", "093854.590000", "093858.540000", "093854.700000", "093858.650000", "093854.810000", "093858.760000", "093854.920000", "093858.870000", "093855.030000", "093858.980000", "093855.140000", "093859.090000", "093855.250000", "093859.200000", "093855.360000", "093859.307500", "093855.467500", "093859.417500", "093855.577500", "093859.527500", "093855.687500", "093859.637500", "093855.797500", "093859.747500", "093855.907500", "093859.857500", "093856.017500", "093859.967500", "093856.127500", "093900.077500", "093856.237500", "093900.187500", "093856.347500", "093900.295000", "093856.455000", "093900.405000", "093856.565000", "093900.515000", "093856.675000", "093900.625000", "093856.785000", "093900.735000", "093856.895000", "093900.845000", "093857.005000", "093900.955000", "093857.115000", "093901.065000", "093857.225000", "093901.172500", "093857.335000", "093901.282500", "093857.442500", "093901.392500", "093857.552500", "093901.502500", "093857.662500", "093905.472500", "093901.632500", "093905.582500", "093901.742500", "093905.692500", "093901.852500", "093905.802500", "093901.962500", "093905.912500", "093902.072500", "093906.020000", "093902.182500", "093906.130000", "093902.290000", "093906.240000", "093902.400000", "093906.350000", "093902.510000", "093906.460000", "093902.620000", "093906.570000", "093902.730000", "093906.680000", "093902.840000", "093906.790000", "093902.950000", "093906.900000", "093903.060000", "093907.007500", "093903.167500", "093907.117500", "093903.277500", "093907.227500", "093903.387500", "093907.337500", "093903.497500", "093907.447500", "093903.607500", "093907.557500", "093903.717500", "093907.667500", "093903.827500", "093907.777500", "093903.937500", "093907.887500", "093904.047500", "093907.995000", "093904.155000", "093908.105000", "093904.265000", "093908.215000", "093904.375000", "093908.325000", "093904.485000", "093908.435000", "093904.595000", "093908.545000", "093904.705000", "093908.655000", "093904.815000", "093908.765000", "093904.925000", "093908.872500", "093905.035000", "093908.982500", "093905.142500", "093909.092500", "093905.252500", "093909.202500", "093905.362500", "093913.172500", "093909.332500", "093913.282500", "093909.442500", "093913.392500", "093909.552500", "093913.502500", "093909.662500", "093913.612500", "093909.772500", "093913.720000", "093909.882500", "093913.830000", "093909.990000", "093913.940000", "093910.100000", "093914.050000", "093910.210000", "093914.160000", "093910.320000", "093914.270000", "093910.430000", "093914.380000", "093910.540000", "093914.490000", "093910.650000", "093914.600000", "093910.760000", "093914.707500", "093910.867500", "093914.817500", "093910.977500", "093914.927500", "093911.087500", "093915.037500", "093911.197500", "093915.147500", "093911.307500", "093915.257500", "093911.417500", "093915.367500", "093911.527500", "093915.477500", "093911.637500", "093915.587500", "093911.747500", "093915.695000", "093911.855000", "093915.805000", "093911.965000", "093915.915000", "093912.075000", "093916.025000", "093912.185000", "093916.135000", "093912.295000", "093916.245000", "093912.405000", "093916.355000", "093912.515000", "093916.465000", "093912.625000", "093916.572500", "093912.735000", "093916.682500", "093912.842500", "093916.792500", "093912.952500", "093916.902500", "093913.062500", "093920.872500", "093917.032500", "093920.982500", "093917.142500", "093921.092500", "093917.252500", "093921.202500", "093917.362500", "093921.312500", "093917.472500", "093921.420000", "093917.582500", "093921.530000", "093917.690000", "093921.640000", "093917.800000", "093921.750000", "093917.910000", "093921.860000", "093918.020000", "093921.970000", "093918.130000", "093922.080000", "093918.240000", "093922.190000", "093918.350000", "093922.300000", "093918.460000", "093922.407500", "093918.567500", "093922.517500", "093918.677500", "093922.627500", "093918.787500", "093922.737500", "093918.897500", "093922.847500", "093919.007500", "093922.957500", "093919.117500", "093923.067500", "093919.227500", "093923.177500", "093919.337500", "093923.287500", "093919.447500", "093923.395000", "093919.555000", "093923.505000", "093919.665000", "093923.615000", "093919.775000", "093923.725000", "093919.885000", "093923.835000", "093919.995000", "093923.945000", "093920.105000", "093924.055000", "093920.215000", "093924.165000", "093920.325000", "093924.272500", "093920.435000", "093924.382500", "093920.542500", "093924.492500", "093920.652500", "093924.602500", "093920.762500", "093928.572500", "093924.732500", "093928.682500", "093924.842500", "093928.792500", "093924.952500", "093928.902500", "093925.062500", "093929.012500", "093925.172500", "093929.120000", "093925.282500", "093929.230000", "093925.390000", "093929.340000", "093925.500000", "093929.450000", "093925.610000", "093929.560000", "093925.720000", "093929.670000", "093925.830000", "093929.780000", "093925.940000", "093929.890000", "093926.050000", "093930.000000", "093926.160000", "093930.107500", "093926.267500", "093930.217500", "093926.377500", "093930.327500", "093926.487500", "093930.437500", "093926.597500", "093930.547500", "093926.707500", "093930.657500", "093926.817500", "093930.767500", "093926.927500", "093930.877500", "093927.037500", "093930.987500", "093927.147500", "093931.095000", "093927.255000", "093931.205000", "093927.365000", "093931.315000", "093927.475000", "093931.425000", "093927.585000", "093931.535000", "093927.695000", "093931.645000", "093927.805000", "093931.755000", "093927.915000", "093931.865000", "093928.025000", "093931.972500", "093928.135000", "093932.082500", "093928.242500", "093932.192500", "093928.352500", "093932.302500", "093928.462500", "093936.272500", "093932.432500", "093936.382500", "093932.542500", "093936.492500", "093932.652500", "093936.602500", "093932.762500", "093936.712500", "093932.872500", "093936.820000", "093932.982500", "093936.930000", "093933.090000", "093937.040000", "093933.200000", "093937.150000", "093933.310000", "093937.260000", "093933.420000", "093937.370000", "093933.530000", "093937.480000", "093933.640000", "093937.590000", "093933.750000", "093937.700000", "093933.860000", "093937.807500", "093933.967500", "093937.917500", "093934.077500", "093938.027500", "093934.187500", "093938.137500", "093934.297500", "093938.247500", "093934.407500", "093938.357500", "093934.517500", "093938.467500", "093934.627500", "093938.577500", "093934.737500", "093938.687500", "093934.847500", "093938.795000", "093934.955000", "093938.905000", "093935.065000", "093939.015000", "093935.175000", "093939.125000", "093935.285000", "093939.235000", "093935.395000", "093939.345000", "093935.505000", "093939.455000", "093935.615000", "093939.565000", "093935.725000", "093939.672500", "093935.835000", "093939.782500", "093935.942500", "093939.892500", "093936.052500", "093940.002500", "093936.162500", "093943.972500", "093940.132500", "093944.082500", "093940.242500", "093944.192500", "093940.352500", "093944.302500", "093940.462500", "093944.412500", "093940.572500", "093944.520000", "093940.682500", "093944.630000", "093940.790000", "093944.740000", "093940.900000", "093944.850000", "093941.010000", "093944.960000", "093941.120000", "093945.070000", "093941.230000", "093945.180000", "093941.340000", "093945.290000", "093941.450000", "093945.400000", "093941.560000", "093945.507500", "093941.667500", "093945.617500", "093941.777500", "093945.727500", "093941.887500", "093945.837500", "093941.997500", "093945.947500", "093942.107500", "093946.057500", "093942.217500", "093946.167500", "093942.327500", "093946.277500", "093942.437500", "093946.387500", "093942.547500", "093946.495000", "093942.655000", "093946.605000", "093942.765000", "093946.715000", "093942.875000", "093946.825000", "093942.985000", "093946.935000", "093943.095000", "093947.045000", "093943.205000", "093947.155000", "093943.315000", "093947.265000", "093943.425000", "093947.372500", "093943.535000", "093947.482500", "093943.642500", "093947.592500", "093943.752500", "093947.702500", "093943.862500", "093951.672500", "093947.832500", "093951.782500", "093947.942500", "093951.892500", "093948.052500", "093952.002500", "093948.162500", "093952.112500", "093948.272500", "093952.220000", "093948.382500", "093952.330000", "093948.490000", "093952.440000", "093948.600000", "093952.550000", "093948.710000", "093952.660000", "093948.820000", "093952.770000", "093948.930000", "093952.880000", "093949.040000", "093952.990000", "093949.150000", "093953.100000", "093949.260000", "093953.207500", "093949.367500", "093953.317500", "093949.477500", "093953.427500", "093949.587500", "093953.537500", "093949.697500", "093953.647500", "093949.807500", "093953.757500", "093949.917500", "093953.867500", "093950.027500", "093953.977500", "093950.137500", "093954.087500", "093950.247500", "093954.195000", "093950.355000", "093954.305000", "093950.465000", "093954.415000", "093950.575000", "093954.525000", "093950.685000", "093954.635000", "093950.795000", "093954.745000", "093950.905000", "093954.855000", "093951.015000", "093954.965000", "093951.125000", "093955.072500", "093951.235000", "093955.182500", "093951.342500", "093955.292500", "093951.452500", "093955.402500", "093951.562500", "093959.372500", "093955.532500", "093959.482500", "093955.642500", "093959.592500", "093955.752500", "093959.702500", "093955.862500", "093959.812500", "093955.972500", "093959.920000", "093956.082500", "094000.030000", "093956.190000", "094000.140000", "093956.300000", "094000.250000", "093956.410000", "094000.360000", "093956.520000", "094000.470000", "093956.630000", "094000.580000", "093956.740000", "094000.690000", "093956.850000", "094000.800000", "093956.960000", "094000.907500", "093957.067500", "094001.017500", "093957.177500", "094001.127500", "093957.287500", "094001.237500", "093957.397500", "094001.347500", "093957.507500", "094001.457500", "093957.617500", "094001.567500", "093957.727500", "094001.677500", "093957.837500", "094001.787500", "093957.947500", "094001.895000", "093958.055000", "094002.005000", "093958.165000", "094002.115000", "093958.275000", "094002.225000", "093958.385000", "094002.335000", "093958.495000", "094002.445000", "093958.605000", "094002.555000", "093958.715000", "094002.665000", "093958.825000", "094002.772500", "093958.935000", "094002.882500", "093959.042500", "094002.992500", "093959.152500", "094003.102500", "093959.262500", "094007.072500", "094003.232500", "094007.182500", "094003.342500", "094007.292500", "094003.452500", "094007.402500", "094003.562500", "094007.512500", "094003.672500", "094007.620000", "094003.782500", "094007.730000", "094003.890000", "094007.840000", "094004.000000", "094007.950000", "094004.110000", "094008.060000", "094004.220000", "094008.170000", "094004.330000", "094008.280000", "094004.440000", "094008.390000", "094004.550000", "094008.500000", "094004.660000", "094008.607500", "094004.767500", "094008.717500", "094004.877500", "094008.827500", "094004.987500", "094008.937500", "094005.097500", "094009.047500", "094005.207500", "094009.157500", "094005.317500", "094009.267500", "094005.427500", "094009.377500", "094005.537500", "094009.487500", "094005.647500", "094009.595000", "094005.755000", "094009.705000", "094005.865000", "094009.815000", "094005.975000", "094009.925000", "094006.085000", "094010.035000", "094006.195000", "094010.145000", "094006.305000", "094010.255000", "094006.415000", "094010.365000", "094006.525000", "094010.472500", "094006.635000", "094010.582500", "094006.742500", "094010.692500", "094006.852500", "094010.802500", "094006.962500", "094014.772500", "094010.932500", "094014.882500", "094011.042500", "094014.992500", "094011.152500", "094015.102500", "094011.262500", "094015.212500", "094011.372500", "094015.320000", "094011.482500", "094015.430000", "094011.590000", "094015.540000", "094011.700000", "094015.650000", "094011.810000", "094015.760000", "094011.920000", "094015.870000", "094012.030000", "094015.980000", "094012.140000", "094016.090000", "094012.250000", "094016.200000", "094012.360000", "094016.307500", "094012.467500", "094016.417500", "094012.577500", "094016.527500", "094012.687500", "094016.637500", "094012.797500", "094016.747500", "094012.907500", "094016.857500", "094013.017500", "094016.967500", "094013.127500", "094017.077500", "094013.237500", "094017.187500", "094013.347500", "094017.295000", "094013.455000", "094017.405000", "094013.565000", "094017.515000", "094013.675000", "094017.625000", "094013.785000", "094017.735000", "094013.895000", "094017.845000", "094014.005000", "094017.955000", "094014.115000", "094018.065000", "094014.225000", "094018.172500", "094014.335000", "094018.282500", "094014.442500", "094018.392500", "094014.552500", "094018.502500", "094014.662500", "094022.472500", "094018.632500", "094022.582500", "094018.742500", "094022.692500", "094018.852500", "094022.802500", "094018.962500", "094022.912500", "094019.072500", "094023.020000", "094019.182500", "094023.130000", "094019.290000", "094023.240000", "094019.400000", "094023.350000", "094019.510000", "094023.460000", "094019.620000", "094023.570000", "094019.730000", "094023.680000", "094019.840000", "094023.790000", "094019.950000", "094023.900000", "094020.060000", "094024.007500", "094020.167500", "094024.117500", "094020.277500", "094024.227500", "094020.387500", "094024.337500", "094020.497500", "094024.447500", "094020.607500", "094024.557500", "094020.717500", "094024.667500", "094020.827500", "094024.777500", "094020.937500", "094024.887500", "094021.047500", "094024.995000", "094021.155000", "094025.105000", "094021.265000", "094025.215000", "094021.375000", "094025.325000", "094021.485000", "094025.435000", "094021.595000", "094025.545000", "094021.705000", "094025.655000", "094021.815000", "094025.765000", "094021.925000", "094025.872500", "094022.035000", "094025.982500", "094022.142500", "094026.092500", "094022.252500", "094026.202500", "094022.362500", "094030.172500", "094026.332500", "094030.282500", "094026.442500", "094030.392500", "094026.552500", "094030.502500", "094026.662500", "094030.612500", "094026.772500", "094030.720000", "094026.882500", "094030.830000", "094026.990000", "094030.940000", "094027.100000", "094031.050000", "094027.210000", "094031.160000", "094027.320000", "094031.270000", "094027.430000", "094031.380000", "094027.540000", "094031.490000", "094027.650000", "094031.600000", "094027.760000", "094031.707500", "094027.867500", "094031.817500", "094027.977500", "094031.927500", "094028.087500", "094032.037500", "094028.197500", "094032.147500", "094028.307500", "094032.257500", "094028.417500", "094032.367500", "094028.527500", "094032.477500", "094028.637500", "094032.587500", "094028.747500", "094032.695000", "094028.855000", "094032.805000", "094028.965000", "094032.915000", "094029.075000", "094033.025000", "094029.185000", "094033.135000", "094029.295000", "094033.245000", "094029.405000", "094033.355000", "094029.515000", "094033.465000", "094029.625000", "094033.572500", "094029.735000", "094033.682500", "094029.842500", "094033.792500", "094029.952500", "094033.902500", "094030.062500", "094037.872500", "094034.032500", "094037.982500", "094034.142500", "094038.092500", "094034.252500", "094038.202500", "094034.362500", "094038.312500", "094034.472500", "094038.420000", "094034.582500", "094038.530000", "094034.690000", "094038.640000", "094034.800000", "094038.750000", "094034.910000", "094038.860000", "094035.020000", "094038.970000", "094035.130000", "094039.080000", "094035.240000", "094039.190000", "094035.350000", "094039.300000", "094035.460000", "094039.407500", "094035.567500", "094039.517500", "094035.677500", "094039.627500", "094035.787500", "094039.737500", "094035.897500", "094039.847500", "094036.007500", "094039.957500", "094036.117500", "094040.067500", "094036.227500", "094040.177500", "094036.337500", "094040.287500", "094036.447500", "094040.395000", "094036.555000", "094040.505000", "094036.665000", "094040.615000", "094036.775000", "094040.725000", "094036.885000", "094040.835000", "094036.995000", "094040.945000", "094037.105000", "094041.055000", "094037.215000", "094041.165000", "094037.325000", "094041.272500", "094037.435000", "094041.382500", "094037.542500", "094041.492500", "094037.652500", "094041.602500", "094037.762500", "094045.572500", "094041.732500", "094045.682500", "094041.842500", "094045.792500", "094041.952500", "094045.902500", "094042.062500", "094046.012500", "094042.172500", "094046.120000", "094042.282500", "094046.230000", "094042.390000", "094046.340000", "094042.500000", "094046.450000", "094042.610000", "094046.560000", "094042.720000", "094046.670000", "094042.830000", "094046.780000", "094042.940000", "094046.890000", "094043.050000", "094047.000000", "094043.160000", "094047.107500", "094043.267500", "094047.217500", "094043.377500", "094047.327500", "094043.487500", "094047.437500", "094043.597500", "094047.547500", "094043.707500", "094047.657500", "094043.817500", "094047.767500", "094043.927500", "094047.877500", "094044.037500", "094047.987500", "094044.147500", "094048.095000", "094044.255000", "094048.205000", "094044.365000", "094048.315000", "094044.475000", "094048.425000", "094044.585000", "094048.535000", "094044.695000", "094048.645000", "094044.805000", "094048.755000", "094044.915000", "094048.865000", "094045.025000", "094048.972500", "094045.135000", "094049.082500", "094045.242500", "094049.192500", "094045.352500", "094049.302500", "094045.462500", "094053.272500", "094049.432500", "094053.382500", "094049.542500", "094053.492500", "094049.652500", "094053.602500", "094049.762500", "094053.712500", "094049.872500", "094053.820000", "094049.982500", "094053.930000", "094050.090000", "094054.040000", "094050.200000", "094054.150000", "094050.310000", "094054.260000", "094050.420000", "094054.370000", "094050.530000", "094054.480000", "094050.640000", "094054.590000", "094050.750000", "094054.700000", "094050.860000", "094054.807500", "094050.967500", "094054.917500", "094051.077500", "094055.027500", "094051.187500", "094055.137500", "094051.297500", "094055.247500", "094051.407500", "094055.357500", "094051.517500", "094055.467500", "094051.627500", "094055.577500", "094051.737500", "094055.687500", "094051.847500", "094055.795000", "094051.955000", "094055.905000", "094052.065000", "094056.015000", "094052.175000", "094056.125000", "094052.285000", "094056.235000", "094052.395000", "094056.345000", "094052.505000", "094056.455000", "094052.615000", "094056.565000", "094052.725000", "094056.672500", "094052.835000", "094056.782500", "094052.942500", "094056.892500", "094053.052500", "094057.002500", "094053.162500", "094100.972500", "094057.132500", "094101.082500", "094057.242500", "094101.192500", "094057.352500", "094101.302500", "094057.462500", "094101.412500", "094057.572500", "094101.520000", "094057.682500", "094101.630000", "094057.790000", "094101.740000", "094057.900000", "094101.850000", "094058.010000", "094101.960000", "094058.120000", "094102.070000", "094058.230000", "094102.180000", "094058.340000", "094102.290000", "094058.450000", "094102.400000", "094058.560000", "094102.507500", "094058.667500", "094102.617500", "094058.777500", "094102.727500", "094058.887500", "094102.837500", "094058.997500", "094102.947500", "094059.107500", "094103.057500", "094059.217500", "094103.167500", "094059.327500", "094103.277500", "094059.437500", "094103.387500", "094059.547500", "094103.495000", "094059.655000", "094103.605000", "094059.765000", "094103.715000", "094059.875000", "094103.825000", "094059.985000", "094103.935000", "094100.095000", "094104.045000", "094100.205000", "094104.155000", "094100.315000", "094104.265000", "094100.425000", "094104.372500", "094100.535000", "094104.482500", "094100.642500", "094104.592500", "094100.752500", "094104.702500", "094100.862500", "094108.672500", "094104.832500", "094108.782500", "094104.942500", "094108.892500", "094105.052500", "094109.002500", "094105.162500", "094109.112500", "094105.272500", "094109.220000", "094105.382500", "094109.330000", "094105.490000", "094109.440000", "094105.600000", "094109.550000", "094105.710000", "094109.660000", "094105.820000", "094109.770000", "094105.930000", "094109.880000", "094106.040000", "094109.990000", "094106.150000", "094110.100000", "094106.260000", "094110.207500", "094106.367500", "094110.317500", "094106.477500", "094110.427500", "094106.587500", "094110.537500", "094106.697500", "094110.647500", "094106.807500", "094110.757500", "094106.917500", "094110.867500", "094107.027500", "094110.977500", "094107.137500", "094111.087500", "094107.247500", "094111.195000", "094107.355000", "094111.305000", "094107.465000", "094111.415000", "094107.575000", "094111.525000", "094107.685000", "094111.635000", "094107.795000", "094111.745000", "094107.905000", "094111.855000", "094108.015000", "094111.965000", "094108.125000", "094112.072500", "094108.235000", "094112.182500", "094108.342500", "094112.292500", "094108.452500", "094112.402500", "094108.562500", "094116.372500", "094112.532500", "094116.482500", "094112.642500", "094116.592500", "094112.752500", "094116.702500", "094112.862500", "094116.812500", "094112.972500", "094116.920000", "094113.082500", "094117.030000", "094113.190000", "094117.140000", "094113.300000", "094117.250000", "094113.410000", "094117.360000", "094113.520000", "094117.470000", "094113.630000", "094117.580000", "094113.740000", "094117.690000", "094113.850000", "094117.800000", "094113.960000", "094117.907500", "094114.067500", "094118.017500", "094114.177500", "094118.127500", "094114.287500", "094118.237500", "094114.397500", "094118.347500", "094114.507500", "094118.457500", "094114.617500", "094118.567500", "094114.727500", "094118.677500", "094114.837500", "094118.787500", "094114.947500", "094118.895000", "094115.055000", "094119.005000", "094115.165000", "094119.115000", "094115.275000", "094119.225000", "094115.385000", "094119.335000", "094115.495000", "094119.445000", "094115.605000", "094119.555000", "094115.715000", "094119.665000", "094115.825000", "094119.772500", "094115.935000", "094119.882500", "094116.042500", "094119.992500", "094116.152500", "094120.102500", "094116.262500", "094124.072500", "094120.232500", "094124.182500", "094120.342500", "094124.292500", "094120.452500", "094124.402500", "094120.562500", "094124.512500", "094120.672500", "094124.620000", "094120.782500", "094124.730000", "094120.890000", "094124.840000", "094121.000000", "094124.950000", "094121.110000", "094125.060000", "094121.220000", "094125.170000", "094121.330000", "094125.280000", "094121.440000", "094125.390000", "094121.550000", "094125.500000", "094121.660000", "094125.607500", "094121.767500", "094125.717500", "094121.877500", "094125.827500", "094121.987500", "094125.937500", "0