{
  "AcquisitionMatrixPE": 80,
  "AcquisitionNumber": 1,
  "AcquisitionTime": "09:07:38.740000",
  "BandwidthPerPixelPhaseEncode": 48.077,
  "BaseResolution": 80,
  "BodyPartExamined": "BRAIN",
  "CoilCombinationMethod": "Sum of Squares",
  "ConsistencyInfo": "N4_VE11E_LATEST_20181129",
  "ConversionSoftware": "dcm2niix",
  "ConversionSoftwareVersion": "v1.0.20220720",
  "DerivedVendorReportedEchoSpacing": 0.000519999,
  "DeviceSerialNumber": "66112",
  "DwellTime": 2.7e-06,
  "EchoTime": 0.035,
  "EchoTrainLength": 39,
  "EffectiveEchoSpacing": 0.00026,
  "FlipAngle": 90,
  "HeudiconvVersion": "0.13.1",
  "ImageOrientationPatientDICOM": [0.985038, 0.172166, 0.00765694, -0.166076, 0.936453, 0.308988],
  "ImageOrientationText": "Tra>Cor(17.8)>Sag(-2.6)",
  "ImageType": [
    "ORIGINAL",
    "PRIMARY",
    "M",
    "ND",
    "NORM",
    "MOSAIC"
],
  "ImagingFrequency": 123.259,
  "InPlanePhaseEncodingDirectionDICOM": "COL",
  "InstitutionAddress": "Maynard 3,Hanover,NH,US,03755",
  "InstitutionName": "Dartmouth College - PBS",
  "InstitutionalDepartmentName": "Department",
  "MRAcquisitionType": "2D",
  "MagneticFieldStrength": 3,
  "Manufacturer": "Siemens",
  "ManufacturersModelName": "Prisma",
  "MatrixCoilMode": "GRAPPA",
  "Modality": "MR",
  "NonlinearGradientCorrection": false,
  "ParallelReductionFactorInPlane": 2,
  "PartialFourier": 1,
  "PatientPosition": "HFS",
  "PercentPhaseFOV": 100,
  "PercentSampling": 100,
  "PhaseEncodingDirection": "j-",
  "PhaseEncodingSteps": 79,
  "PhaseResolution": 1,
  "PixelBandwidth": 2315,
  "ProcedureStepDescription": "dbic^QA",
  "ProtocolName": "func-bold_task-rest_acq-p2",
  "PulseSequenceDetails": "%SiemensSeq%\\ep2d_bold",
  "ReceiveCoilActiveElements": "HEA;HEP",
  "ReceiveCoilName": "Head_32",
  "ReconMatrixPE": 80,
  "RefLinesPE": 24,
  "RepetitionTime": 2,
  "SAR": 0.0550482,
  "ScanOptions": "FS",
  "ScanningSequence": "EP",
  "SequenceName": "*epfid2d1_80",
  "SequenceVariant": "SK",
  "SeriesDescription": "func-bold_task-rest_acq-p2",
  "SeriesNumber": 5,
  "ShimSetting": [4217, -7738, -7496, -48, -160, -77, -35, 68],
  "SliceThickness": 3.5,
  "SliceTiming": [0.9875, 0, 1.055, 0.065, 1.12, 0.13, 1.1875, 0.1975, 1.2525, 0.2625, 1.3175, 0.33, 1.385, 0.395, 1.45, 0.46, 1.5175, 0.5275, 1.5825, 0.5925, 1.6475, 0.66, 1.715, 0.725, 1.78, 0.79, 1.8475, 0.8575, 1.9125, 0.9225],
  "SoftwareVersions": "syngo MR E11",
  "SpacingBetweenSlices": 3.99,
  "StationName": "AWP66112",
  "TaskName": "rest",
  "TotalReadoutTime": 0.02054,
  "TxRefAmp": 222.378,
  "dcmmeta_affine": [
    [-2.9551146030426025, -0.4982288181781769, -0.18364740908145905, 141.79275512695312],
    [-0.5164983868598938, 2.8093602657318115, 1.2194904088974, -102.52455139160156],
    [0.022970804944634438, -0.926964282989502, 3.7946300506591797, -28.511503219604492],
    [0.0, 0.0, 0.0, 1.0]
],
  "dcmmeta_reorient_transform": [
    [0.0, -1.0, 0.0, 79.0],
    [1.0, 0.0, 0.0, 0.0],
    [0.0, 0.0, 1.0, 0.0],
    [0.0, 0.0, 0.0, 1.0]
],
  "dcmmeta_shape": [80, 80, 30, 200],
  "dcmmeta_slice_dim": 2,
  "dcmmeta_version": 0.6,
  "global": {
    "const": {
      "AccessionNumber": "qa",
      "AcquisitionMatrix": [80, 0, 0, 80],
      "AngioFlag": "N",
      "BitsAllocated": 16,
      "BitsStored": 12,
      "BodyPartExamined": "BRAIN",
      "Columns": 480,
      "EchoNumbers": 1,
      "EchoTime": 35.0,
      "EchoTrainLength": 39,
      "FlipAngle": 90.0,
      "HighBit": 11,
      "ImageOrientationPatient": [0.98503816876281, 0.17216613321333, 0.00765693507722, -0.1660762735779, 0.93645343413219, 0.30898808562225],
      "ImagePositionPatient": [-593.80981493749, -784.58665031739, -291.72869285772],
      "ImageType": [
        "ORIGINAL",
        "PRIMARY",
        "M",
        "ND",
        "NORM",
        "MOSAIC"
],
      "ImagedNucleus": "1H",
      "ImagingFrequency": 123.259143,
      "InPlanePhaseEncodingDirection": "COL",
      "MRAcquisitionType": "2D",
      "MagneticFieldStrength": 3.0,
      "Manufacturer": "SIEMENS",
      "ManufacturerModelName": "Prisma",
      "Modality": "MR",
      "NumberOfAverages": 1.0,
      "NumberOfPhaseEncodingSteps": 79,
      "PercentPhaseFieldOfView": 100.0,
      "PercentSampling": 100.0,
      "PerformedProcedureStepStartTime": "090047.150000",
      "PhotometricInterpretation": "MONOCHROME2",
      "PixelBandwidth": 2315.0,
      "PixelRepresentation": 0,
      "PixelSpacing": [3.0, 3.0],
      "ProtocolName": "func-bold_task-rest_acq-p2",
      "RepetitionTime": 2000.0,
      "Rows": 480,
      "SAR": 0.05504820566216,
      "SamplesPerPixel": 1,
      "ScanOptions": "FS",
      "ScanningSequence": "EP",
      "SequenceName": "*epfid2d1_80",
      "SequenceVariant": "SK",
      "SeriesDescription": "func-bold_task-rest_acq-p2",
      "SeriesNumber": 5,
      "SeriesTime": "090822.492000",
      "SliceLocation": -64.976990330775,
      "SliceThickness": 3.5,
      "SmallestImagePixelValue": 0,
      "SoftwareVersions": "syngo MR E11",
      "SpacingBetweenSlices": 3.9900000053607,
      "SpecificCharacterSet": "ISO_IR 100",
      "StudyID": "4",
      "StudyTime": "090047.066000",
      "TransmitCoilName": "Body",
      "VariableFlipAngleFlag": "N",
      "WindowCenterWidthExplanation": "Algo1"
    },
    "slices": {}
  },
  "time": {
    "samples": {
      "AcquisitionNumber": [1, 2, 3, 4, 5, 6, 7, 8, 9, 10, 11, 12, 13, 14, 15, 16, 17, 18, 19, 20, 21, 22, 23, 24, 25, 26, 27, 28, 29, 30, 31, 32, 33, 34, 35, 36, 37, 38, 39, 40, 41, 42, 43, 44, 45, 46, 47, 48, 49, 50, 51, 52, 53, 54, 55, 56, 57, 58, 59, 60, 61, 62, 63, 64, 65, 66, 67, 68, 69, 70, 71, 72, 73, 74, 75, 76, 77, 78, 79, 80, 81, 82, 83, 84, 85, 86, 87, 88, 89, 90, 91, 92, 93, 94, 95, 96, 97, 98, 99, 100, 101, 102, 103, 104, 105, 106, 107, 108, 109, 110, 111, 112, 113, 114, 115, 116, 117, 118, 119, 120, 121, 122, 123, 124, 125, 126, 127, 128, 129, 130, 131, 132, 133, 134, 135, 136, 137, 138, 139, 140, 141, 142, 143, 144, 145, 146, 147, 148, 149, 150, 151, 152, 153, 154, 155, 156, 157, 158, 159, 160, 161, 162, 163, 164, 165, 166, 167, 168, 169, 170, 171, 172, 173, 174, 175, 176, 177, 178, 179, 180, 181, 182, 183, 184, 185, 186, 187, 188, 189, 190, 191, 192, 193, 194, 195, 196, 197, 198, 199, 200],
      "AcquisitionTime": ["090738.740000", "090740.740000", "090742.740000", "090744.740000", "090746.740000", "090748.740000", "090750.740000", "090752.740000", "090754.740000", "090756.740000", "090758.740000", "090800.740000", "090802.740000", "090804.740000", "090806.740000", "090808.740000", "090810.740000", "090812.740000", "090814.740000", "090816.740000", "090818.740000", "090820.740000", "090822.740000", "090824.740000", "090826.740000", "090828.740000", "090830.740000", "090832.740000", "090834.740000", "090836.740000", "090838.740000", "090840.740000", "090842.740000", "090844.740000", "090846.740000", "090848.740000", "090850.740000", "090852.740000", "090854.740000", "090856.740000", "090858.740000", "090900.740000", "090902.740000", "090904.740000", "090906.740000", "090908.740000", "090910.740000", "090912.740000", "090914.740000", "090916.740000", "090918.740000", "090920.740000", "090922.740000", "090924.740000", "090926.740000", "090928.740000", "090930.740000", "090932.740000", "090934.740000", "090936.740000", "090938.740000", "090940.740000", "090942.740000", "090944.740000", "090946.740000", "090948.740000", "090950.740000", "090952.740000", "090954.740000", "090956.740000", "090958.740000", "091000.740000", "091002.740000", "091004.740000", "091006.740000", "091008.740000", "091010.740000", "091012.740000", "091014.740000", "091016.740000", "091018.740000", "091020.740000", "091022.740000", "091024.740000", "091026.740000", "091028.740000", "091030.740000", "091032.740000", "091034.740000", "091036.740000", "091038.740000", "091040.740000", "091042.740000", "091044.740000", "091046.740000", "091048.740000", "091050.740000", "091052.740000", "091054.740000", "091056.740000", "091058.740000", "091100.740000", "091102.740000", "091104.740000", "091106.740000", "091108.740000", "091110.740000", "091112.740000", "091114.740000", "091116.740000", "091118.740000", "091120.740000", "091122.740000", "091124.740000", "091126.740000", "091128.740000", "091130.740000", "091132.740000", "091134.740000", "091136.740000", "091138.740000", "091140.740000", "091142.740000", "091144.740000", "091146.740000", "091148.740000", "091150.740000", "091152.740000", "091154.740000", "091156.740000", "091158.740000", "091200.740000", "091202.740000", "091204.740000", "091206.740000", "091208.740000", "091210.740000", "091212.740000", "091214.740000", "091216.740000", "091218.740000", "091220.740000", "091222.740000", "091224.740000", "091226.740000", "091228.740000", "091230.740000", "091232.740000", "091234.740000", "091236.740000", "091238.740000", "091240.740000", "091242.740000", "091244.740000", "091246.740000", "091248.740000", "091250.740000", "091252.740000", "091254.740000", "091256.740000", "091258.740000", "091300.740000", "091302.740000", "091304.740000", "091306.740000", "091308.740000", "091310.740000", "091312.740000", "091314.740000", "091316.740000", "091318.740000", "091320.740000", "091322.740000", "091324.740000", "091326.740000", "091328.740000", "091330.740000", "091332.740000", "091334.740000", "091336.740000", "091338.740000", "091340.740000", "091342.740000", "091344.740000", "091346.740000", "091348.740000", "091350.740000", "091352.740000", "091354.740000", "091356.740000", "091358.740000", "091400.740000", "091402.740000", "091404.740000", "091406.740000", "091408.740000", "091410.740000", "091412.740000", "091414.740000", "091416.740000"],
      "ContentTime": ["090822.495000", "090822.498000", "090822.501000", "090822.503000", "090822.505000", "090822.508000", "090822.510000", "090822.512000", "090822.514000", "090822.517000", "090822.519000", "090822.521000", "090822.524000", "090822.526000", "090822.528000", "090822.531000", "090822.533000", "090822.535000", "090822.537000", "090822.540000", "090822.542000", "090822.545000", "090902.490000", "090902.492000", "090902.495000", "090902.497000", "090902.499000", "090902.502000", "090902.504000", "090902.506000", "090902.509000", "090902.511000", "090902.513000", "090902.516000", "090902.518000", "090902.520000", "090902.522000", "090902.525000", "090902.527000", "090902.529000", "090902.532000", "090902.534000", "090942.491000", "090942.494000", "090942.496000", "090942.504000", "090942.507000", "090942.509000", "090942.511000", "090942.514000", "090942.516000", "090942.518000", "090942.520000", "090942.523000", "090942.525000", "090942.527000", "090942.530000", "090942.532000", "090942.534000", "090942.537000", "090942.539000", "090942.541000", "091022.490000", "091022.493000", "091022.496000", "091022.498000", "091022.500000", "091022.503000", "091022.505000", "091022.507000", "091022.510000", "091022.512000", "091022.515000", "091022.517000", "091022.519000", "091022.521000", "091022.524000", "091022.526000", "091022.528000", "091022.531000", "091022.533000", "091022.535000", "091102.490000", "091102.492000", "091102.495000", "091102.497000", "091102.499000", "091102.502000", "091102.504000", "091102.506000", "091102.509000", "091102.511000", "091102.513000", "091102.516000", "091102.518000", "091102.520000", "091102.522000", "091102.525000", "091102.527000", "091102.529000", "091102.532000", "091102.534000", "091142.491000", "091142.494000", "091142.496000", "091142.498000", "091142.500000", "091142.503000", "091142.505000", "091142.507000", "091142.510000", "091142.512000", "091142.514000", "091142.517000", "091142.519000", "091142.521000", "091142.524000", "091142.532000", "091142.534000", "091142.537000", "091142.539000", "091142.541000", "091222.491000", "091222.494000", "091222.496000", "091222.498000", "091222.500000", "091222.503000", "091222.505000", "091222.507000", "091222.510000", "091222.512000", "091222.514000", "091222.517000", "091222.519000", "091222.521000", "091222.523000", "091222.526000", "091222.528000", "091222.530000", "091222.533000", "091222.535000", "091302.490000", "091302.493000", "091302.495000", "091302.497000", "091302.500000", "091302.502000", "091302.504000", "091302.507000", "091302.509000", "091302.511000", "091302.514000", "091302.516000", "091302.518000", "091302.520000", "091302.523000", "091302.525000", "091302.527000", "091302.530000", "091302.532000", "091302.534000", "091342.490000", "091342.493000", "091342.495000", "091342.497000", "091342.499000", "091342.502000", "091342.504000", "091342.506000", "091342.509000", "091342.511000", "091342.513000", "091342.515000", "091342.518000", "091342.520000", "091342.522000", "091342.525000", "091342.528000", "091342.530000", "091342.532000", "091342.534000", "091418.428000", "091418.430000", "091418.433000", "091418.435000", "091418.437000", "091418.440000", "091418.442000", "091418.444000", "091418.447000", "091418.450000", "091418.453000", "091418.455000", "091418.458000", "091418.462000", "091418.465000", "091418.468000", "091418.471000", "091418.476000"],
      "InstanceCreationTime": ["090822.495000", "090822.498000", "090822.501000", "090822.503000", "090822.505000", "090822.508000", "090822.510000", "090822.512000", "090822.514000", "090822.517000", "090822.519000", "090822.521000", "090822.524000", "090822.526000", "090822.528000", "090822.531000", "090822.533000", "090822.535000", "090822.537000", "090822.540000", "090822.542000", "090822.545000", "090902.490000", "090902.492000", "090902.495000", "090902.497000", "090902.499000", "090902.502000", "090902.504000", "090902.506000", "090902.509000", "090902.511000", "090902.513000", "090902.516000", "090902.518000", "090902.520000", "090902.522000", "090902.525000", "090902.527000", "090902.529000", "090902.532000", "090902.534000", "090942.491000", "090942.494000", "090942.496000", "090942.504000", "090942.507000", "090942.509000", "090942.511000", "090942.514000", "090942.516000", "090942.518000", "090942.520000", "090942.523000", "090942.525000", "090942.527000", "090942.530000", "090942.532000", "090942.534000", "090942.537000", "090942.539000", "090942.541000", "091022.490000", "091022.493000", "091022.496000", "091022.498000", "091022.500000", "091022.503000", "091022.505000", "091022.507000", "091022.510000", "091022.512000", "091022.515000", "091022.517000", "091022.519000", "091022.521000", "091022.524000", "091022.526000", "091022.528000", "091022.531000", "091022.533000", "091022.535000", "091102.490000", "091102.492000", "091102.495000", "091102.497000", "091102.499000", "091102.502000", "091102.504000", "091102.506000", "091102.509000", "091102.511000", "091102.513000", "091102.516000", "091102.518000", "091102.520000", "091102.522000", "091102.525000", "091102.527000", "091102.529000", "091102.532000", "091102.534000", "091142.491000", "091142.494000", "091142.496000", "091142.498000", "091142.500000", "091142.503000", "091142.505000", "091142.507000", "091142.510000", "091142.512000", "091142.514000", "091142.517000", "091142.519000", "091142.521000", "091142.524000", "091142.532000", "091142.534000", "091142.537000", "091142.539000", "091142.541000", "091222.491000", "091222.494000", "091222.496000", "091222.498000", "091222.500000", "091222.503000", "091222.505000", "091222.507000", "091222.510000", "091222.512000", "091222.514000", "091222.517000", "091222.519000", "091222.521000", "091222.523000", "091222.526000", "091222.528000", "091222.530000", "091222.533000", "091222.535000", "091302.490000", "091302.493000", "091302.495000", "091302.497000", "091302.500000", "091302.502000", "091302.504000", "091302.507000", "091302.509000", "091302.511000", "091302.514000", "091302.516000", "091302.518000", "091302.520000", "091302.523000", "091302.525000", "091302.527000", "091302.530000", "091302.532000", "091302.534000", "091342.490000", "091342.493000", "091342.495000", "091342.497000", "091342.499000", "091342.502000", "091342.504000", "091342.506000", "091342.509000", "091342.511000", "091342.513000", "091342.515000", "091342.518000", "091342.520000", "091342.522000", "091342.525000", "091342.528000", "091342.530000", "091342.532000", "091342.534000", "091418.428000", "091418.430000", "091418.433000", "091418.435000", "091418.437000", "091418.440000", "091418.442000", "091418.444000", "091418.447000", "091418.450000", "091418.453000", "091418.455000", "091418.458000", "091418.462000", "091418.465000", "091418.468000", "091418.471000", "091418.476000"],
      "InstanceNumber": [1, 2, 3, 4, 5, 6, 7, 8, 9, 10, 11, 12, 13, 14, 15, 16, 17, 18, 19, 20, 21, 22, 23, 24, 25, 26, 27, 28, 29, 30, 31, 32, 33, 34, 35, 36, 37, 38, 39, 40, 41, 42, 43, 44, 45, 46, 47, 48, 49, 50, 51, 52, 53, 54, 55, 56, 57, 58, 59, 60, 61, 62, 63, 64, 65, 66, 67, 68, 69, 70, 71, 72, 73, 74, 75, 76, 77, 78, 79, 80, 81, 82, 83, 84, 85, 86, 87, 88, 89, 90, 91, 92, 93, 94, 95, 96, 97, 98, 99, 100, 101, 102, 103, 104, 105, 106, 107, 108, 109, 110, 111, 112, 113, 114, 115, 116, 117, 118, 119, 120, 121, 122, 123, 124, 125, 126, 127, 128, 129, 130, 131, 132, 133, 134, 135, 136, 137, 138, 139, 140, 141, 142, 143, 144, 145, 146, 147, 148, 149, 150, 151, 152, 153, 154, 155, 156, 157, 158, 159, 160, 161, 162, 163, 164, 165, 166, 167, 168, 169, 170, 171, 172, 173, 174, 175, 176, 177, 178, 179, 180, 181, 182, 183, 184, 185, 186, 187, 188, 189, 190, 191, 192, 193, 194, 195, 196, 197, 198, 199, 200],
      "LargestImagePixelValue": [2007, 1999, 2007, 2007, 2004, 2004, 2003, 2004, 2009, 1995, 2004, 2001, 1998, 2002, 2008, 2005, 1998, 2001, 2002, 1998, 2001, 2003, 2004, 2001, 2002, 1998, 1999, 1999, 2006, 2004, 2002, 1992, 1997, 2002, 2004, 1999, 1998, 2001, 1993, 2000, 1998, 2000, 2003, 2001, 2000, 2007, 2009, 1994, 2000, 2008, 2007, 2003, 2006, 2000, 2001, 2012, 2004, 2006, 1994, 2001, 1996, 2001, 1999, 2000, 1999, 1999, 2009, 2013, 1992, 1999, 2000, 2005, 1996, 2005, 2002, 1998, 2002, 2001, 2001, 2000, 1995, 2000, 2006, 1999, 2006, 2011, 1998, 2006, 2001, 2010, 1999, 1999, 2002, 2009, 2002, 2004, 2006, 2002, 2000, 1999, 1998, 2003, 1998, 1994, 2004, 2000, 2001, 1994, 2003, 1996, 1994, 1995, 2004, 2001, 1999, 2005, 2009, 2004, 2002, 2004, 1993, 2001, 2000, 2001, 1995, 2001, 2002, 2005, 2001, 1998, 2006, 1995, 2004, 2000, 1995, 2003, 2001, 2002, 1999, 2006, 1998, 2007, 2002, 2000, 2003, 1994, 2003, 1999, 1999, 1993, 2009, 1999, 2006, 2001, 1999, 2002, 2003, 2004, 2006, 2001, 1998, 1994, 1999, 2002, 2000, 2004, 2003, 2015, 2002, 2002, 2007, 1999, 2005, 2006, 1996, 1995, 2008, 2002, 2000, 1994, 2000, 2005, 2002, 2004, 2003, 2010, 2001, 2002, 2004, 2005, 1992, 2004, 2003, 2010, 1996, 2006, 2001, 2006, 1996, 2001],
      "WindowCenter": [987.0, 986.0, 986.0, 986.0, 986.0, 986.0, 986.0, 986.0, 987.0, 986.0, 986.0, 986.0, 986.0, 987.0, 986.0, 987.0, 987.0, 987.0, 986.0, 986.0, 987.0, 986.0, 986.0, 986.0, 986.0, 986.0, 986.0, 986.0, 987.0, 987.0, 986.0, 986.0, 986.0, 986.0, 986.0, 987.0, 987.0, 987.0, 986.0, 987.0, 986.0, 987.0, 986.0, 986.0, 987.0, 987.0, 986.0, 987.0, 986.0, 987.0, 986.0, 987.0, 987.0, 987.0, 986.0, 986.0, 987.0, 986.0, 986.0, 987.0, 986.0, 986.0, 986.0, 986.0, 987.0, 986.0, 986.0, 986.0, 987.0, 986.0, 986.0, 986.0, 986.0, 986.0, 987.0, 986.0, 986.0, 986.0, 986.0, 986.0, 986.0, 986.0, 986.0, 986.0, 986.0, 985.0, 986.0, 986.0, 986.0, 986.0, 985.0, 985.0, 986.0, 986.0, 985.0, 985.0, 985.0, 985.0, 986.0, 986.0, 985.0, 986.0, 986.0, 985.0, 985.0, 985.0, 985.0, 986.0, 986.0, 986.0, 986.0, 986.0, 985.0, 985.0, 986.0, 986.0, 985.0, 985.0, 986.0, 985.0, 985.0, 985.0, 985.0, 985.0, 985.0, 985.0, 986.0, 985.0, 985.0, 985.0, 985.0, 986.0, 985.0, 985.0, 986.0, 986.0, 986.0, 986.0, 985.0, 985.0, 986.0, 986.0, 986.0, 985.0, 986.0, 986.0, 986.0, 986.0, 985.0, 985.0, 985.0, 985.0, 986.0, 986.0, 986.0, 986.0, 985.0, 985.0, 986.0, 985.0, 985.0, 986.0, 985.0, 985.0, 985.0, 986.0, 985.0, 986.0, 985.0, 986.0, 985.0, 985.0, 985.0, 986.0, 985.0, 986.0, 986.0, 986.0, 986.0, 986.0, 986.0, 986.0, 986.0, 986.0, 985.0, 985.0, 986.0, 986.0, 985.0, 986.0, 985.0, 986.0, 986.0, 985.0, 985.0, 985.0, 985.0, 986.0, 985.0, 985.0],
      "WindowWidth": [2164.0, 2163.0, 2163.0, 2163.0, 2163.0, 2164.0, 2163.0, 2163.0, 2164.0, 2163.0, 2163.0, 2163.0, 2163.0, 2164.0, 2163.0, 2164.0, 2164.0, 2164.0, 2163.0, 2163.0, 2164.0, 2163.0, 2163.0, 2163.0, 2163.0, 2163.0, 2163.0, 2163.0, 2164.0, 2164.0, 2163.0, 2163.0, 2163.0, 2163.0, 2163.0, 2164.0, 2164.0, 2164.0, 2163.0, 2164.0, 2163.0, 2164.0, 2163.0, 2163.0, 2164.0, 2164.0, 2163.0, 2164.0, 2163.0, 2164.0, 2163.0, 2164.0, 2164.0, 2163.0, 2163.0, 2163.0, 2164.0, 2163.0, 2163.0, 2164.0, 2163.0, 2162.0, 2162.0, 2163.0, 2163.0, 2162.0, 2163.0, 2163.0, 2163.0, 2163.0, 2163.0, 2163.0, 2163.0, 2163.0, 2163.0, 2162.0, 2163.0, 2163.0, 2163.0, 2162.0, 2163.0, 2163.0, 2163.0, 2162.0, 2162.0, 2162.0, 2162.0, 2162.0, 2162.0, 2163.0, 2162.0, 2162.0, 2162.0, 2163.0, 2162.0, 2162.0, 2162.0, 2162.0, 2163.0, 2162.0, 2162.0, 2163.0, 2163.0, 2162.0, 2162.0, 2162.0, 2162.0, 2163.0, 2163.0, 2162.0, 2162.0, 2163.0, 2162.0, 2162.0, 2163.0, 2163.0, 2162.0, 2162.0, 2163.0, 2162.0, 2162.0, 2162.0, 2162.0, 2162.0, 2162.0, 2162.0, 2162.0, 2162.0, 2162.0, 2162.0, 2162.0, 2163.0, 2162.0, 2162.0, 2162.0, 2162.0, 2162.0, 2162.0, 2162.0, 2162.0, 2162.0, 2162.0, 2162.0, 2162.0, 2162.0, 2162.0, 2162.0, 2162.0, 2162.0, 2162.0, 2162.0, 2162.0, 2162.0, 2162.0, 2162.0, 2162.0, 2162.0, 2162.0, 2162.0, 2162.0, 2161.0, 2162.0, 2162.0, 2162.0, 2162.0, 2162.0, 2162.0, 2162.0, 2162.0, 2162.0, 2162.0, 2161.0, 2161.0, 2162.0, 2161.0, 2162.0, 2162.0, 2162.0, 2162.0, 2162.0, 2162.0, 2162.0, 2162.0, 2162.0, 2161.0, 2162.0, 2162.0, 2162.0, 2162.0, 2162.0, 2161.0, 2162.0, 2162.0, 2161.0, 2161.0, 2161.0, 2161.0, 2162.0, 2161.0, 2161.0]
    },
    "slices": {}
  }
}