{
  "AcquisitionMatrixPE": 80,
  "AcquisitionNumber": 1,
  "AcquisitionTime": "09:28:9.455000",
  "BandwidthPerPixelPhaseEncode": 25,
  "BaseResolution": 80,
  "BodyPartExamined": "BRAIN",
  "CoilCombinationMethod": "Sum of Squares",
  "ConsistencyInfo": "N4_VE11E_LATEST_20181129",
  "ConversionSoftware": "dcm2niix",
  "ConversionSoftwareVersion": "v1.0.20220720",
  "DerivedVendorReportedEchoSpacing": 0.0005,
  "DeviceSerialNumber": "66112",
  "DwellTime": 2.7e-06,
  "EchoTime": 0.03,
  "EchoTrainLength": 80,
  "EffectiveEchoSpacing": 0.0005,
  "FlipAngle": 10,
  "HeudiconvVersion": "0.13.1",
  "ImageOrientationPatientDICOM": [0.985038, 0.172166, 0.00765694, -0.166076, 0.936453, 0.308988],
  "ImageOrientationText": "Tra>Cor(17.8)>Sag(-2.6)",
  "ImageType": [
    "ORIGINAL",
    "PRIMARY",
    "M",
    "ND",
    "NORM",
    "MOSAIC"
],
  "ImagingFrequency": 123.259,
  "InPlanePhaseEncodingDirectionDICOM": "COL",
  "InstitutionAddress": "Maynard 3,Hanover,NH,US,03755",
  "InstitutionName": "Dartmouth College - PBS",
  "InstitutionalDepartmentName": "Department",
  "MRAcquisitionType": "2D",
  "MagneticFieldStrength": 3,
  "Manufacturer": "Siemens",
  "ManufacturersModelName": "Prisma",
  "MatrixCoilMode": "SENSE",
  "Modality": "MR",
  "NonlinearGradientCorrection": false,
  "PartialFourier": 1,
  "PatientPosition": "HFS",
  "PercentPhaseFOV": 100,
  "PercentSampling": 100,
  "PhaseEncodingDirection": "j-",
  "PhaseEncodingSteps": 80,
  "PhaseResolution": 1,
  "PixelBandwidth": 2315,
  "ProcedureStepDescription": "dbic^QA",
  "ProtocolName": "func-bold_fa-10",
  "PulseSequenceDetails": "%SiemensSeq%\\ep2d_bold",
  "ReceiveCoilActiveElements": "HEA;HEP",
  "ReceiveCoilName": "Head_32",
  "ReconMatrixPE": 80,
  "RepetitionTime": 2,
  "SAR": 0.0116044,
  "ScanOptions": "FS",
  "ScanningSequence": "EP",
  "SequenceName": "*epfid2d1_80",
  "SequenceVariant": "SK",
  "SeriesDescription": "func-bold_fa-10",
  "SeriesNumber": 8,
  "ShimSetting": [4217, -7738, -7496, -49, -159, -76, -33, 68],
  "SliceThickness": 3.5,
  "SliceTiming": [0.99, 0, 1.055, 0.065, 1.1225, 0.1325, 1.1875, 0.1975, 1.2525, 0.2625, 1.32, 0.33, 1.385, 0.395, 1.4525, 0.4625, 1.5175, 0.5275, 1.5825, 0.5925, 1.65, 0.66, 1.715, 0.725, 1.7825, 0.7925, 1.8475, 0.8575, 1.9125, 0.9225],
  "SoftwareVersions": "syngo MR E11",
  "SpacingBetweenSlices": 3.99,
  "StationName": "AWP66112",
  "TotalReadoutTime": 0.0395,
  "TxRefAmp": 222.378,
  "dcmmeta_affine": [
    [-2.9551146030426025, -0.4982288181781769, -0.18364740908145905, 141.27915954589844],
    [-0.5164983868598938, 2.8093602657318115, 1.2194904088974, -99.54059600830078],
    [0.022970804944634438, -0.926964282989502, 3.7946300506591797, -27.474843978881836],
    [0.0, 0.0, 0.0, 1.0]
],
  "dcmmeta_reorient_transform": [
    [0.0, -1.0, 0.0, 79.0],
    [1.0, 0.0, 0.0, 0.0],
    [0.0, 0.0, 1.0, 0.0],
    [0.0, 0.0, 0.0, 1.0]
],
  "dcmmeta_shape": [80, 80, 30, 200],
  "dcmmeta_slice_dim": 2,
  "dcmmeta_version": 0.6,
  "global": {
    "const": {
      "AccessionNumber": "qa",
      "AcquisitionMatrix": [80, 0, 0, 80],
      "AngioFlag": "N",
      "BitsAllocated": 16,
      "BitsStored": 12,
      "BodyPartExamined": "BRAIN",
      "Columns": 480,
      "EchoNumbers": 1,
      "EchoTime": 30.0,
      "EchoTrainLength": 80,
      "FlipAngle": 10.0,
      "HighBit": 11,
      "ImageOrientationPatient": [0.98503816876281, 0.17216613321333, 0.00765693507722, -0.1660762735779, 0.93645343413219, 0.30898808562225],
      "ImagePositionPatient": [-593.29622412481, -787.57060474701, -290.692033617],
      "ImageType": [
        "ORIGINAL",
        "PRIMARY",
        "M",
        "ND",
        "NORM",
        "MOSAIC"
],
      "ImagedNucleus": "1H",
      "ImagingFrequency": 123.259143,
      "InPlanePhaseEncodingDirection": "COL",
      "MRAcquisitionType": "2D",
      "MagneticFieldStrength": 3.0,
      "Manufacturer": "SIEMENS",
      "ManufacturerModelName": "Prisma",
      "Modality": "MR",
      "NumberOfAverages": 1.0,
      "NumberOfPhaseEncodingSteps": 80,
      "PercentPhaseFieldOfView": 100.0,
      "PercentSampling": 100.0,
      "PerformedProcedureStepStartTime": "090047.150000",
      "PhotometricInterpretation": "MONOCHROME2",
      "PixelBandwidth": 2315.0,
      "PixelRepresentation": 0,
      "PixelSpacing": [3.0, 3.0],
      "ProtocolName": "func-bold_fa-10",
      "RepetitionTime": 2000.0,
      "Rows": 480,
      "SAR": 0.01160435547126,
      "SamplesPerPixel": 1,
      "ScanOptions": "FS",
      "ScanningSequence": "EP",
      "SequenceName": "*epfid2d1_80",
      "SequenceVariant": "SK",
      "SeriesDescription": "func-bold_fa-10",
      "SeriesNumber": 8,
      "SeriesTime": "092902.492000",
      "SliceLocation": -63.055446052507,
      "SliceThickness": 3.5,
      "SmallestImagePixelValue": 0,
      "SoftwareVersions": "syngo MR E11",
      "SpacingBetweenSlices": 3.9899999956882,
      "SpecificCharacterSet": "ISO_IR 100",
      "StudyID": "4",
      "StudyTime": "090047.066000",
      "TransmitCoilName": "Body",
      "VariableFlipAngleFlag": "N",
      "WindowCenterWidthExplanation": "Algo1"
    },
    "slices": {}
  },
  "time": {
    "samples": {
      "AcquisitionNumber": [1, 2, 3, 4, 5, 6, 7, 8, 9, 10, 11, 12, 13, 14, 15, 16, 17, 18, 19, 20, 21, 22, 23, 24, 25, 26, 27, 28, 29, 30, 31, 32, 33, 34, 35, 36, 37, 38, 39, 40, 41, 42, 43, 44, 45, 46, 47, 48, 49, 50, 51, 52, 53, 54, 55, 56, 57, 58, 59, 60, 61, 62, 63, 64, 65, 66, 67, 68, 69, 70, 71, 72, 73, 74, 75, 76, 77, 78, 79, 80, 81, 82, 83, 84, 85, 86, 87, 88, 89, 90, 91, 92, 93, 94, 95, 96, 97, 98, 99, 100, 101, 102, 103, 104, 105, 106, 107, 108, 109, 110, 111, 112, 113, 114, 115, 116, 117, 118, 119, 120, 121, 122, 123, 124, 125, 126, 127, 128, 129, 130, 131, 132, 133, 134, 135, 136, 137, 138, 139, 140, 141, 142, 143, 144, 145, 146, 147, 148, 149, 150, 151, 152, 153, 154, 155, 156, 157, 158, 159, 160, 161, 162, 163, 164, 165, 166, 167, 168, 169, 170, 171, 172, 173, 174, 175, 176, 177, 178, 179, 180, 181, 182, 183, 184, 185, 186, 187, 188, 189, 190, 191, 192, 193, 194, 195, 196, 197, 198, 199, 200],
      "AcquisitionTime": ["092809.455000", "092811.455000", "092813.455000", "092815.455000", "092817.455000", "092819.455000", "092821.455000", "092823.455000", "092825.455000", "092827.455000", "092829.455000", "092831.455000", "092833.455000", "092835.455000", "092837.455000", "092839.455000", "092841.455000", "092843.455000", "092845.455000", "092847.455000", "092849.455000", "092851.455000", "092853.455000", "092855.455000", "092857.455000", "092859.455000", "092901.455000", "092903.455000", "092905.455000", "092907.455000", "092909.455000", "092911.455000", "092913.455000", "092915.455000", "092917.455000", "092919.455000", "092921.455000", "092923.455000", "092925.455000", "092927.455000", "092929.455000", "092931.455000", "092933.455000", "092935.455000", "092937.455000", "092939.455000", "092941.455000", "092943.455000", "092945.455000", "092947.455000", "092949.455000", "092951.455000", "092953.455000", "092955.455000", "092957.455000", "092959.455000", "093001.455000", "093003.455000", "093005.455000", "093007.455000", "093009.455000", "093011.455000", "093013.455000", "093015.455000", "093017.455000", "093019.455000", "093021.455000", "093023.455000", "093025.455000", "093027.455000", "093029.455000", "093031.455000", "093033.455000", "093035.455000", "093037.455000", "093039.455000", "093041.455000", "093043.455000", "093045.455000", "093047.455000", "093049.455000", "093051.455000", "093053.455000", "093055.455000", "093057.455000", "093059.455000", "093101.455000", "093103.455000", "093105.455000", "093107.455000", "093109.455000", "093111.455000", "093113.455000", "093115.455000", "093117.455000", "093119.455000", "093121.455000", "093123.455000", "093125.455000", "093127.455000", "093129.455000", "093131.455000", "093133.455000", "093135.455000", "093137.455000", "093139.455000", "093141.455000", "093143.455000", "093145.455000", "093147.455000", "093149.455000", "093151.455000", "093153.455000", "093155.455000", "093157.455000", "093159.455000", "093201.455000", "093203.455000", "093205.455000", "093207.455000", "093209.455000", "093211.455000", "093213.455000", "093215.455000", "093217.455000", "093219.455000", "093221.455000", "093223.455000", "093225.455000", "093227.455000", "093229.455000", "093231.455000", "093233.455000", "093235.455000", "093237.455000", "093239.455000", "093241.455000", "093243.455000", "093245.455000", "093247.455000", "093249.455000", "093251.455000", "093253.455000", "093255.455000", "093257.455000", "093259.455000", "093301.455000", "093303.455000", "093305.455000", "093307.455000", "093309.455000", "093311.455000", "093313.455000", "093315.455000", "093317.455000", "093319.455000", "093321.455000", "093323.455000", "093325.455000", "093327.455000", "093329.455000", "093331.455000", "093333.455000", "093335.455000", "093337.455000", "093339.455000", "093341.455000", "093343.455000", "093345.455000", "093347.455000", "093349.455000", "093351.455000", "093353.455000", "093355.455000", "093357.455000", "093359.455000", "093401.455000", "093403.455000", "093405.455000", "093407.455000", "093409.455000", "093411.455000", "093413.455000", "093415.455000", "093417.455000", "093419.455000", "093421.455000", "093423.455000", "093425.455000", "093427.455000", "093429.455000", "093431.455000", "093433.455000", "093435.455000", "093437.455000", "093439.455000", "093441.455000", "093443.455000", "093445.455000", "093447.455000"],
      "ContentTime": ["092902.495000", "092902.498000", "092902.500000", "092902.503000", "092902.505000", "092902.507000", "092902.509000", "092902.512000", "092902.514000", "092902.523000", "092902.525000", "092902.527000", "092902.530000", "092902.532000", "092902.534000", "092902.536000", "092902.539000", "092902.546000", "092902.554000", "092902.556000", "092902.559000", "092902.561000", "092902.563000", "092902.566000", "092902.569000", "092902.571000", "092942.491000", "092942.493000", "092942.495000", "092942.498000", "092942.500000", "092942.502000", "092942.504000", "092942.507000", "092942.509000", "092942.511000", "092942.513000", "092942.516000", "092942.518000", "092942.520000", "092942.522000", "092942.525000", "092942.527000", "092942.529000", "092942.532000", "092942.534000", "093022.491000", "093022.493000", "093022.496000", "093022.498000", "093022.500000", "093022.503000", "093022.505000", "093022.507000", "093022.510000", "093022.512000", "093022.514000", "093022.517000", "093022.519000", "093022.521000", "093022.523000", "093022.526000", "093022.528000", "093022.530000", "093022.533000", "093022.535000", "093102.491000", "093102.494000", "093102.496000", "093102.498000", "093102.501000", "093102.503000", "093102.505000", "093102.508000", "093102.510000", "093102.512000", "093102.514000", "093102.517000", "093102.519000", "093102.521000", "093102.523000", "093102.526000", "093102.533000", "093102.535000", "093102.537000", "093102.539000", "093142.490000", "093142.493000", "093142.495000", "093142.497000", "093142.500000", "093142.502000", "093142.504000", "093142.506000", "093142.509000", "093142.511000", "093142.513000", "093142.515000", "093142.518000", "093142.520000", "093142.522000", "093142.524000", "093142.527000", "093142.529000", "093142.531000", "093142.533000", "093222.490000", "093222.493000", "093222.495000", "093222.497000", "093222.499000", "093222.502000", "093222.504000", "093222.506000", "093222.508000", "093222.511000", "093222.513000", "093222.515000", "093222.517000", "093222.520000", "093222.522000", "093222.524000", "093222.526000", "093222.536000", "093222.538000", "093222.549000", "093302.491000", "093302.494000", "093302.496000", "093302.498000", "093302.501000", "093302.503000", "093302.505000", "093302.508000", "093302.510000", "093302.512000", "093302.514000", "093302.517000", "093302.519000", "093302.521000", "093302.523000", "093302.526000", "093302.528000", "093302.530000", "093302.532000", "093302.535000", "093342.490000", "093342.493000", "093342.495000", "093342.497000", "093342.499000", "093342.502000", "093342.504000", "093342.506000", "093342.508000", "093342.511000", "093342.513000", "093342.515000", "093342.518000", "093342.520000", "093342.522000", "093342.524000", "093342.527000", "093342.529000", "093342.531000", "093342.533000", "093422.490000", "093422.493000", "093422.495000", "093422.497000", "093422.500000", "093422.502000", "093422.504000", "093422.506000", "093422.509000", "093422.511000", "093422.513000", "093422.515000", "093422.518000", "093422.520000", "093422.522000", "093422.524000", "093422.527000", "093422.529000", "093422.531000", "093422.533000", "093448.611000", "093448.614000", "093448.617000", "093448.619000", "093448.622000", "093448.624000", "093448.626000", "093448.629000", "093448.631000", "093448.633000", "093448.636000", "093448.638000", "093448.640000", "093448.644000"],
      "InstanceCreationTime": ["092902.495000", "092902.498000", "092902.500000", "092902.503000", "092902.505000", "092902.507000", "092902.509000", "092902.512000", "092902.514000", "092902.523000", "092902.525000", "092902.527000", "092902.530000", "092902.532000", "092902.534000", "092902.536000", "092902.539000", "092902.546000", "092902.554000", "092902.556000", "092902.559000", "092902.561000", "092902.563000", "092902.566000", "092902.569000", "092902.571000", "092942.491000", "092942.493000", "092942.495000", "092942.498000", "092942.500000", "092942.502000", "092942.504000", "092942.507000", "092942.509000", "092942.511000", "092942.513000", "092942.516000", "092942.518000", "092942.520000", "092942.522000", "092942.525000", "092942.527000", "092942.529000", "092942.532000", "092942.534000", "093022.491000", "093022.493000", "093022.496000", "093022.498000", "093022.500000", "093022.503000", "093022.505000", "093022.507000", "093022.510000", "093022.512000", "093022.514000", "093022.517000", "093022.519000", "093022.521000", "093022.523000", "093022.526000", "093022.528000", "093022.530000", "093022.533000", "093022.535000", "093102.491000", "093102.494000", "093102.496000", "093102.498000", "093102.501000", "093102.503000", "093102.505000", "093102.508000", "093102.510000", "093102.512000", "093102.514000", "093102.517000", "093102.519000", "093102.521000", "093102.523000", "093102.526000", "093102.533000", "093102.535000", "093102.537000", "093102.539000", "093142.490000", "093142.493000", "093142.495000", "093142.497000", "093142.500000", "093142.502000", "093142.504000", "093142.506000", "093142.509000", "093142.511000", "093142.513000", "093142.515000", "093142.518000", "093142.520000", "093142.522000", "093142.524000", "093142.527000", "093142.529000", "093142.531000", "093142.533000", "093222.490000", "093222.493000", "093222.495000", "093222.497000", "093222.499000", "093222.502000", "093222.504000", "093222.506000", "093222.508000", "093222.511000", "093222.513000", "093222.515000", "093222.517000", "093222.520000", "093222.522000", "093222.524000", "093222.526000", "093222.536000", "093222.538000", "093222.549000", "093302.491000", "093302.494000", "093302.496000", "093302.498000", "093302.501000", "093302.503000", "093302.505000", "093302.508000", "093302.510000", "093302.512000", "093302.514000", "093302.517000", "093302.519000", "093302.521000", "093302.523000", "093302.526000", "093302.528000", "093302.530000", "093302.532000", "093302.535000", "093342.490000", "093342.493000", "093342.495000", "093342.497000", "093342.499000", "093342.502000", "093342.504000", "093342.506000", "093342.508000", "093342.511000", "093342.513000", "093342.515000", "093342.518000", "093342.520000", "093342.522000", "093342.524000", "093342.527000", "093342.529000", "093342.531000", "093342.533000", "093422.490000", "093422.493000", "093422.495000", "093422.497000", "093422.500000", "093422.502000", "093422.504000", "093422.506000", "093422.509000", "093422.511000", "093422.513000", "093422.515000", "093422.518000", "093422.520000", "093422.522000", "093422.524000", "093422.527000", "093422.529000", "093422.531000", "093422.533000", "093448.611000", "093448.614000", "093448.617000", "093448.619000", "093448.622000", "093448.624000", "093448.626000", "093448.629000", "093448.631000", "093448.633000", "093448.636000", "093448.638000", "093448.640000", "093448.644000"],
      "InstanceNumber": [1, 2, 3, 4, 5, 6, 7, 8, 9, 10, 11, 12, 13, 14, 15, 16, 17, 18, 19, 20, 21, 22, 23, 24, 25, 26, 27, 28, 29, 30, 31, 32, 33, 34, 35, 36, 37, 38, 39, 40, 41, 42, 43, 44, 45, 46, 47, 48, 49, 50, 51, 52, 53, 54, 55, 56, 57, 58, 59, 60, 61, 62, 63, 64, 65, 66, 67, 68, 69, 70, 71, 72, 73, 74, 75, 76, 77, 78, 79, 80, 81, 82, 83, 84, 85, 86, 87, 88, 89, 90, 91, 92, 93, 94, 95, 96, 97, 98, 99, 100, 101, 102, 103, 104, 105, 106, 107, 108, 109, 110, 111, 112, 113, 114, 115, 116, 117, 118, 119, 120, 121, 122, 123, 124, 125, 126, 127, 128, 129, 130, 131, 132, 133, 134, 135, 136, 137, 138, 139, 140, 141, 142, 143, 144, 145, 146, 147, 148, 149, 150, 151, 152, 153, 154, 155, 156, 157, 158, 159, 160, 161, 162, 163, 164, 165, 166, 167, 168, 169, 170, 171, 172, 173, 174, 175, 176, 177, 178, 179, 180, 181, 182, 183, 184, 185, 186, 187, 188, 189, 190, 191, 192, 193, 194, 195, 196, 197, 198, 199, 200],
      "LargestImagePixelValue": [331, 332, 332, 332, 332, 332, 332, 331, 333, 334, 331, 331, 333, 333, 331, 334, 331, 334, 331, 332, 334, 333, 332, 332, 332, 333, 331, 332, 333, 333, 333, 332, 334, 333, 332, 332, 332, 332, 332, 333, 333, 332, 333, 334, 332, 333, 331, 331, 332, 333, 334, 333, 331, 333, 332, 332, 334, 331, 331, 332, 332, 332, 332, 332, 332, 333, 331, 332, 333, 332, 332, 332, 333, 332, 335, 332, 332, 333, 332, 333, 332, 334, 331, 332, 333, 333, 331, 332, 332, 332, 331, 331, 333, 333, 332, 334, 333, 332, 332, 332, 333, 333, 332, 331, 333, 332, 333, 333, 331, 332, 334, 332, 332, 331, 331, 333, 333, 332, 333, 332, 332, 331, 331, 334, 334, 333, 332, 332, 333, 332, 332, 333, 333, 333, 332, 332, 333, 330, 332, 333, 334, 333, 333, 333, 333, 331, 333, 332, 333, 330, 332, 333, 332, 331, 332, 333, 332, 333, 331, 332, 333, 332, 333, 332, 332, 331, 332, 333, 332, 333, 333, 333, 332, 332, 332, 332, 333, 331, 332, 332, 333, 333, 333, 334, 333, 332, 332, 333, 333, 330, 333, 333, 332, 332, 332, 333, 333, 331, 334, 333],
      "WindowCenter": [276.0, 276.0, 276.0, 276.0, 276.0, 276.0, 276.0, 276.0, 276.0, 276.0, 276.0, 276.0, 276.0, 276.0, 276.0, 276.0, 276.0, 276.0, 276.0, 276.0, 276.0, 276.0, 276.0, 276.0, 276.0, 276.0, 276.0, 276.0, 276.0, 276.0, 276.0, 276.0, 276.0, 276.0, 276.0, 276.0, 276.0, 276.0, 276.0, 276.0, 276.0, 276.0, 276.0, 276.0, 276.0, 276.0, 276.0, 276.0, 276.0, 276.0, 276.0, 276.0, 276.0, 276.0, 276.0, 276.0, 276.0, 276.0, 276.0, 276.0, 276.0, 276.0, 276.0, 276.0, 276.0, 276.0, 276.0, 276.0, 276.0, 276.0, 276.0, 276.0, 276.0, 276.0, 276.0, 276.0, 276.0, 276.0, 276.0, 276.0, 276.0, 276.0, 276.0, 276.0, 276.0, 276.0, 276.0, 276.0, 276.0, 276.0, 276.0, 276.0, 276.0, 276.0, 276.0, 276.0, 276.0, 275.0, 276.0, 276.0, 276.0, 276.0, 276.0, 276.0, 276.0, 276.0, 276.0, 276.0, 276.0, 276.0, 276.0, 276.0, 276.0, 276.0, 276.0, 276.0, 276.0, 276.0, 276.0, 276.0, 275.0, 275.0, 275.0, 276.0, 276.0, 275.0, 275.0, 276.0, 275.0, 275.0, 275.0, 275.0, 276.0, 275.0, 275.0, 276.0, 276.0, 275.0, 275.0, 276.0, 275.0, 275.0, 275.0, 276.0, 276.0, 275.0, 275.0, 276.0, 275.0, 275.0, 275.0, 276.0, 275.0, 275.0, 276.0, 275.0, 275.0, 275.0, 275.0, 275.0, 275.0, 275.0, 275.0, 275.0, 275.0, 275.0, 275.0, 275.0, 275.0, 275.0, 275.0, 275.0, 275.0, 275.0, 276.0, 276.0, 275.0, 275.0, 275.0, 276.0, 275.0, 275.0, 275.0, 275.0, 275.0, 275.0, 275.0, 275.0, 275.0, 275.0, 275.0, 275.0, 275.0, 275.0, 275.0, 275.0, 275.0, 275.0, 275.0, 276.0],
      "WindowWidth": [606.0, 605.0, 606.0, 605.0, 606.0, 605.0, 605.0, 605.0, 605.0, 605.0, 605.0, 605.0, 605.0, 605.0, 605.0, 605.0, 605.0, 605.0, 605.0, 605.0, 605.0, 605.0, 605.0, 606.0, 605.0, 605.0, 605.0, 606.0, 605.0, 605.0, 605.0, 605.0, 605.0, 605.0, 605.0, 605.0, 606.0, 605.0, 605.0, 605.0, 605.0, 605.0, 605.0, 605.0, 605.0, 605.0, 605.0, 605.0, 605.0, 605.0, 605.0, 605.0, 605.0, 605.0, 605.0, 605.0, 605.0, 605.0, 605.0, 605.0, 605.0, 605.0, 605.0, 605.0, 605.0, 605.0, 605.0, 605.0, 605.0, 605.0, 605.0, 605.0, 605.0, 605.0, 605.0, 605.0, 605.0, 605.0, 605.0, 605.0, 605.0, 605.0, 605.0, 605.0, 605.0, 605.0, 605.0, 605.0, 605.0, 605.0, 605.0, 605.0, 605.0, 605.0, 605.0, 605.0, 605.0, 604.0, 605.0, 605.0, 605.0, 605.0, 604.0, 605.0, 605.0, 605.0, 604.0, 605.0, 605.0, 605.0, 605.0, 605.0, 605.0, 605.0, 605.0, 605.0, 605.0, 605.0, 605.0, 605.0, 604.0, 604.0, 604.0, 605.0, 605.0, 604.0, 604.0, 605.0, 604.0, 604.0, 604.0, 604.0, 605.0, 604.0, 604.0, 604.0, 605.0, 604.0, 604.0, 605.0, 604.0, 604.0, 604.0, 605.0, 605.0, 604.0, 604.0, 605.0, 604.0, 604.0, 604.0, 605.0, 603.0, 604.0, 605.0, 604.0, 604.0, 604.0, 604.0, 604.0, 604.0, 604.0, 603.0, 604.0, 604.0, 604.0, 603.0, 604.0, 604.0, 603.0, 604.0, 604.0, 603.0, 603.0, 604.0, 605.0, 604.0, 603.0, 604.0, 605.0, 603.0, 603.0, 604.0, 604.0, 604.0, 604.0, 604.0, 604.0, 604.0, 604.0, 604.0, 604.0, 604.0, 603.0, 604.0, 604.0, 604.0, 604.0, 604.0, 604.0]
    },
    "slices": {}
  }
}