{
  "AcquisitionMatrixPE": 80,
  "AcquisitionNumber": 1,
  "AcquisitionTime": "09:39:10.155000",
  "BandwidthPerPixelPhaseEncode": 44.643,
  "BaseResolution": 80,
  "BodyPartExamined": "BRAIN",
  "CoilCombinationMethod": "Sum of Squares",
  "ConsistencyInfo": "N4_VE11C_LATEST_20160120",
  "ConversionSoftware": "dcm2niix",
  "ConversionSoftwareVersion": "v1.0.20220720",
  "DerivedVendorReportedEchoSpacing": 0.000559998,
  "DeviceSerialNumber": "66112",
  "DwellTime": 2.7e-06,
  "EchoTime": 0.035,
  "EchoTrainLength": 39,
  "EffectiveEchoSpacing": 0.000279999,
  "FlipAngle": 90,
  "HeudiconvVersion": "0.13.1",
  "ImageOrientationPatientDICOM": [0.97234, 0.233317, 0.0108615, -0.225555, 0.925881, 0.303099],
  "ImageOrientationText": "Tra>Cor(17.3)>Sag(-3.5)",
  "ImageType": [
    "ORIGINAL",
    "PRIMARY",
    "M",
    "ND",
    "NORM",
    "MOSAIC"
],
  "ImagingFrequency": 123.252,
  "InPlanePhaseEncodingDirectionDICOM": "COL",
  "InstitutionAddress": "Maynard 3,Hanover,NH,US,03755",
  "InstitutionName": "Dartmouth College - PBS",
  "InstitutionalDepartmentName": "Department",
  "MRAcquisitionType": "2D",
  "MagneticFieldStrength": 3,
  "Manufacturer": "Siemens",
  "ManufacturersModelName": "Prisma",
  "Modality": "MR",
  "MultibandAccelerationFactor": 4,
  "NonlinearGradientCorrection": false,
  "ParallelReductionFactorInPlane": 2,
  "PartialFourier": 1,
  "PatientPosition": "HFS",
  "PercentPhaseFOV": 100,
  "PercentSampling": 100,
  "PhaseEncodingDirection": "j-",
  "PhaseEncodingSteps": 79,
  "PhaseResolution": 1,
  "PixelBandwidth": 2315,
  "ProcedureStepDescription": "dbic^QA",
  "ProtocolName": "func-bold_task-rest_acq-p2-s4-3.5mm",
  "PulseSequenceDetails": "%SiemensSeq%\\ep2d_bold",
  "ReceiveCoilActiveElements": "HEA;HEP",
  "ReceiveCoilName": "Head_32",
  "ReconMatrixPE": 80,
  "RefLinesPE": 24,
  "RepetitionTime": 2,
  "SAR": 0.0208774,
  "ScanOptions": "FS",
  "ScanningSequence": "EP",
  "SequenceName": "*epfid2d1_80",
  "SequenceVariant": "SK",
  "SeriesDescription": "func-bold_task-rest_acq-p2-s4-3.5mm",
  "SeriesNumber": 7,
  "ShimSetting": [4174, -7687, -7513, 273, 65, -69, 40, 125],
  "SliceThickness": 3.5,
  "SliceTiming": [1.485, 0, 0.99, 0.2475, 1.2375, 0.7425, 1.7325, 0.495, 1.485, 0, 0.99, 0.2475, 1.2375, 0.7425, 1.7325, 0.495, 1.485, 0, 0.99, 0.2475, 1.2375, 0.7425, 1.7325, 0.495, 1.485, 0, 0.99, 0.2475, 1.2375, 0.7425, 1.7325, 0.495],
  "SoftwareVersions": "syngo MR E11",
  "SpacingBetweenSlices": 3.99,
  "StationName": "AWP66112",
  "TaskName": "rest",
  "TotalReadoutTime": 0.0221199,
  "TxRefAmp": 233.583,
  "dcmmeta_affine": [
    [-2.917019844055176, -0.6766654849052429, -0.24204117059707642, 151.27230834960938],
    [-0.6999523639678955, 2.7776429653167725, 1.1856907606124878, -88.060302734375],
    [0.03258448466658592, -0.9092984199523926, 3.8020591735839844, -27.838756561279297],
    [0.0, 0.0, 0.0, 1.0]
],
  "dcmmeta_reorient_transform": [
    [0.0, -1.0, 0.0, 79.0],
    [1.0, 0.0, 0.0, 0.0],
    [0.0, 0.0, 1.0, 0.0],
    [0.0, 0.0, 0.0, 1.0]
],
  "dcmmeta_shape": [80, 80, 32, 200],
  "dcmmeta_slice_dim": 2,
  "dcmmeta_version": 0.6,
  "global": {
    "const": {
      "AccessionNumber": "qa",
      "AcquisitionMatrix": [80, 0, 0, 80],
      "AngioFlag": "N",
      "BitsAllocated": 16,
      "BitsStored": 12,
      "BodyPartExamined": "BRAIN",
      "Columns": 480,
      "EchoNumbers": 1,
      "EchoTime": 35.0,
      "EchoTrainLength": 39,
      "FlipAngle": 90.0,
      "HighBit": 11,
      "ImageOrientationPatient": [0.97233995783614, 0.23331745393602, 0.0108614954782, -0.2255551699475, 0.92588097118983, 0.3030994762426],
      "ImagePositionPatient": [-545.88660443924, -826.89254277595, -288.0499159964],
      "ImageType": [
        "ORIGINAL",
        "PRIMARY",
        "M",
        "ND",
        "NORM",
        "MOSAIC"
],
      "ImagedNucleus": "1H",
      "ImagingFrequency": 123.25247,
      "InPlanePhaseEncodingDirection": "COL",
      "MRAcquisitionType": "2D",
      "MagneticFieldStrength": 3.0,
      "Manufacturer": "SIEMENS",
      "ManufacturerModelName": "Prisma",
      "Modality": "MR",
      "NumberOfAverages": 1.0,
      "NumberOfPhaseEncodingSteps": 79,
      "PercentPhaseFieldOfView": 100.0,
      "PercentSampling": 100.0,
      "PerformedProcedureStepStartTime": "092831.185000",
      "PhotometricInterpretation": "MONOCHROME2",
      "PixelBandwidth": 2315.0,
      "PixelRepresentation": 0,
      "PixelSpacing": [3.0, 3.0],
      "ProtocolName": "func-bold_task-rest_acq-p2-s4-3.5mm",
      "RepetitionTime": 2000.0,
      "Rows": 480,
      "SAR": 0.02087737088911,
      "SamplesPerPixel": 1,
      "ScanOptions": "FS",
      "ScanningSequence": "EP",
      "SequenceName": "*epfid2d1_80",
      "SequenceVariant": "SK",
      "SeriesDescription": "func-bold_task-rest_acq-p2-s4-3.5mm",
      "SeriesNumber": 7,
      "SeriesTime": "093938.861000",
      "SliceLocation": -61.872433757623,
      "SliceThickness": 3.5,
      "SmallestImagePixelValue": 0,
      "SoftwareVersions": "syngo MR E11",
      "SpacingBetweenSlices": 3.9900000415123,
      "SpecificCharacterSet": "ISO_IR 100",
      "StudyID": "107",
      "StudyTime": "092831.124000",
      "TransmitCoilName": "Body",
      "VariableFlipAngleFlag": "N",
      "WindowCenter": 924.0,
      "WindowCenterWidthExplanation": "Algo1",
      "dBdt": 0.0},
    "slices": {}
  },
  "time": {
    "samples": {
      "AcquisitionNumber": [1, 2, 3, 4, 5, 6, 7, 8, 9, 10, 11, 12, 13, 14, 15, 16, 17, 18, 19, 20, 21, 22, 23, 24, 25, 26, 27, 28, 29, 30, 31, 32, 33, 34, 35, 36, 37, 38, 39, 40, 41, 42, 43, 44, 45, 46, 47, 48, 49, 50, 51, 52, 53, 54, 55, 56, 57, 58, 59, 60, 61, 62, 63, 64, 65, 66, 67, 68, 69, 70, 71, 72, 73, 74, 75, 76, 77, 78, 79, 80, 81, 82, 83, 84, 85, 86, 87, 88, 89, 90, 91, 92, 93, 94, 95, 96, 97, 98, 99, 100, 101, 102, 103, 104, 105, 106, 107, 108, 109, 110, 111, 112, 113, 114, 115, 116, 117, 118, 119, 120, 121, 122, 123, 124, 125, 126, 127, 128, 129, 130, 131, 132, 133, 134, 135, 136, 137, 138, 139, 140, 141, 142, 143, 144, 145, 146, 147, 148, 149, 150, 151, 152, 153, 154, 155, 156, 157, 158, 159, 160, 161, 162, 163, 164, 165, 166, 167, 168, 169, 170, 171, 172, 173, 174, 175, 176, 177, 178, 179, 180, 181, 182, 183, 184, 185, 186, 187, 188, 189, 190, 191, 192, 193, 194, 195, 196, 197, 198, 199, 200],
      "AcquisitionTime": ["093910.155000", "093912.155000", "093914.155000", "093916.155000", "093918.155000", "093920.155000", "093922.155000", "093924.155000", "093926.155000", "093928.155000", "093930.155000", "093932.155000", "093934.155000", "093936.155000", "093938.155000", "093940.155000", "093942.155000", "093944.155000", "093946.155000", "093948.155000", "093950.155000", "093952.155000", "093954.155000", "093956.155000", "093958.155000", "094000.155000", "094002.155000", "094004.155000", "094006.155000", "094008.155000", "094010.155000", "094012.155000", "094014.155000", "094016.155000", "094018.155000", "094020.155000", "094022.155000", "094024.155000", "094026.155000", "094028.155000", "094030.155000", "094032.155000", "094034.155000", "094036.155000", "094038.155000", "094040.155000", "094042.155000", "094044.155000", "094046.155000", "094048.155000", "094050.155000", "094052.155000", "094054.155000", "094056.155000", "094058.155000", "094100.155000", "094102.155000", "094104.155000", "094106.155000", "094108.155000", "094110.155000", "094112.155000", "094114.155000", "094116.155000", "094118.155000", "094120.155000", "094122.155000", "094124.155000", "094126.155000", "094128.155000", "094130.155000", "094132.155000", "094134.155000", "094136.155000", "094138.155000", "094140.155000", "094142.155000", "094144.155000", "094146.155000", "094148.155000", "094150.155000", "094152.155000", "094154.155000", "094156.155000", "094158.155000", "094200.155000", "094202.155000", "094204.155000", "094206.155000", "094208.155000", "094210.155000", "094212.155000", "094214.155000", "094216.155000", "094218.155000", "094220.155000", "094222.155000", "094224.155000", "094226.155000", "094228.155000", "094230.155000", "094232.155000", "094234.155000", "094236.155000", "094238.155000", "094240.155000", "094242.155000", "094244.155000", "094246.155000", "094248.155000", "094250.155000", "094252.155000", "094254.155000", "094256.155000", "094258.155000", "094300.155000", "094302.155000", "094304.155000", "094306.155000", "094308.155000", "094310.155000", "094312.155000", "094314.155000", "094316.155000", "094318.155000", "094320.155000", "094322.155000", "094324.155000", "094326.155000", "094328.155000", "094330.155000", "094332.155000", "094334.155000", "094336.155000", "094338.155000", "094340.155000", "094342.155000", "094344.155000", "094346.155000", "094348.155000", "094350.155000", "094352.155000", "094354.155000", "094356.155000", "094358.155000", "094400.155000", "094402.155000", "094404.155000", "094406.155000", "094408.155000", "094410.155000", "094412.155000", "094414.155000", "094416.155000", "094418.155000", "094420.155000", "094422.155000", "094424.155000", "094426.155000", "094428.155000", "094430.155000", "094432.155000", "094434.155000", "094436.155000", "094438.155000", "094440.155000", "094442.155000", "094444.155000", "094446.155000", "094448.155000", "094450.155000", "094452.155000", "094454.155000", "094456.155000", "094458.155000", "094500.155000", "094502.155000", "094504.155000", "094506.155000", "094508.155000", "094510.155000", "094512.155000", "094514.155000", "094516.155000", "094518.155000", "094520.155000", "094522.155000", "094524.155000", "094526.155000", "094528.155000", "094530.155000", "094532.155000", "094534.155000", "094536.155000", "094538.155000", "094540.155000", "094542.155000", "094544.155000", "094546.155000", "094548.155000"],
      "ContentTime": ["093938.865000", "093938.874000", "093938.876000", "093938.879000", "093938.896000", "093938.899000", "093938.901000", "093938.904000", "093938.906000", "093938.909000", "093938.912000", "093938.914000", "093938.917000", "093938.919000", "094018.967000", "094019.505000", "094019.553000", "094019.582000", "094019.616000", "094019.645000", "094019.673000", "094019.702000", "094019.730000", "094019.759000", "094019.811000", "094019.935000", "094019.938000", "094019.940000", "094019.943000", "094019.945000", "094019.948000", "094019.951000", "094019.953000", "094019.956000", "094058.856000", "094058.859000", "094058.862000", "094058.865000", "094058.868000", "094058.870000", "094058.873000", "094058.876000", "094058.878000", "094058.881000", "094058.884000", "094058.886000", "094058.889000", "094058.891000", "094058.894000", "094058.897000", "094058.900000", "094058.902000", "094058.905000", "094058.907000", "094139.900000", "094139.903000", "094139.906000", "094139.908000", "094139.911000", "094139.914000", "094139.916000", "094139.919000", "094139.938000", "094139.940000", "094139.949000", "094139.952000", "094139.955000", "094139.957000", "094139.960000", "094139.962000", "094139.965000", "094139.968000", "094139.970000", "094139.973000", "094218.853000", "094219.279000", "094219.281000", "094219.284000", "094219.287000", "094219.289000", "094219.292000", "094219.294000", "094219.297000", "094219.309000", "094219.312000", "094219.314000", "094219.317000", "094219.319000", "094219.323000", "094219.326000", "094219.329000", "094219.332000", "094219.334000", "094219.337000", "094258.853000", "094258.855000", "094258.858000", "094258.861000", "094258.863000", "094258.866000", "094258.868000", "094258.871000", "094258.874000", "094258.876000", "094258.879000", "094258.881000", "094258.884000", "094258.886000", "094258.889000", "094258.892000", "094258.894000", "094258.897000", "094258.899000", "094258.902000", "094338.851000", "094338.854000", "094338.857000", "094338.859000", "094338.862000", "094338.865000", "094338.867000", "094338.870000", "094338.872000", "094338.875000", "094338.878000", "094338.880000", "094338.883000", "094338.885000", "094338.888000", "094338.891000", "094338.893000", "094338.896000", "094338.898000", "094338.901000", "094418.852000", "094418.855000", "094418.857000", "094418.860000", "094418.863000", "094418.865000", "094418.868000", "094418.870000", "094418.873000", "094418.876000", "094418.878000", "094418.891000", "094418.893000", "094418.896000", "094418.899000", "094418.901000", "094418.904000", "094418.906000", "094418.909000", "094418.911000", "094458.853000", "094458.855000", "094458.858000", "094458.861000", "094458.863000", "094458.866000", "094458.868000", "094458.871000", "094458.874000", "094458.876000", "094458.879000", "094458.882000", "094458.884000", "094458.887000", "094458.889000", "094458.902000", "094458.904000", "094458.907000", "094458.909000", "094458.912000", "094538.852000", "094538.854000", "094538.857000", "094538.860000", "094538.862000", "094538.865000", "094538.867000", "094538.870000", "094538.873000", "094538.875000", "094538.878000", "094538.880000", "094538.883000", "094538.886000", "094538.888000", "094538.891000", "094538.894000", "094538.896000", "094538.899000", "094538.901000", "094549.456000", "094549.459000", "094549.461000", "094549.464000", "094549.467000", "094549.470000"],
      "InstanceCreationTime": ["093938.865000", "093938.874000", "093938.876000", "093938.879000", "093938.896000", "093938.899000", "093938.901000", "093938.904000", "093938.906000", "093938.909000", "093938.912000", "093938.914000", "093938.917000", "093938.919000", "094018.967000", "094019.505000", "094019.553000", "094019.582000", "094019.616000", "094019.645000", "094019.673000", "094019.702000", "094019.730000", "094019.759000", "094019.811000", "094019.935000", "094019.938000", "094019.940000", "094019.943000", "094019.945000", "094019.948000", "094019.951000", "094019.953000", "094019.956000", "094058.856000", "094058.859000", "094058.862000", "094058.865000", "094058.868000", "094058.870000", "094058.873000", "094058.876000", "094058.878000", "094058.881000", "094058.884000", "094058.886000", "094058.889000", "094058.891000", "094058.894000", "094058.897000", "094058.900000", "094058.902000", "094058.905000", "094058.907000", "094139.900000", "094139.903000", "094139.906000", "094139.908000", "094139.911000", "094139.914000", "094139.916000", "094139.919000", "094139.938000", "094139.940000", "094139.949000", "094139.952000", "094139.955000", "094139.957000", "094139.960000", "094139.962000", "094139.965000", "094139.968000", "094139.970000", "094139.973000", "094218.853000", "094219.279000", "094219.281000", "094219.284000", "094219.287000", "094219.289000", "094219.292000", "094219.294000", "094219.297000", "094219.309000", "094219.312000", "094219.314000", "094219.317000", "094219.319000", "094219.323000", "094219.326000", "094219.329000", "094219.332000", "094219.334000", "094219.337000", "094258.853000", "094258.855000", "094258.858000", "094258.861000", "094258.863000", "094258.866000", "094258.868000", "094258.871000", "094258.874000", "094258.876000", "094258.879000", "094258.881000", "094258.884000", "094258.886000", "094258.889000", "094258.892000", "094258.894000", "094258.897000", "094258.899000", "094258.902000", "094338.851000", "094338.854000", "094338.857000", "094338.859000", "094338.862000", "094338.865000", "094338.867000", "094338.870000", "094338.872000", "094338.875000", "094338.878000", "094338.880000", "094338.883000", "094338.885000", "094338.888000", "094338.891000", "094338.893000", "094338.896000", "094338.898000", "094338.901000", "094418.852000", "094418.855000", "094418.857000", "094418.860000", "094418.863000", "094418.865000", "094418.868000", "094418.870000", "094418.873000", "094418.876000", "094418.878000", "094418.891000", "094418.893000", "094418.896000", "094418.899000", "094418.901000", "094418.904000", "094418.906000", "094418.909000", "094418.911000", "094458.853000", "094458.855000", "094458.858000", "094458.861000", "094458.863000", "094458.866000", "094458.868000", "094458.871000", "094458.874000", "094458.876000", "094458.879000", "094458.882000", "094458.884000", "094458.887000", "094458.889000", "094458.902000", "094458.904000", "094458.907000", "094458.909000", "094458.912000", "094538.852000", "094538.854000", "094538.857000", "094538.860000", "094538.862000", "094538.865000", "094538.867000", "094538.870000", "094538.873000", "094538.875000", "094538.878000", "094538.880000", "094538.883000", "094538.886000", "094538.888000", "094538.891000", "094538.894000", "094538.896000", "094538.899000", "094538.901000", "094549.456000", "094549.459000", "094549.461000", "094549.464000", "094549.467000", "094549.470000"],
      "InstanceNumber": [1, 2, 3, 4, 5, 6, 7, 8, 9, 10, 11, 12, 13, 14, 15, 16, 17, 18, 19, 20, 21, 22, 23, 24, 25, 26, 27, 28, 29, 30, 31, 32, 33, 34, 35, 36, 37, 38, 39, 40, 41, 42, 43, 44, 45, 46, 47, 48, 49, 50, 51, 52, 53, 54, 55, 56, 57, 58, 59, 60, 61, 62, 63, 64, 65, 66, 67, 68, 69, 70, 71, 72, 73, 74, 75, 76, 77, 78, 79, 80, 81, 82, 83, 84, 85, 86, 87, 88, 89, 90, 91, 92, 93, 94, 95, 96, 97, 98, 99, 100, 101, 102, 103, 104, 105, 106, 107, 108, 109, 110, 111, 112, 113, 114, 115, 116, 117, 118, 119, 120, 121, 122, 123, 124, 125, 126, 127, 128, 129, 130, 131, 132, 133, 134, 135, 136, 137, 138, 139, 140, 141, 142, 143, 144, 145, 146, 147, 148, 149, 150, 151, 152, 153, 154, 155, 156, 157, 158, 159, 160, 161, 162, 163, 164, 165, 166, 167, 168, 169, 170, 171, 172, 173, 174, 175, 176, 177, 178, 179, 180, 181, 182, 183, 184, 185, 186, 187, 188, 189, 190, 191, 192, 193, 194, 195, 196, 197, 198, 199, 200],
      "LargestImagePixelValue": [2066, 2064, 2064, 2069, 2065, 2066, 2069, 2069, 2063, 2070, 2065, 2064, 2066, 2067, 2065, 2071, 2065, 2062, 2061, 2071, 2070, 2066, 2065, 2066, 2067, 2068, 2060, 2067, 2064, 2068, 2065, 2063, 2067, 2071, 2069, 2067, 2063, 2069, 2066, 2063, 2068, 2067, 2067, 2065, 2065, 2066, 2065, 2069, 2064, 2066, 2064, 2072, 2070, 2068, 2064, 2066, 2071, 2065, 2068, 2074, 2075, 2067, 2069, 2068, 2069, 2069, 2069, 2064, 2070, 2067, 2068, 2070, 2064, 2069, 2066, 2069, 2070, 2068, 2066, 2063, 2069, 2067, 2068, 2073, 2066, 2066, 2063, 2071, 2065, 2063, 2065, 2066, 2063, 2065, 2068, 2070, 2070, 2073, 2069, 2067, 2065, 2071, 2073, 2063, 2064, 2064, 2069, 2073, 2064, 2063, 2066, 2067, 2070, 2069, 2070, 2064, 2068, 2070, 2067, 2069, 2065, 2062, 2071, 2066, 2069, 2068, 2066, 2066, 2069, 2068, 2065, 2070, 2070, 2071, 2068, 2065, 2071, 2070, 2070, 2067, 2070, 2073, 2070, 2070, 2067, 2065, 2067, 2066, 2068, 2063, 2068, 2068, 2072, 2063, 2068, 2068, 2075, 2071, 2073, 2069, 2067, 2072, 2065, 2067, 2065, 2066, 2070, 2067, 2062, 2067, 2069, 2066, 2071, 2067, 2066, 2068, 2068, 2066, 2071, 2070, 2068, 2068, 2063, 2068, 2068, 2067, 2067, 2067, 2067, 2066, 2068, 2065, 2066, 2068, 2066, 2066, 2067, 2063, 2062, 2068],
      "WindowWidth": [2104.0, 2104.0, 2104.0, 2104.0, 2104.0, 2104.0, 2104.0, 2104.0, 2104.0, 2104.0, 2104.0, 2104.0, 2104.0, 2104.0, 2104.0, 2104.0, 2104.0, 2104.0, 2104.0, 2104.0, 2104.0, 2104.0, 2104.0, 2105.0, 2104.0, 2104.0, 2105.0, 2104.0, 2104.0, 2104.0, 2104.0, 2104.0, 2104.0, 2104.0, 2104.0, 2104.0, 2104.0, 2104.0, 2104.0, 2104.0, 2104.0, 2104.0, 2104.0, 2104.0, 2104.0, 2104.0, 2104.0, 2104.0, 2104.0, 2105.0, 2104.0, 2104.0, 2104.0, 2104.0, 2104.0, 2104.0, 2105.0, 2104.0, 2104.0, 2105.0, 2104.0, 2105.0, 2104.0, 2104.0, 2104.0, 2105.0, 2105.0, 2105.0, 2105.0, 2104.0, 2104.0, 2104.0, 2104.0, 2104.0, 2104.0, 2104.0, 2105.0, 2104.0, 2104.0, 2104.0, 2104.0, 2104.0, 2104.0, 2104.0, 2104.0, 2104.0, 2104.0, 2104.0, 2104.0, 2104.0, 2104.0, 2104.0, 2104.0, 2104.0, 2104.0, 2104.0, 2104.0, 2104.0, 2104.0, 2104.0, 2104.0, 2104.0, 2104.0, 2104.0, 2104.0, 2104.0, 2104.0, 2104.0, 2104.0, 2104.0, 2104.0, 2104.0, 2104.0, 2104.0, 2104.0, 2104.0, 2104.0, 2104.0, 2104.0, 2104.0, 2104.0, 2104.0, 2104.0, 2104.0, 2104.0, 2104.0, 2104.0, 2104.0, 2104.0, 2104.0, 2104.0, 2104.0, 2104.0, 2104.0, 2104.0, 2104.0, 2104.0, 2104.0, 2104.0, 2104.0, 2104.0, 2104.0, 2104.0, 2104.0, 2104.0, 2104.0, 2104.0, 2104.0, 2104.0, 2104.0, 2104.0, 2104.0, 2104.0, 2104.0, 2104.0, 2104.0, 2104.0, 2104.0, 2104.0, 2104.0, 2104.0, 2104.0, 2104.0, 2104.0, 2104.0, 2104.0, 2104.0, 2104.0, 2104.0, 2104.0, 2104.0, 2104.0, 2104.0, 2104.0, 2104.0, 2104.0, 2104.0, 2104.0, 2104.0, 2104.0, 2104.0, 2104.0, 2104.0, 2104.0, 2104.0, 2104.0, 2104.0, 2104.0, 2104.0, 2103.0, 2104.0, 2104.0, 2104.0, 2104.0, 2104.0, 2104.0, 2104.0, 2104.0, 2104.0, 2104.0]
    },
    "slices": {}
  }
}