{
  "AcquisitionMatrixPE": 80,
  "AcquisitionNumber": 1,
  "AcquisitionTime": "09:32:16.205000",
  "BandwidthPerPixelPhaseEncode": 48.077,
  "BaseResolution": 80,
  "BodyPartExamined": "BRAIN",
  "CoilCombinationMethod": "Sum of Squares",
  "ConsistencyInfo": "N4_VE11C_LATEST_20160120",
  "ConversionSoftware": "dcm2niix",
  "ConversionSoftwareVersion": "v1.0.20220720",
  "DerivedVendorReportedEchoSpacing": 0.000519999,
  "DeviceSerialNumber": "66112",
  "DwellTime": 2.7e-06,
  "EchoTime": 0.035,
  "EchoTrainLength": 39,
  "EffectiveEchoSpacing": 0.00026,
  "FlipAngle": 90,
  "HeudiconvVersion": "0.13.1",
  "ImageOrientationPatientDICOM": [0.97234, 0.233317, 0.0108615, -0.225555, 0.925881, 0.303099],
  "ImageOrientationText": "Tra>Cor(17.3)>Sag(-3.5)",
  "ImageType": [
    "ORIGINAL",
    "PRIMARY",
    "M",
    "ND",
    "NORM",
    "MOSAIC"
],
  "ImagingFrequency": 123.252,
  "InPlanePhaseEncodingDirectionDICOM": "COL",
  "InstitutionAddress": "Maynard 3,Hanover,NH,US,03755",
  "InstitutionName": "Dartmouth College - PBS",
  "InstitutionalDepartmentName": "Department",
  "MRAcquisitionType": "2D",
  "MagneticFieldStrength": 3,
  "Manufacturer": "Siemens",
  "ManufacturersModelName": "Prisma",
  "MatrixCoilMode": "GRAPPA",
  "Modality": "MR",
  "NonlinearGradientCorrection": false,
  "ParallelReductionFactorInPlane": 2,
  "PartialFourier": 1,
  "PatientPosition": "HFS",
  "PercentPhaseFOV": 100,
  "PercentSampling": 100,
  "PhaseEncodingDirection": "j-",
  "PhaseEncodingSteps": 79,
  "PhaseResolution": 1,
  "PixelBandwidth": 2315,
  "ProcedureStepDescription": "dbic^QA",
  "ProtocolName": "func-bold_task-rest_acq-p2",
  "PulseSequenceDetails": "%SiemensSeq%\\ep2d_bold",
  "ReceiveCoilActiveElements": "HEA;HEP",
  "ReceiveCoilName": "Head_32",
  "ReconMatrixPE": 80,
  "RefLinesPE": 24,
  "RepetitionTime": 2,
  "SAR": 0.0555206,
  "ScanOptions": "FS",
  "ScanningSequence": "EP",
  "SequenceName": "*epfid2d1_80",
  "SequenceVariant": "SK",
  "SeriesDescription": "func-bold_task-rest_acq-p2",
  "SeriesNumber": 5,
  "ShimSetting": [4174, -7687, -7514, 270, 59, -63, 42, 128],
  "SliceThickness": 3.5,
  "SliceTiming": [0.99, 0, 1.0575, 0.0675, 1.1225, 0.1325, 1.1875, 0.1975, 1.255, 0.265, 1.32, 0.33, 1.3875, 0.3975, 1.4525, 0.4625, 1.5175, 0.5275, 1.585, 0.595, 1.65, 0.66, 1.7175, 0.7275, 1.7825, 0.7925, 1.8475, 0.8575, 1.915, 0.925],
  "SoftwareVersions": "syngo MR E11",
  "SpacingBetweenSlices": 3.99,
  "StationName": "AWP66112",
  "TaskName": "rest",
  "TotalReadoutTime": 0.02054,
  "TxRefAmp": 233.583,
  "dcmmeta_affine": [
    [-2.917019844055176, -0.6766654849052429, -0.24204117059707642, 151.0302734375],
    [-0.6999523639678955, 2.7776429653167725, 1.1856907606124878, -86.8746109008789],
    [0.03258448466658592, -0.9092984199523926, 3.8020591735839844, -24.036697387695312],
    [0.0, 0.0, 0.0, 1.0]
],
  "dcmmeta_reorient_transform": [
    [0.0, -1.0, 0.0, 79.0],
    [1.0, 0.0, 0.0, 0.0],
    [0.0, 0.0, 1.0, 0.0],
    [0.0, 0.0, 0.0, 1.0]
],
  "dcmmeta_shape": [80, 80, 30, 200],
  "dcmmeta_slice_dim": 2,
  "dcmmeta_version": 0.6,
  "global": {
    "const": {
      "AccessionNumber": "qa",
      "AcquisitionMatrix": [80, 0, 0, 80],
      "AngioFlag": "N",
      "BitsAllocated": 16,
      "BitsStored": 12,
      "BodyPartExamined": "BRAIN",
      "Columns": 480,
      "EchoNumbers": 1,
      "EchoTime": 35.0,
      "EchoTrainLength": 39,
      "FlipAngle": 90.0,
      "HighBit": 11,
      "ImageOrientationPatient": [0.97233995783614, 0.23331745393602, 0.0108614954782, -0.2255551699475, 0.92588097118983, 0.3030994762426],
      "ImagePositionPatient": [-545.64456380509, -828.07823365577, -284.24785682281],
      "ImageType": [
        "ORIGINAL",
        "PRIMARY",
        "M",
        "ND",
        "NORM",
        "MOSAIC"
],
      "ImagedNucleus": "1H",
      "ImagingFrequency": 123.25247,
      "InPlanePhaseEncodingDirection": "COL",
      "MRAcquisitionType": "2D",
      "MagneticFieldStrength": 3.0,
      "Manufacturer": "SIEMENS",
      "ManufacturerModelName": "Prisma",
      "Modality": "MR",
      "NumberOfAverages": 1.0,
      "NumberOfPhaseEncodingSteps": 79,
      "PercentPhaseFieldOfView": 100.0,
      "PercentSampling": 100.0,
      "PerformedProcedureStepStartTime": "092831.185000",
      "PhotometricInterpretation": "MONOCHROME2",
      "PixelBandwidth": 2315.0,
      "PixelRepresentation": 0,
      "PixelSpacing": [3.0, 3.0],
      "ProtocolName": "func-bold_task-rest_acq-p2",
      "RepetitionTime": 2000.0,
      "Rows": 480,
      "SAR": 0.0555206194099,
      "SamplesPerPixel": 1,
      "ScanOptions": "FS",
      "ScanningSequence": "EP",
      "SequenceName": "*epfid2d1_80",
      "SequenceVariant": "SK",
      "SeriesDescription": "func-bold_task-rest_acq-p2",
      "SeriesNumber": 5,
      "SeriesTime": "093258.783000",
      "SliceLocation": -57.882433696156,
      "SliceThickness": 3.5,
      "SmallestImagePixelValue": 0,
      "SoftwareVersions": "syngo MR E11",
      "SpacingBetweenSlices": 3.990000048911,
      "SpecificCharacterSet": "ISO_IR 100",
      "StudyID": "107",
      "StudyTime": "092831.124000",
      "TransmitCoilName": "Body",
      "VariableFlipAngleFlag": "N",
      "WindowCenterWidthExplanation": "Algo1",
      "dBdt": 0.0},
    "slices": {}
  },
  "time": {
    "samples": {
      "AcquisitionNumber": [1, 2, 3, 4, 5, 6, 7, 8, 9, 10, 11, 12, 13, 14, 15, 16, 17, 18, 19, 20, 21, 22, 23, 24, 25, 26, 27, 28, 29, 30, 31, 32, 33, 34, 35, 36, 37, 38, 39, 40, 41, 42, 43, 44, 45, 46, 47, 48, 49, 50, 51, 52, 53, 54, 55, 56, 57, 58, 59, 60, 61, 62, 63, 64, 65, 66, 67, 68, 69, 70, 71, 72, 73, 74, 75, 76, 77, 78, 79, 80, 81, 82, 83, 84, 85, 86, 87, 88, 89, 90, 91, 92, 93, 94, 95, 96, 97, 98, 99, 100, 101, 102, 103, 104, 105, 106, 107, 108, 109, 110, 111, 112, 113, 114, 115, 116, 117, 118, 119, 120, 121, 122, 123, 124, 125, 126, 127, 128, 129, 130, 131, 132, 133, 134, 135, 136, 137, 138, 139, 140, 141, 142, 143, 144, 145, 146, 147, 148, 149, 150, 151, 152, 153, 154, 155, 156, 157, 158, 159, 160, 161, 162, 163, 164, 165, 166, 167, 168, 169, 170, 171, 172, 173, 174, 175, 176, 177, 178, 179, 180, 181, 182, 183, 184, 185, 186, 187, 188, 189, 190, 191, 192, 193, 194, 195, 196, 197, 198, 199, 200],
      "AcquisitionTime": ["093216.205000", "093218.205000", "093220.205000", "093222.205000", "093224.205000", "093226.205000", "093228.205000", "093230.205000", "093232.205000", "093234.205000", "093236.205000", "093238.205000", "093240.205000", "093242.205000", "093244.205000", "093246.205000", "093248.205000", "093250.205000", "093252.205000", "093254.205000", "093256.205000", "093258.205000", "093300.205000", "093302.205000", "093304.205000", "093306.205000", "093308.205000", "093310.205000", "093312.205000", "093314.205000", "093316.205000", "093318.205000", "093320.205000", "093322.205000", "093324.205000", "093326.205000", "093328.205000", "093330.205000", "093332.205000", "093334.205000", "093336.205000", "093338.205000", "093340.205000", "093342.205000", "093344.205000", "093346.205000", "093348.205000", "093350.205000", "093352.205000", "093354.205000", "093356.205000", "093358.205000", "093400.205000", "093402.205000", "093404.205000", "093406.205000", "093408.205000", "093410.205000", "093412.205000", "093414.205000", "093416.205000", "093418.205000", "093420.205000", "093422.205000", "093424.205000", "093426.205000", "093428.205000", "093430.205000", "093432.205000", "093434.205000", "093436.205000", "093438.205000", "093440.205000", "093442.205000", "093444.205000", "093446.205000", "093448.205000", "093450.205000", "093452.205000", "093454.205000", "093456.205000", "093458.205000", "093500.205000", "093502.205000", "093504.205000", "093506.205000", "093508.205000", "093510.205000", "093512.205000", "093514.205000", "093516.205000", "093518.205000", "093520.205000", "093522.205000", "093524.205000", "093526.205000", "093528.205000", "093530.205000", "093532.205000", "093534.205000", "093536.205000", "093538.205000", "093540.205000", "093542.205000", "093544.205000", "093546.205000", "093548.205000", "093550.205000", "093552.205000", "093554.205000", "093556.205000", "093558.205000", "093600.205000", "093602.205000", "093604.205000", "093606.205000", "093608.205000", "093610.205000", "093612.205000", "093614.205000", "093616.205000", "093618.205000", "093620.205000", "093622.205000", "093624.205000", "093626.205000", "093628.205000", "093630.205000", "093632.205000", "093634.205000", "093636.205000", "093638.205000", "093640.205000", "093642.205000", "093644.205000", "093646.205000", "093648.205000", "093650.205000", "093652.205000", "093654.205000", "093656.205000", "093658.205000", "093700.205000", "093702.205000", "093704.205000", "093706.205000", "093708.205000", "093710.205000", "093712.205000", "093714.205000", "093716.205000", "093718.205000", "093720.205000", "093722.205000", "093724.205000", "093726.205000", "093728.205000", "093730.205000", "093732.205000", "093734.205000", "093736.205000", "093738.205000", "093740.205000", "093742.205000", "093744.205000", "093746.205000", "093748.205000", "093750.205000", "093752.205000", "093754.205000", "093756.205000", "093758.205000", "093800.205000", "093802.205000", "093804.205000", "093806.205000", "093808.205000", "093810.205000", "093812.205000", "093814.205000", "093816.205000", "093818.205000", "093820.205000", "093822.205000", "093824.205000", "093826.205000", "093828.205000", "093830.205000", "093832.205000", "093834.205000", "093836.205000", "093838.205000", "093840.205000", "093842.205000", "093844.205000", "093846.205000", "093848.205000", "093850.205000", "093852.205000", "093854.205000"],
      "ContentTime": ["093258.787000", "093258.791000", "093258.793000", "093258.796000", "093258.798000", "093258.801000", "093258.803000", "093258.806000", "093258.808000", "093258.811000", "093258.813000", "093258.816000", "093258.819000", "093258.821000", "093258.824000", "093258.826000", "093258.829000", "093258.831000", "093258.834000", "093258.836000", "093258.845000", "093338.783000", "093338.786000", "093338.788000", "093338.791000", "093338.793000", "093338.796000", "093338.798000", "093338.801000", "093338.804000", "093338.806000", "093338.809000", "093338.811000", "093338.814000", "093338.816000", "093338.819000", "093338.822000", "093338.824000", "093338.827000", "093338.829000", "093338.832000", "093418.781000", "093418.846000", "093418.849000", "093418.851000", "093418.854000", "093418.857000", "093418.859000", "093418.862000", "093418.864000", "093418.867000", "093418.869000", "093418.872000", "093418.874000", "093418.877000", "093418.879000", "093418.882000", "093418.885000", "093418.887000", "093418.890000", "093418.892000", "093458.782000", "093458.785000", "093458.787000", "093458.790000", "093458.792000", "093458.795000", "093458.797000", "093458.800000", "093458.802000", "093458.805000", "093458.808000", "093458.810000", "093458.813000", "093458.815000", "093458.818000", "093458.820000", "093458.823000", "093458.825000", "093458.828000", "093458.830000", "093538.783000", "093538.785000", "093538.788000", "093538.791000", "093538.793000", "093538.796000", "093538.798000", "093538.801000", "093538.804000", "093538.806000", "093538.809000", "093538.811000", "093538.814000", "093538.816000", "093538.819000", "093538.822000", "093538.824000", "093538.827000", "093538.829000", "093538.832000", "093618.781000", "093618.784000", "093618.787000", "093618.790000", "093618.792000", "093618.795000", "093618.797000", "093618.800000", "093618.802000", "093618.805000", "093618.808000", "093618.810000", "093618.813000", "093618.815000", "093618.818000", "093618.820000", "093618.823000", "093618.826000", "093618.828000", "093618.831000", "093658.782000", "093658.785000", "093658.787000", "093658.790000", "093658.793000", "093658.795000", "093658.798000", "093658.801000", "093658.803000", "093658.806000", "093658.809000", "093658.811000", "093658.814000", "093658.817000", "093658.819000", "093658.822000", "093658.825000", "093658.828000", "093658.830000", "093658.833000", "093738.782000", "093738.785000", "093738.787000", "093738.790000", "093738.792000", "093738.795000", "093738.797000", "093738.800000", "093738.802000", "093738.805000", "093738.808000", "093738.810000", "093738.813000", "093738.815000", "093738.818000", "093738.821000", "093738.823000", "093738.826000", "093738.828000", "093738.831000", "093818.782000", "093818.815000", "093818.818000", "093818.820000", "093818.823000", "093818.826000", "093818.828000", "093818.831000", "093818.833000", "093818.836000", "093818.838000", "093818.841000", "093818.843000", "093818.846000", "093818.849000", "093818.851000", "093818.854000", "093818.856000", "093818.859000", "093818.862000", "093855.410000", "093855.412000", "093855.415000", "093855.418000", "093855.421000", "093855.423000", "093855.426000", "093855.428000", "093855.431000", "093855.434000", "093855.437000", "093855.441000", "093855.446000", "093855.449000", "093855.453000", "093855.457000", "093855.464000", "093855.468000", "093855.471000"],
      "InstanceCreationTime": ["093258.787000", "093258.791000", "093258.793000", "093258.796000", "093258.798000", "093258.801000", "093258.803000", "093258.806000", "093258.808000", "093258.811000", "093258.813000", "093258.816000", "093258.819000", "093258.821000", "093258.824000", "093258.826000", "093258.829000", "093258.831000", "093258.834000", "093258.836000", "093258.845000", "093338.783000", "093338.786000", "093338.788000", "093338.791000", "093338.793000", "093338.796000", "093338.798000", "093338.801000", "093338.804000", "093338.806000", "093338.809000", "093338.811000", "093338.814000", "093338.816000", "093338.819000", "093338.822000", "093338.824000", "093338.827000", "093338.829000", "093338.832000", "093418.781000", "093418.846000", "093418.849000", "093418.851000", "093418.854000", "093418.857000", "093418.859000", "093418.862000", "093418.864000", "093418.867000", "093418.869000", "093418.872000", "093418.874000", "093418.877000", "093418.879000", "093418.882000", "093418.885000", "093418.887000", "093418.890000", "093418.892000", "093458.782000", "093458.785000", "093458.787000", "093458.790000", "093458.792000", "093458.795000", "093458.797000", "093458.800000", "093458.802000", "093458.805000", "093458.808000", "093458.810000", "093458.813000", "093458.815000", "093458.818000", "093458.820000", "093458.823000", "093458.825000", "093458.828000", "093458.830000", "093538.783000", "093538.785000", "093538.788000", "093538.791000", "093538.793000", "093538.796000", "093538.798000", "093538.801000", "093538.804000", "093538.806000", "093538.809000", "093538.811000", "093538.814000", "093538.816000", "093538.819000", "093538.822000", "093538.824000", "093538.827000", "093538.829000", "093538.832000", "093618.781000", "093618.784000", "093618.787000", "093618.790000", "093618.792000", "093618.795000", "093618.797000", "093618.800000", "093618.802000", "093618.805000", "093618.808000", "093618.810000", "093618.813000", "093618.815000", "093618.818000", "093618.820000", "093618.823000", "093618.826000", "093618.828000", "093618.831000", "093658.782000", "093658.785000", "093658.787000", "093658.790000", "093658.793000", "093658.795000", "093658.798000", "093658.801000", "093658.803000", "093658.806000", "093658.809000", "093658.811000", "093658.814000", "093658.817000", "093658.819000", "093658.822000", "093658.825000", "093658.828000", "093658.830000", "093658.833000", "093738.782000", "093738.785000", "093738.787000", "093738.790000", "093738.792000", "093738.795000", "093738.797000", "093738.800000", "093738.802000", "093738.805000", "093738.808000", "093738.810000", "093738.813000", "093738.815000", "093738.818000", "093738.821000", "093738.823000", "093738.826000", "093738.828000", "093738.831000", "093818.782000", "093818.815000", "093818.818000", "093818.820000", "093818.823000", "093818.826000", "093818.828000", "093818.831000", "093818.833000", "093818.836000", "093818.838000", "093818.841000", "093818.843000", "093818.846000", "093818.849000", "093818.851000", "093818.854000", "093818.856000", "093818.859000", "093818.862000", "093855.410000", "093855.412000", "093855.415000", "093855.418000", "093855.421000", "093855.423000", "093855.426000", "093855.428000", "093855.431000", "093855.434000", "093855.437000", "093855.441000", "093855.446000", "093855.449000", "093855.453000", "093855.457000", "093855.464000", "093855.468000", "093855.471000"],
      "InstanceNumber": [1, 2, 3, 4, 5, 6, 7, 8, 9, 10, 11, 12, 13, 14, 15, 16, 17, 18, 19, 20, 21, 22, 23, 24, 25, 26, 27, 28, 29, 30, 31, 32, 33, 34, 35, 36, 37, 38, 39, 40, 41, 42, 43, 44, 45, 46, 47, 48, 49, 50, 51, 52, 53, 54, 55, 56, 57, 58, 59, 60, 61, 62, 63, 64, 65, 66, 67, 68, 69, 70, 71, 72, 73, 74, 75, 76, 77, 78, 79, 80, 81, 82, 83, 84, 85, 86, 87, 88, 89, 90, 91, 92, 93, 94, 95, 96, 97, 98, 99, 100, 101, 102, 103, 104, 105, 106, 107, 108, 109, 110, 111, 112, 113, 114, 115, 116, 117, 118, 119, 120, 121, 122, 123, 124, 125, 126, 127, 128, 129, 130, 131, 132, 133, 134, 135, 136, 137, 138, 139, 140, 141, 142, 143, 144, 145, 146, 147, 148, 149, 150, 151, 152, 153, 154, 155, 156, 157, 158, 159, 160, 161, 162, 163, 164, 165, 166, 167, 168, 169, 170, 171, 172, 173, 174, 175, 176, 177, 178, 179, 180, 181, 182, 183, 184, 185, 186, 187, 188, 189, 190, 191, 192, 193, 194, 195, 196, 197, 198, 199, 200],
      "LargestImagePixelValue": [2075, 2081, 2081, 2082, 2081, 2076, 2080, 2078, 2079, 2085, 2082, 2083, 2085, 2082, 2083, 2083, 2082, 2078, 2087, 2083, 2072, 2076, 2086, 2087, 2083, 2082, 2078, 2075, 2083, 2083, 2082, 2077, 2079, 2077, 2081, 2073, 2083, 2083, 2078, 2070, 2080, 2081, 2074, 2071, 2078, 2077, 2078, 2074, 2075, 2072, 2071, 2074, 2077, 2072, 2073, 2078, 2067, 2075, 2073, 2078, 2076, 2082, 2074, 2088, 2078, 2073, 2082, 2085, 2076, 2074, 2077, 2078, 2080, 2072, 2076, 2079, 2082, 2077, 2082, 2085, 2074, 2076, 2075, 2074, 2076, 2077, 2079, 2075, 2081, 2078, 2081, 2082, 2085, 2071, 2074, 2074, 2080, 2075, 2078, 2078, 2077, 2078, 2077, 2073, 2075, 2077, 2073, 2077, 2076, 2081, 2069, 2082, 2078, 2075, 2079, 2079, 2080, 2078, 2071, 2085, 2076, 2078, 2080, 2077, 2078, 2076, 2075, 2083, 2080, 2075, 2079, 2083, 2082, 2078, 2078, 2078, 2074, 2074, 2076, 2077, 2075, 2084, 2070, 2077, 2077, 2069, 2074, 2078, 2080, 2076, 2073, 2075, 2076, 2077, 2078, 2071, 2073, 2075, 2075, 2073, 2076, 2083, 2074, 2073, 2079, 2083, 2081, 2084, 2076, 2077, 2074, 2079, 2078, 2079, 2072, 2075, 2085, 2077, 2073, 2078, 2071, 2080, 2080, 2072, 2078, 2078, 2076, 2080, 2077, 2077, 2074, 2079, 2076, 2074, 2079, 2072, 2077, 2085, 2078, 2071],
      "WindowCenter": [993.0, 993.0, 992.0, 992.0, 993.0, 992.0, 992.0, 992.0, 992.0, 992.0, 992.0, 992.0, 992.0, 992.0, 992.0, 992.0, 992.0, 993.0, 993.0, 992.0, 992.0, 992.0, 992.0, 992.0, 992.0, 992.0, 992.0, 993.0, 992.0, 992.0, 992.0, 992.0, 992.0, 992.0, 992.0, 993.0, 992.0, 992.0, 992.0, 992.0, 993.0, 992.0, 992.0, 992.0, 992.0, 992.0, 992.0, 992.0, 992.0, 992.0, 993.0, 992.0, 992.0, 992.0, 992.0, 992.0, 992.0, 992.0, 992.0, 992.0, 993.0, 992.0, 992.0, 992.0, 992.0, 992.0, 992.0, 992.0, 992.0, 992.0, 992.0, 992.0, 991.0, 991.0, 991.0, 991.0, 991.0, 991.0, 991.0, 991.0, 991.0, 992.0, 992.0, 991.0, 992.0, 991.0, 991.0, 991.0, 991.0, 991.0, 991.0, 991.0, 991.0, 991.0, 991.0, 991.0, 991.0, 991.0, 992.0, 991.0, 991.0, 992.0, 991.0, 991.0, 991.0, 991.0, 991.0, 991.0, 991.0, 991.0, 991.0, 991.0, 991.0, 991.0, 991.0, 991.0, 991.0, 991.0, 991.0, 991.0, 991.0, 991.0, 991.0, 991.0, 991.0, 991.0, 991.0, 991.0, 991.0, 991.0, 991.0, 992.0, 991.0, 991.0, 991.0, 991.0, 991.0, 992.0, 991.0, 991.0, 991.0, 992.0, 991.0, 991.0, 991.0, 992.0, 992.0, 991.0, 991.0, 991.0, 991.0, 992.0, 991.0, 991.0, 991.0, 991.0, 991.0, 990.0, 991.0, 990.0, 990.0, 990.0, 990.0, 990.0, 991.0, 990.0, 990.0, 990.0, 990.0, 991.0, 990.0, 990.0, 991.0, 990.0, 990.0, 990.0, 990.0, 990.0, 990.0, 991.0, 990.0, 990.0, 990.0, 990.0, 990.0, 990.0, 990.0, 990.0, 990.0, 990.0, 990.0, 990.0, 990.0, 990.0, 990.0, 990.0, 990.0, 990.0, 990.0, 990.0],
      "WindowWidth": [2173.0, 2173.0, 2172.0, 2172.0, 2173.0, 2172.0, 2172.0, 2172.0, 2172.0, 2172.0, 2172.0, 2172.0, 2172.0, 2172.0, 2172.0, 2172.0, 2172.0, 2173.0, 2173.0, 2172.0, 2172.0, 2172.0, 2172.0, 2172.0, 2172.0, 2172.0, 2172.0, 2172.0, 2172.0, 2172.0, 2172.0, 2172.0, 2172.0, 2172.0, 2172.0, 2173.0, 2172.0, 2172.0, 2171.0, 2171.0, 2172.0, 2171.0, 2171.0, 2171.0, 2171.0, 2171.0, 2171.0, 2171.0, 2171.0, 2171.0, 2172.0, 2171.0, 2171.0, 2171.0, 2171.0, 2171.0, 2171.0, 2171.0, 2171.0, 2171.0, 2171.0, 2171.0, 2171.0, 2171.0, 2171.0, 2171.0, 2171.0, 2170.0, 2170.0, 2170.0, 2170.0, 2171.0, 2170.0, 2170.0, 2170.0, 2171.0, 2170.0, 2170.0, 2170.0, 2170.0, 2170.0, 2171.0, 2171.0, 2170.0, 2171.0, 2170.0, 2170.0, 2170.0, 2170.0, 2171.0, 2170.0, 2170.0, 2170.0, 2170.0, 2170.0, 2170.0, 2170.0, 2170.0, 2171.0, 2170.0, 2170.0, 2171.0, 2170.0, 2170.0, 2170.0, 2170.0, 2170.0, 2170.0, 2170.0, 2170.0, 2169.0, 2169.0, 2170.0, 2169.0, 2169.0, 2170.0, 2169.0, 2170.0, 2169.0, 2169.0, 2169.0, 2169.0, 2169.0, 2169.0, 2169.0, 2169.0, 2169.0, 2169.0, 2169.0, 2169.0, 2169.0, 2169.0, 2169.0, 2169.0, 2168.0, 2168.0, 2169.0, 2169.0, 2168.0, 2169.0, 2168.0, 2169.0, 2168.0, 2168.0, 2168.0, 2169.0, 2169.0, 2169.0, 2168.0, 2168.0, 2168.0, 2169.0, 2168.0, 2168.0, 2168.0, 2168.0, 2168.0, 2168.0, 2169.0, 2168.0, 2168.0, 2168.0, 2168.0, 2168.0, 2168.0, 2168.0, 2168.0, 2168.0, 2168.0, 2168.0, 2168.0, 2168.0, 2168.0, 2168.0, 2168.0, 2168.0, 2167.0, 2167.0, 2168.0, 2168.0, 2168.0, 2168.0, 2167.0, 2167.0, 2168.0, 2167.0, 2167.0, 2167.0, 2167.0, 2167.0, 2167.0, 2167.0, 2167.0, 2167.0, 2167.0, 2167.0, 2167.0, 2167.0, 2167.0, 2167.0]
    },
    "slices": {}
  }
}