{
  "AcquisitionMatrixPE": 122,
  "AcquisitionNumber": 1,
  "AcquisitionTime": "11:01:16.470000",
  "BandwidthPerPixelPhaseEncode": 27.785,
  "BaseResolution": 122,
  "BodyPartExamined": "BRAIN",
  "CoilCombinationMethod": "Adaptive Combine",
  "ConsistencyInfo": "N4_VE11C_LATEST_20160120",
  "ConversionSoftware": "dcm2niix",
  "ConversionSoftwareVersion": "v1.0.20220720",
  "DerivedVendorReportedEchoSpacing": 0.000590011,
  "DeviceSerialNumber": "66112",
  "DiffusionScheme": "Monopolar",
  "DwellTime": 2e-06,
  "EchoTime": 0.068,
  "EchoTrainLength": 61,
  "EffectiveEchoSpacing": 0.000295005,
  "FlipAngle": 90,
  "HeudiconvVersion": "0.13.1",
  "ImageOrientationPatientDICOM": [0.991043, 0.133242, 0.00892708, -0.129242, 0.940169, 0.315245],
  "ImageOrientationText": "Tra>Cor(18.3)>Sag(-1.9)",
  "ImageType": [
    "ORIGINAL",
    "PRIMARY",
    "DIFFUSION",
    "NONE",
    "ND",
    "NORM"
],
  "ImagingFrequency": 123.252,
  "InPlanePhaseEncodingDirectionDICOM": "COL",
  "InstitutionAddress": "Maynard 3,Hanover,NH,US,03755",
  "InstitutionName": "Dartmouth College - PBS",
  "InstitutionalDepartmentName": "Department",
  "MRAcquisitionType": "2D",
  "MagneticFieldStrength": 3,
  "Manufacturer": "Siemens",
  "ManufacturersModelName": "Prisma",
  "Modality": "MR",
  "MultibandAccelerationFactor": 4,
  "NonlinearGradientCorrection": false,
  "ParallelReductionFactorInPlane": 2,
  "PartialFourier": 1,
  "PatientPosition": "HFS",
  "PercentPhaseFOV": 100,
  "PercentSampling": 100,
  "PhaseEncodingDirection": "j-",
  "PhaseEncodingSteps": 122,
  "PhaseResolution": 1,
  "PixelBandwidth": 2050,
  "ProcedureStepDescription": "dbic^QA",
  "ProtocolName": "dwi_acq-DTI-30-p2-s4",
  "PulseSequenceDetails": "%SiemensSeq%\\ep2d_diff",
  "ReceiveCoilActiveElements": "HEA;HEP",
  "ReceiveCoilName": "Head_32",
  "ReconMatrixPE": 122,
  "RefLinesPE": 38,
  "RepetitionTime": 3.6,
  "SAR": 0.136588,
  "ScanOptions": "FS",
  "ScanningSequence": "EP",
  "SequenceName": "*ep_b0",
  "SequenceVariant": "SK\\SP",
  "SeriesDescription": "dwi_acq-DTI-30-p2-s4",
  "SeriesNumber": 13,
  "ShimSetting": [4145, -7711, -7528, 267, -69, -126, 9, 79],
  "SliceThickness": 2,
  "SliceTiming": [2.58594, 0, 1.78906, 0.20312, 1.99219, 0.39844, 2.1875, 0.59375, 2.39062, 0.99219, 2.78125, 1.19531, 2.98438, 1.39062, 3.17969, 1.59375, 3.38281, 0.79688, 2.58594, 0, 1.78906, 0.20312, 1.99219, 0.39844, 2.1875, 0.59375, 2.39062, 0.99219, 2.78125, 1.19531, 2.98438, 1.39062, 3.17969, 1.59375, 3.38281, 0.79688, 2.58594, 0, 1.78906, 0.20312, 1.99219, 0.39844, 2.1875, 0.59375, 2.39062, 0.99219, 2.78125, 1.19531, 2.98438, 1.39062, 3.17969, 1.59375, 3.38281, 0.79688, 2.58594, 0, 1.78906, 0.20312, 1.99219, 0.39844, 2.1875, 0.59375, 2.39062, 0.99219, 2.78125, 1.19531, 2.98438, 1.39062, 3.17969, 1.59375, 3.38281, 0.79688],
  "SoftwareVersions": "syngo MR E11",
  "SpacingBetweenSlices": 2,
  "SpoilingState": true,
  "StationName": "AWP66112",
  "TotalReadoutTime": 0.0356956,
  "TxRefAmp": 220.739,
  "dcmmeta_affine": [
    [-1.949593424797058, -0.25424620509147644, -0.06722187995910645, 137.24407958984375],
    [-0.26211556792259216, 1.8495122194290161, 0.6271495819091797, -116.86225128173828],
    [0.017561474815011024, -0.6201542019844055, 1.8979339599609375, -30.427536010742188],
    [0.0, 0.0, 0.0, 1.0]
],
  "dcmmeta_reorient_transform": [
    [0.0, -1.0, 0.0, 121.0],
    [1.0, 0.0, 0.0, 0.0],
    [0.0, 0.0, -1.0, 71.0],
    [0.0, 0.0, 0.0, 1.0]
],
  "dcmmeta_shape": [122, 122, 72, 31],
  "dcmmeta_slice_dim": 2,
  "dcmmeta_version": 0.6,
  "global": {
    "const": {
      "AccessionNumber": "qa",
      "AcquisitionMatrix": [122, 0, 0, 122],
      "AngioFlag": "N",
      "BitsAllocated": 16,
      "BitsStored": 12,
      "BodyPartExamined": "BRAIN",
      "Columns": 122,
      "EchoNumbers": 1,
      "EchoTime": 68.0,
      "EchoTrainLength": 61,
      "FlipAngle": 90.0,
      "HighBit": 11,
      "ImageOrientationPatient": [0.99104331777381, 0.13324207101998, 0.00892708273623, -0.1292418165667, 0.94016866606182, 0.31524503518068],
      "ImageType": [
        "ORIGINAL",
        "PRIMARY",
        "DIFFUSION",
        "NONE",
        "ND",
        "NORM"
],
      "ImagedNucleus": "1H",
      "ImagingFrequency": 123.25236,
      "InPlanePhaseEncodingDirection": "COL",
      "MRAcquisitionType": "2D",
      "MagneticFieldStrength": 3.0,
      "Manufacturer": "SIEMENS",
      "ManufacturerModelName": "Prisma",
      "Modality": "MR",
      "NumberOfAverages": 1.0,
      "NumberOfPhaseEncodingSteps": 122,
      "PercentPhaseFieldOfView": 100.0,
      "PercentSampling": 100.0,
      "PerformedProcedureStepStartTime": "102451.418000",
      "PhotometricInterpretation": "MONOCHROME2",
      "PixelBandwidth": 2050.0,
      "PixelRepresentation": 0,
      "PixelSpacing": [1.9672131538391, 1.9672131538391],
      "ProtocolName": "dwi_acq-DTI-30-p2-s4",
      "RepetitionTime": 3600.0,
      "Rows": 122,
      "SAR": 0.13658840335284,
      "SamplesPerPixel": 1,
      "ScanOptions": "FS",
      "ScanningSequence": "EP",
      "SequenceVariant": [
        "SK",
        "SP"
],
      "SeriesDescription": "dwi_acq-DTI-30-p2-s4",
      "SeriesNumber": 13,
      "SeriesTime": "110125.077000",
      "SliceThickness": 2.0,
      "SmallestImagePixelValue": 0,
      "SoftwareVersions": "syngo MR E11",
      "SpacingBetweenSlices": 2.0,
      "SpecificCharacterSet": "ISO_IR 100",
      "StudyID": "32",
      "StudyTime": "102451.375000",
      "TransmitCoilName": "Body",
      "VariableFlipAngleFlag": "N",
      "WindowCenterWidthExplanation": "Algo1",
      "dBdt": 0.0},
    "slices": {
      "AcquisitionTime": ["110116.470000", "110113.882500", "110115.672500", "110114.082500", "110115.872500", "110114.282500", "110116.072500", "110114.480000", "110116.270000", "110114.877500", "110116.667500", "110115.077500", "110116.867500", "110115.275000", "110117.065000", "110115.475000", "110117.265000", "110114.680000", "110116.470000", "110113.882500", "110115.672500", "110114.082500", "110115.872500", "110114.282500", "110116.072500", "110114.480000", "110116.270000", "110114.877500", "110116.667500", "110115.077500", "110116.867500", "110115.275000", "110117.065000", "110115.475000", "110117.265000", "110114.680000", "110116.470000", "110113.882500", "110115.672500", "110114.082500", "110115.872500", "110114.282500", "110116.072500", "110114.480000", "110116.270000", "110114.877500", "110116.667500", "110115.077500", "110116.867500", "110115.275000", "110117.065000", "110115.475000", "110117.265000", "110114.680000", "110116.470000", "110113.882500", "110115.672500", "110114.082500", "110115.872500", "110114.282500", "110116.072500", "110114.480000", "110116.270000", "110114.877500", "110116.667500", "110115.077500", "110116.867500", "110115.275000", "110117.065000", "110115.475000", "110117.265000", "110114.680000", "110120.070000", "110117.482500", "110119.272500", "110117.682500", "110119.472500", "110117.882500", "110119.672500", "110118.080000", "110119.870000", "110118.477500", "110120.267500", "110118.677500", "110120.467500", "110118.875000", "110120.665000", "110119.075000", "110120.865000", "110118.280000", "110120.070000", "110117.482500", "110119.272500", "110117.682500", "110119.472500", "110117.882500", "110119.672500", "110118.080000", "110119.870000", "110118.477500", "110120.267500", "110118.677500", "110120.467500", "110118.875000", "110120.665000", "110119.075000", "110120.865000", "110118.280000", "110120.070000", "110117.482500", "110119.272500", "110117.682500", "110119.472500", "110117.882500", "110119.672500", "110118.080000", "110119.870000", "110118.477500", "110120.267500", "110118.677500", "110120.467500", "110118.875000", "110120.665000", "110119.075000", "110120.865000", "110118.280000", "110120.070000", "110117.482500", "110119.272500", "110117.682500", "110119.472500", "110117.882500", "110119.672500", "110118.080000", "110119.870000", "110118.477500", "110120.267500", "110118.677500", "110120.467500", "110118.875000", "110120.665000", "110119.075000", "110120.865000", "110118.280000", "110123.670000", "110121.082500", "110122.872500", "110121.282500", "110123.072500", "110121.482500", "110123.272500", "110121.680000", "110123.470000", "110122.077500", "110123.867500", "110122.277500", "110124.067500", "110122.475000", "110124.265000", "110122.675000", "110124.465000", "110121.880000", "110123.670000", "110121.082500", "110122.872500", "110121.282500", "110123.072500", "110121.482500", "110123.272500", "110121.680000", "110123.470000", "110122.077500", "110123.867500", "110122.277500", "110124.067500", "110122.475000", "110124.265000", "110122.675000", "110124.465000", "110121.880000", "110123.670000", "110121.082500", "110122.872500", "110121.282500", "110123.072500", "110121.482500", "110123.272500", "110121.680000", "110123.470000", "110122.077500", "110123.867500", "110122.277500", "110124.067500", "110122.475000", "110124.265000", "110122.675000", "110124.465000", "110121.880000", "110123.670000", "110121.082500", "110122.872500", "110121.282500", "110123.072500", "110121.482500", "110123.272500", "110121.680000", "110123.470000", "110122.077500", "110123.867500", "110122.277500", "110124.067500", "110122.475000", "110124.265000", "110122.675000", "110124.465000", "110121.880000", "110127.270000", "110124.682500", "110126.472500", "110124.882500", "110126.672500", "110125.082500", "110126.872500", "110125.280000", "110127.070000", "110125.677500", "110127.467500", "110125.877500", "110127.667500", "110126.075000", "110127.865000", "110126.275000", "110128.065000", "110125.480000", "110127.270000", "110124.682500", "110126.472500", "110124.882500", "110126.672500", "110125.082500", "110126.872500", "110125.280000", "110127.070000", "110125.677500", "110127.467500", "110125.877500", "110127.667500", "110126.075000", "110127.865000", "110126.275000", "110128.065000", "110125.480000", "110127.270000", "110124.682500", "110126.472500", "110124.882500", "110126.672500", "110125.082500", "110126.872500", "110125.280000", "110127.070000", "110125.677500", "110127.467500", "110125.877500", "110127.667500", "110126.075000", "110127.865000", "110126.275000", "110128.065000", "110125.480000", "110127.270000", "110124.682500", "110126.472500", "110124.882500", "110126.672500", "110125.082500", "110126.872500", "110125.280000", "110127.070000", "110125.677500", "110127.467500", "110125.877500", "110127.667500", "110126.075000", "110127.865000", "110126.275000", "110128.065000", "110125.480000", "110130.870000", "110128.282500", "110130.072500", "110128.482500", "110130.272500", "110128.682500", "110130.472500", "110128.880000", "110130.670000", "110129.277500", "110131.067500", "110129.477500", "110131.267500", "110129.675000", "110131.465000", "110129.875000", "110131.665000", "110129.080000", "110130.870000", "110128.282500", "110130.072500", "110128.482500", "110130.272500", "110128.682500", "110130.472500", "110128.880000", "110130.670000", "110129.277500", "110131.067500", "110129.477500", "110131.267500", "110129.675000", "110131.465000", "110129.875000", "110131.665000", "110129.080000", "110130.870000", "110128.282500", "110130.072500", "110128.482500", "110130.272500", "110128.682500", "110130.472500", "110128.880000", "110130.670000", "110129.277500", "110131.067500", "110129.477500", "110131.267500", "110129.675000", "110131.465000", "110129.875000", "110131.665000", "110129.080000", "110130.870000", "110128.282500", "110130.072500", "110128.482500", "110130.272500", "110128.682500", "110130.472500", "110128.880000", "110130.670000", "110129.277500", "110131.067500", "110129.477500", "110131.267500", "110129.675000", "110131.465000", "110129.875000", "110131.665000", "110129.080000", "110134.470000", "110131.882500", "110133.672500", "110132.082500", "110133.872500", "110132.282500", "110134.072500", "110132.480000", "110134.270000", "110132.877500", "110134.667500", "110133.077500", "110134.867500", "110133.275000", "110135.065000", "110133.475000", "110135.265000", "110132.680000", "110134.470000", "110131.882500", "110133.672500", "110132.082500", "110133.872500", "110132.282500", "110134.072500", "110132.480000", "110134.270000", "110132.877500", "110134.667500", "110133.077500", "110134.867500", "110133.275000", "110135.065000", "110133.475000", "110135.265000", "110132.680000", "110134.470000", "110131.882500", "110133.672500", "110132.082500", "110133.872500", "110132.282500", "110134.072500", "110132.480000", "110134.270000", "110132.877500", "110134.667500", "110133.077500", "110134.867500", "110133.275000", "110135.065000", "110133.475000", "110135.265000", "110132.680000", "110134.470000", "110131.882500", "110133.672500", "110132.082500", "110133.872500", "110132.282500", "110134.072500", "110132.480000", "110134.270000", "110132.877500", "110134.667500", "110133.077500", "110134.867500", "110133.275000", "110135.065000", "110133.475000", "110135.265000", "110132.680000", "110138.070000", "110135.482500", "110137.272500", "110135.682500", "110137.472500", "110135.882500", "110137.672500", "110136.080000", "110137.870000", "110136.477500", "110138.267500", "110136.677500", "110138.467500", "110136.875000", "110138.665000", "110137.075000", "110138.865000", "110136.280000", "110138.070000", "110135.482500", "110137.272500", "110135.682500", "110137.472500", "110135.882500", "110137.672500", "110136.080000", "110137.870000", "110136.477500", "110138.267500", "110136.677500", "110138.467500", "110136.875000", "110138.665000", "110137.075000", "110138.865000", "110136.280000", "110138.070000", "110135.482500", "110137.272500", "110135.682500", "110137.472500", "110135.882500", "110137.672500", "110136.080000", "110137.870000", "110136.477500", "110138.267500", "110136.677500", "110138.467500", "110136.875000", "110138.665000", "110137.075000", "110138.865000", "110136.280000", "110138.070000", "110135.482500", "110137.272500", "110135.682500", "110137.472500", "110135.882500", "110137.672500", "110136.080000", "110137.870000", "110136.477500", "110138.267500", "110136.677500", "110138.467500", "110136.875000", "110138.665000", "110137.075000", "110138.865000", "110136.280000", "110141.670000", "110139.082500", "110140.872500", "110139.282500", "110141.072500", "110139.482500", "110141.272500", "110139.680000", "110141.470000", "110140.077500", "110141.867500", "110140.277500", "110142.067500", "110140.475000", "110142.265000", "110140.675000", "110142.465000", "110139.880000", "110141.670000", "110139.082500", "110140.872500", "110139.282500", "110141.072500", "110139.482500", "110141.272500", "110139.680000", "110141.470000", "110140.077500", "110141.867500", "110140.277500", "110142.067500", "110140.475000", "110142.265000", "110140.675000", "110142.465000", "110139.880000", "110141.670000", "110139.082500", "110140.872500", "110139.282500", "110141.072500", "110139.482500", "110141.272500", "110139.680000", "110141.470000", "110140.077500", "110141.867500", "110140.277500", "110142.067500", "110140.475000", "110142.265000", "110140.675000", "110142.465000", "110139.880000", "110141.670000", "110139.082500", "110140.872500", "110139.282500", "110141.072500", "110139.482500", "110141.272500", "110139.680000", "110141.470000", "110140.077500", "110141.867500", "110140.277500", "110142.067500", "110140.475000", "110142.265000", "110140.675000", "110142.465000", "110139.880000", "110145.270000", "110142.682500", "110144.472500", "110142.882500", "110144.672500", "110143.082500", "110144.872500", "110143.280000", "110145.070000", "110143.677500", "110145.467500", "110143.877500", "110145.667500", "110144.075000", "110145.865000", "110144.275000", "110146.065000", "110143.480000", "110145.270000", "110142.682500", "110144.472500", "110142.882500", "110144.672500", "110143.082500", "110144.872500", "110143.280000", "110145.070000", "110143.677500", "110145.467500", "110143.877500", "110145.667500", "110144.075000", "110145.865000", "110144.275000", "110146.065000", "110143.480000", "110145.270000", "110142.682500", "110144.472500", "110142.882500", "110144.672500", "110143.082500", "110144.872500", "110143.280000", "110145.070000", "110143.677500", "110145.467500", "110143.877500", "110145.667500", "110144.075000", "110145.865000", "110144.275000", "110146.065000", "110143.480000", "110145.270000", "110142.682500", "110144.472500", "110142.882500", "110144.672500", "110143.082500", "110144.872500", "110143.280000", "110145.070000", "110143.677500", "110145.467500", "110143.877500", "110145.667500", "110144.075000", "110145.865000", "110144.275000", "110146.065000", "110143.480000", "110148.870000", "110146.282500", "110148.072500", "110146.482500", "110148.272500", "110146.682500", "110148.472500", "110146.880000", "110148.670000", "110147.277500", "110149.067500", "110147.477500", "110149.267500", "110147.675000", "110149.465000", "110147.875000", "110149.665000", "110147.080000", "110148.870000", "110146.282500", "110148.072500", "110146.482500", "110148.272500", "110146.682500", "110148.472500", "110146.880000", "110148.670000", "110147.277500", "110149.067500", "110147.477500", "110149.267500", "110147.675000", "110149.465000", "110147.875000", "110149.665000", "110147.080000", "110148.870000", "110146.282500", "110148.072500", "110146.482500", "110148.272500", "110146.682500", "110148.472500", "110146.880000", "110148.670000", "110147.277500", "110149.067500", "110147.477500", "110149.267500", "110147.675000", "110149.465000", "110147.875000", "110149.665000", "110147.080000", "110148.870000", "110146.282500", "110148.072500", "110146.482500", "110148.272500", "110146.682500", "110148.472500", "110146.880000", "110148.670000", "110147.277500", "110149.067500", "110147.477500", "110149.267500", "110147.675000", "110149.465000", "110147.875000", "110149.665000", "110147.080000", "110152.470000", "110149.882500", "110151.672500", "110150.082500", "110151.872500", "110150.282500", "110152.072500", "110150.480000", "110152.270000", "110150.877500", "110152.667500", "110151.077500", "110152.867500", "110151.275000", "110153.065000", "110151.475000", "110153.265000", "110150.680000", "110152.470000", "110149.882500", "110151.672500", "110150.082500", "110151.872500", "110150.282500", "110152.072500", "110150.480000", "110152.270000", "110150.877500", "110152.667500", "110151.077500", "110152.867500", "110151.275000", "110153.065000", "110151.475000", "110153.265000", "110150.680000", "110152.470000", "110149.882500", "110151.672500", "110150.082500", "110151.872500", "110150.282500", "110152.072500", "110150.480000", "110152.270000", "110150.877500", "110152.667500", "110151.077500", "110152.867500", "110151.275000", "110153.065000", "110151.475000", "110153.265000", "110150.680000", "110152.470000", "110149.882500", "110151.672500", "110150.082500", "110151.872500", "110150.282500", "110152.072500", "110150.480000", "110152.270000", "110150.877500", "110152.667500", "110151.077500", "110152.867500", "110151.275000", "110153.065000", "110151.475000", "110153.265000", "110150.680000", "110156.070000", "110153.482500", "110155.272500", "110153.682500", "110155.472500", "110153.882500", "110155.672500", "110154.080000", "110155.870000", "110154.477500", "110156.267500", "110154.677500", "110156.467500", "110154.875000", "110156.665000", "110155.075000", "110156.865000", "110154.280000", "110156.070000", "110153.482500", "110155.272500", "110153.682500", "110155.472500", "110153.882500", "110155.672500", "110154.080000", "110155.870000", "110154.477500", "110156.267500", "110154.677500", "110156.467500", "110154.875000", "110156.665000", "110155.075000", "110156.865000", "110154.280000", "110156.070000", "110153.482500", "110155.272500", "110153.682500", "110155.472500", "110153.882500", "110155.672500", "110154.080000", "110155.870000", "110154.477500", "110156.267500", "110154.677500", "110156.467500", "110154.875000", "110156.665000", "110155.075000", "110156.865000", "110154.280000", "110156.070000", "110153.482500", "110155.272500", "110153.682500", "110155.472500", "110153.882500", "110155.672500", "110154.080000", "110155.870000", "110154.477500", "110156.267500", "110154.677500", "110156.467500", "110154.875000", "110156.665000", "110155.075000", "110156.865000", "110154.280000", "110159.670000", "110157.082500", "110158.872500", "110157.282500", "110159.072500", "110157.482500", "110159.272500", "110157.680000", "110159.470000", "110158.077500", "110159.867500", "110158.277500", "110200.067500", "110158.475000", "110200.265000", "110158.675000", "110200.465000", "110157.880000", "110159.670000", "110157.082500", "110158.872500", "110157.282500", "110159.072500", "110157.482500", "110159.272500", "110157.680000", "110159.470000", "110158.077500", "110159.867500", "110158.277500", "110200.067500", "110158.475000", "110200.265000", "110158.675000", "110200.465000", "110157.880000", "110159.670000", "110157.082500", "110158.872500", "110157.282500", "110159.072500", "110157.482500", "110159.272500", "110157.680000", "110159.470000", "110158.077500", "110159.867500", "110158.277500", "110200.067500", "110158.475000", "110200.265000", "110158.675000", "110200.465000", "110157.880000", "110159.670000", "110157.082500", "110158.872500", "110157.282500", "110159.072500", "110157.482500", "110159.272500", "110157.680000", "110159.470000", "110158.077500", "110159.867500", "110158.277500", "110200.067500", "110158.475000", "110200.265000", "110158.675000", "110200.465000", "110157.880000", "110203.270000", "110200.682500", "110202.472500", "110200.882500", "110202.672500", "110201.082500", "110202.872500", "110201.280000", "110203.070000", "110201.677500", "110203.467500", "110201.877500", "110203.667500", "110202.075000", "110203.865000", "110202.275000", "110204.065000", "110201.480000", "110203.270000", "110200.682500", "110202.472500", "110200.882500", "110202.672500", "110201.082500", "110202.872500", "110201.280000", "110203.070000", "110201.677500", "110203.467500", "110201.877500", "110203.667500", "110202.075000", "110203.865000", "110202.275000", "110204.065000", "110201.480000", "110203.270000", "110200.682500", "110202.472500", "110200.882500", "110202.672500", "110201.082500", "110202.872500", "110201.280000", "110203.070000", "110201.677500", "110203.467500", "110201.877500", "110203.667500", "110202.075000", "110203.865000", "110202.275000", "110204.065000", "110201.480000", "110203.270000", "110200.682500", "110202.472500", "110200.882500", "110202.672500", "110201.082500", "110202.872500", "110201.280000", "110203.070000", "110201.677500", "110203.467500", "110201.877500", "110203.667500", "110202.075000", "110203.865000", "110202.275000", "110204.065000", "110201.480000", "110206.870000", "110204.282500", "110206.072500", "110204.482500", "110206.272500", "110204.682500", "110206.472500", "110204.880000", "110206.670000", "110205.277500", "110207.067500", "110205.477500", "110207.267500", "110205.675000", "110207.465000", "110205.875000", "110207.665000", "110205.080000", "110206.870000", "110204.282500", "110206.072500", "110204.482500", "110206.272500", "110204.682500", "110206.472500", "110204.880000", "110206.670000", "110205.277500", "110207.067500", "110205.477500", "110207.267500", "110205.675000", "110207.465000", "110205.875000", "110207.665000", "110205.080000", "110206.870000", "110204.282500", "110206.072500", "110204.482500", "110206.272500", "110204.682500", "110206.472500", "110204.880000", "110206.670000", "110205.277500", "110207.067500", "110205.477500", "110207.267500", "110205.675000", "110207.465000", "110205.875000", "110207.665000", "110205.080000", "110206.870000", "110204.282500", "110206.072500", "110204.482500", "110206.272500", "110204.682500", "110206.472500", "110204.880000", "110206.670000", "110205.277500", "110207.067500", "110205.477500", "110207.267500", "110205.675000", "110207.465000", "110205.875000", "110207.665000", "110205.080000", "110210.470000", "110207.882500", "110209.672500", "110208.082500", "110209.872500", "110208.282500", "110210.072500", "110208.480000", "110210.270000", "110208.877500", "110210.667500", "110209.077500", "110210.867500", "110209.275000", "110211.065000", "110209.475000", "110211.265000", "110208.680000", "110210.470000", "110207.882500", "110209.672500", "110208.082500", "110209.872500", "110208.282500", "110210.072500", "110208.480000", "110210.270000", "110208.877500", "110210.667500", "110209.077500", "110210.867500", "110209.275000", "110211.065000", "110209.475000", "110211.265000", "110208.680000", "110210.470000", "110207.882500", "110209.672500", "110208.082500", "110209.872500", "110208.282500", "110210.072500", "110208.480000", "110210.270000", "110208.877500", "110210.667500", "110209.077500", "110210.867500", "110209.275000", "110211.065000", "110209.475000", "110211.265000", "110208.680000", "110210.470000", "110207.882500", "110209.672500", "110208.082500", "110209.872500", "110208.282500", "110210.072500", "110208.480000", "110210.270000", "110208.877500", "110210.667500", "110209.077500", "110210.867500", "110209.275000", "110211.065000", "110209.475000", "110211.265000", "110208.680000", "110214.070000", "110211.482500", "110213.272500", "110211.682500", "110213.472500", "110211.882500", "110213.672500", "110212.080000", "110213.870000", "110212.477500", "110214.267500", "110212.677500", "110214.467500", "110212.875000", "110214.665000", "110213.075000", "110214.865000", "110212.280000", "110214.070000", "110211.482500", "110213.272500", "110211.682500", "110213.472500", "110211.882500", "110213.672500", "110212.080000", "110213.870000", "110212.477500", "110214.267500", "110212.677500", "110214.467500", "110212.875000", "110214.665000", "110213.075000", "110214.865000", "110212.280000", "110214.070000", "110211.482500", "110213.272500", "110211.682500", "110213.472500", "110211.882500", "110213.672500", "110212.080000", "110213.870000", "110212.477500", "110214.267500", "110212.677500", "110214.467500", "110212.875000", "110214.665000", "110213.075000", "110214.865000", "110212.280000", "110214.070000", "110211.482500", "110213.272500", "110211.682500", "110213.472500", "110211.882500", "110213.672500", "110212.080000", "110213.870000", "110212.477500", "110214.267500", "110212.677500", "110214.467500", "110212.875000", "110214.665000", "110213.075000", "110214.865000", "110212.280000", "110217.670000", "110215.082500", "110216.872500", "110215.282500", "110217.072500", "110215.482500", "110217.272500", "110215.680000", "110217.470000", "110216.077500", "110217.867500", "110216.277500", "110218.067500", "110216.475000", "110218.265000", "110216.675000", "110218.465000", "110215.880000", "110217.670000", "110215.082500", "110216.872500", "110215.282500", "110217.072500", "110215.482500", "110217.272500", "110215.680000", "110217.470000", "110216.077500", "110217.867500", "110216.277500", "110218.067500", "110216.475000", "110218.265000", "110216.675000", "110218.465000", "110215.880000", "110217.670000", "110215.082500", "110216.872500", "110215.282500", "110217.072500", "110215.482500", "110217.272500", "110215.680000", "110217.470000", "110216.077500", "110217.867500", "110216.277500", "110218.067500", "110216.475000", "110218.265000", "110216.675000", "110218.465000", "110215.880000", "110217.670000", "110215.082500", "110216.872500", "110215.282500", "110217.072500", "110215.482500", "110217.272500", "110215.680000", "110217.470000", "110216.077500", "110217.867500", "110216.277500", "110218.067500", "110216.475000", "110218.265000", "110216.675000", "110218.465000", "110215.880000", "110221.270000", "110218.682500", "110220.472500", "110218.882500", "110220.672500", "110219.082500", "110220.872500", "110219.280000", "110221.070000", "110219.677500", "110221.467500", "110219.877500", "110221.667500", "110220.075000", "110221.865000", "110220.275000", "110222.065000", "110219.480000", "110221.270000", "110218.682500", "110220.472500", "110218.882500", "110220.672500", "110219.082500", "110220.872500", "110219.280000", "110221.070000", "110219.677500", "110221.467500", "110219.877500", "110221.667500", "110220.075000", "110221.865000", "110220.275000", "110222.065000", "110219.480000", "110221.270000", "110218.682500", "110220.472500", "110218.882500", "110220.672500", "110219.082500", "110220.872500", "110219.280000", "110221.070000", "110219.677500", "110221.467500", "110219.877500", "110221.667500", "110220.075000", "110221.865000", "110220.275000", "110222.065000", "110219.480000", "110221.270000", "110218.682500", "110220.472500", "110218.882500", "110220.672500", "110219.082500", "110220.872500", "110219.280000", "110221.070000", "110219.677500", "110221.467500", "110219.877500", "110221.667500", "110220.075000", "110221.865000", "110220.275000", "110222.065000", "110219.480000", "110224.870000", "110222.282500", "110224.072500", "110222.482500", "110224.272500", "110222.682500", "110224.472500", "110222.880000", "110224.670000", "110223.277500", "110225.067500", "110223.477500", "110225.267500", "110223.675000", "110225.465000", "110223.875000", "110225.665000", "110223.080000", "110224.870000", "110222.282500", "110224.072500", "110222.482500", "110224.272500", "110222.682500", "110224.472500", "110222.880000", "110224.670000", "110223.277500", "110225.067500", "110223.477500", "110225.267500", "110223.675000", "110225.465000", "110223.875000", "110225.665000", "110223.080000", "110224.870000", "110222.282500", "110224.072500", "110222.482500", "110224.272500", "110222.682500", "110224.472500", "110222.880000", "110224.670000", "110223.277500", "110225.067500", "110223.477500", "110225.267500", "110223.675000", "110225.465000", "110223.875000", "110225.665000", "110223.080000", "110224.870000", "110222.282500", "110224.072500", "110222.482500", "110224.272500", "110222.682500", "110224.472500", "110222.880000", "110224.670000", "110223.277500", "110225.067500",