{
  "AcquisitionMatrixPE": 80,
  "AcquisitionNumber": 1,
  "AcquisitionTime": "09:36:4.457500",
  "BandwidthPerPixelPhaseEncode": 25,
  "BaseResolution": 80,
  "BodyPartExamined": "BRAIN",
  "CoilCombinationMethod": "Sum of Squares",
  "ConsistencyInfo": "N4_VE11E_LATEST_20181129",
  "ConversionSoftware": "dcm2niix",
  "ConversionSoftwareVersion": "v1.0.20220720",
  "DerivedVendorReportedEchoSpacing": 0.0005,
  "DeviceSerialNumber": "66112",
  "DwellTime": 2.7e-06,
  "EchoTime": 0.03,
  "EchoTrainLength": 80,
  "EffectiveEchoSpacing": 0.0005,
  "FlipAngle": 77,
  "HeudiconvVersion": "0.13.1",
  "ImageOrientationPatientDICOM": [0.981756, -0.18743, -0.0320297, 0.187635, 0.927656, 0.322873],
  "ImageOrientationText": "Tra>Cor(18.9)>Sag(1.8)",
  "ImageType": [
    "ORIGINAL",
    "PRIMARY",
    "M",
    "ND",
    "NORM",
    "MOSAIC"
],
  "ImagingFrequency": 123.252,
  "InPlanePhaseEncodingDirectionDICOM": "COL",
  "InstitutionAddress": "Maynard 3,Hanover,NH,US,03755",
  "InstitutionName": "Dartmouth College - PBS",
  "InstitutionalDepartmentName": "Department",
  "MRAcquisitionType": "2D",
  "MagneticFieldStrength": 3,
  "Manufacturer": "Siemens",
  "ManufacturersModelName": "Prisma",
  "MatrixCoilMode": "SENSE",
  "Modality": "MR",
  "NonlinearGradientCorrection": false,
  "PartialFourier": 1,
  "PatientPosition": "HFS",
  "PercentPhaseFOV": 100,
  "PercentSampling": 100,
  "PhaseEncodingDirection": "j-",
  "PhaseEncodingSteps": 80,
  "PhaseResolution": 1,
  "PixelBandwidth": 2315,
  "ProcedureStepDescription": "dbic^QA",
  "ProtocolName": "func-bold_fa-77",
  "PulseSequenceDetails": "%SiemensSeq%\\ep2d_bold",
  "ReceiveCoilActiveElements": "HEA;HEP",
  "ReceiveCoilName": "Head_32",
  "ReconMatrixPE": 80,
  "RepetitionTime": 2,
  "SAR": 0.0370256,
  "ScanOptions": "FS",
  "ScanningSequence": "EP",
  "SequenceName": "*epfid2d1_80",
  "SequenceVariant": "SK",
  "SeriesDescription": "func-bold_fa-77",
  "SeriesNumber": 8,
  "ShimSetting": [4142, -7716, -7516, 255, -88, -128, 47, 67],
  "SliceThickness": 3.5,
  "SliceTiming": [0.99, 0, 1.055, 0.065, 1.1225, 0.1325, 1.1875, 0.1975, 1.255, 0.265, 1.32, 0.33, 1.385, 0.395, 1.4525, 0.4625, 1.5175, 0.5275, 1.585, 0.595, 1.65, 0.66, 1.715, 0.725, 1.7825, 0.7925, 1.8475, 0.8575, 1.915, 0.925],
  "SoftwareVersions": "syngo MR E11",
  "SpacingBetweenSlices": 3.99,
  "StationName": "AWP66112",
  "TotalReadoutTime": 0.0395,
  "TxRefAmp": 225.242,
  "dcmmeta_affine": [
    [-2.9452669620513916, 0.562905490398407, 0.12290609627962112, 93.18363189697266],
    [0.5622892379760742, 2.782968282699585, 1.2887402772903442, -135.5115509033203],
    [-0.09608902037143707, -0.9686198234558105, 3.774141311645508, -6.56433629989624],
    [0.0, 0.0, 0.0, 1.0]
],
  "dcmmeta_reorient_transform": [
    [0.0, -1.0, 0.0, 79.0],
    [1.0, 0.0, 0.0, 0.0],
    [0.0, 0.0, 1.0, 0.0],
    [0.0, 0.0, 0.0, 1.0]
],
  "dcmmeta_shape": [80, 80, 30, 200],
  "dcmmeta_slice_dim": 2,
  "dcmmeta_version": 0.6,
  "global": {
    "const": {
      "AccessionNumber": "qa",
      "AcquisitionMatrix": [80, 0, 0, 80],
      "AngioFlag": "N",
      "BitsAllocated": 16,
      "BitsStored": 12,
      "BodyPartExamined": "BRAIN",
      "Columns": 480,
      "EchoNumbers": 1,
      "EchoTime": 30.0,
      "EchoTrainLength": 80,
      "FlipAngle": 77.0,
      "HighBit": 11,
      "ImageOrientationPatient": [0.98175566768793, -0.1874297440859, -0.0320296736564, 0.18763515489242, 0.92765613028176, 0.32287327637817],
      "ImagePositionPatient": [-839.28765759293, -528.47877707945, -257.59146454686],
      "ImageType": [
        "ORIGINAL",
        "PRIMARY",
        "M",
        "ND",
        "NORM",
        "MOSAIC"
],
      "ImagedNucleus": "1H",
      "ImagingFrequency": 123.252359,
      "InPlanePhaseEncodingDirection": "COL",
      "MRAcquisitionType": "2D",
      "MagneticFieldStrength": 3.0,
      "Manufacturer": "SIEMENS",
      "ManufacturerModelName": "Prisma",
      "Modality": "MR",
      "NumberOfAverages": 1.0,
      "NumberOfPhaseEncodingSteps": 80,
      "PercentPhaseFieldOfView": 100.0,
      "PercentSampling": 100.0,
      "PerformedProcedureStepStartTime": "091856.312000",
      "PhotometricInterpretation": "MONOCHROME2",
      "PixelBandwidth": 2315.0,
      "PixelRepresentation": 0,
      "PixelSpacing": [3.0, 3.0],
      "ProtocolName": "func-bold_fa-77",
      "RepetitionTime": 2000.0,
      "Rows": 480,
      "SAR": 0.0370255714303,
      "SamplesPerPixel": 1,
      "ScanOptions": "FS",
      "ScanningSequence": "EP",
      "SequenceName": "*epfid2d1_80",
      "SequenceVariant": "SK",
      "SeriesDescription": "func-bold_fa-77",
      "SeriesNumber": 8,
      "SeriesTime": "093656.628000",
      "SliceLocation": -47.108046363182,
      "SliceThickness": 3.5,
      "SmallestImagePixelValue": 0,
      "SoftwareVersions": "syngo MR E11",
      "SpacingBetweenSlices": 3.9899999518605,
      "SpecificCharacterSet": "ISO_IR 100",
      "StudyID": "8",
      "StudyTime": "091856.267000",
      "TransmitCoilName": "Body",
      "VariableFlipAngleFlag": "N",
      "WindowCenterWidthExplanation": "Algo1"
    },
    "slices": {}
  },
  "time": {
    "samples": {
      "AcquisitionNumber": [1, 2, 3, 4, 5, 6, 7, 8, 9, 10, 11, 12, 13, 14, 15, 16, 17, 18, 19, 20, 21, 22, 23, 24, 25, 26, 27, 28, 29, 30, 31, 32, 33, 34, 35, 36, 37, 38, 39, 40, 41, 42, 43, 44, 45, 46, 47, 48, 49, 50, 51, 52, 53, 54, 55, 56, 57, 58, 59, 60, 61, 62, 63, 64, 65, 66, 67, 68, 69, 70, 71, 72, 73, 74, 75, 76, 77, 78, 79, 80, 81, 82, 83, 84, 85, 86, 87, 88, 89, 90, 91, 92, 93, 94, 95, 96, 97, 98, 99, 100, 101, 102, 103, 104, 105, 106, 107, 108, 109, 110, 111, 112, 113, 114, 115, 116, 117, 118, 119, 120, 121, 122, 123, 124, 125, 126, 127, 128, 129, 130, 131, 132, 133, 134, 135, 136, 137, 138, 139, 140, 141, 142, 143, 144, 145, 146, 147, 148, 149, 150, 151, 152, 153, 154, 155, 156, 157, 158, 159, 160, 161, 162, 163, 164, 165, 166, 167, 168, 169, 170, 171, 172, 173, 174, 175, 176, 177, 178, 179, 180, 181, 182, 183, 184, 185, 186, 187, 188, 189, 190, 191, 192, 193, 194, 195, 196, 197, 198, 199, 200],
      "AcquisitionTime": ["093604.457500", "093606.457500", "093608.457500", "093610.457500", "093612.457500", "093614.457500", "093616.457500", "093618.457500", "093620.457500", "093622.457500", "093624.457500", "093626.457500", "093628.457500", "093630.457500", "093632.457500", "093634.457500", "093636.457500", "093638.457500", "093640.457500", "093642.457500", "093644.457500", "093646.457500", "093648.457500", "093650.457500", "093652.457500", "093654.457500", "093656.457500", "093658.457500", "093700.457500", "093702.457500", "093704.457500", "093706.457500", "093708.457500", "093710.457500", "093712.457500", "093714.457500", "093716.457500", "093718.457500", "093720.457500", "093722.457500", "093724.457500", "093726.457500", "093728.457500", "093730.457500", "093732.457500", "093734.457500", "093736.457500", "093738.457500", "093740.457500", "093742.457500", "093744.457500", "093746.457500", "093748.457500", "093750.457500", "093752.457500", "093754.457500", "093756.457500", "093758.457500", "093800.457500", "093802.457500", "093804.457500", "093806.457500", "093808.457500", "093810.457500", "093812.457500", "093814.457500", "093816.457500", "093818.457500", "093820.457500", "093822.457500", "093824.457500", "093826.457500", "093828.457500", "093830.457500", "093832.457500", "093834.457500", "093836.457500", "093838.457500", "093840.457500", "093842.457500", "093844.457500", "093846.457500", "093848.457500", "093850.457500", "093852.457500", "093854.457500", "093856.457500", "093858.457500", "093900.457500", "093902.457500", "093904.457500", "093906.457500", "093908.457500", "093910.457500", "093912.457500", "093914.457500", "093916.457500", "093918.457500", "093920.457500", "093922.457500", "093924.457500", "093926.457500", "093928.457500", "093930.457500", "093932.457500", "093934.457500", "093936.457500", "093938.457500", "093940.457500", "093942.457500", "093944.457500", "093946.457500", "093948.457500", "093950.457500", "093952.457500", "093954.457500", "093956.457500", "093958.457500", "094000.457500", "094002.457500", "094004.457500", "094006.457500", "094008.457500", "094010.457500", "094012.457500", "094014.457500", "094016.457500", "094018.457500", "094020.457500", "094022.457500", "094024.457500", "094026.457500", "094028.457500", "094030.457500", "094032.457500", "094034.457500", "094036.457500", "094038.457500", "094040.457500", "094042.457500", "094044.457500", "094046.457500", "094048.457500", "094050.457500", "094052.457500", "094054.457500", "094056.457500", "094058.457500", "094100.457500", "094102.457500", "094104.457500", "094106.457500", "094108.457500", "094110.457500", "094112.457500", "094114.457500", "094116.457500", "094118.457500", "094120.457500", "094122.457500", "094124.457500", "094126.457500", "094128.457500", "094130.457500", "094132.457500", "094134.457500", "094136.457500", "094138.457500", "094140.457500", "094142.457500", "094144.457500", "094146.457500", "094148.457500", "094150.457500", "094152.457500", "094154.457500", "094156.457500", "094158.457500", "094200.457500", "094202.457500", "094204.457500", "094206.457500", "094208.457500", "094210.457500", "094212.457500", "094214.457500", "094216.457500", "094218.457500", "094220.457500", "094222.457500", "094224.457500", "094226.457500", "094228.457500", "094230.457500", "094232.457500", "094234.457500", "094236.457500", "094238.457500", "094240.457500", "094242.457500"],
      "ContentTime": ["093656.631000", "093656.641000", "093656.643000", "093656.645000", "093656.648000", "093656.650000", "093656.653000", "093656.655000", "093656.657000", "093656.660000", "093656.662000", "093656.664000", "093656.667000", "093656.676000", "093656.678000", "093656.681000", "093656.683000", "093656.686000", "093656.688000", "093656.690000", "093656.693000", "093656.695000", "093656.697000", "093656.700000", "093656.702000", "093656.704000", "093736.626000", "093736.629000", "093736.631000", "093736.634000", "093736.636000", "093736.638000", "093736.640000", "093736.643000", "093736.645000", "093736.647000", "093736.650000", "093736.652000", "093736.655000", "093736.657000", "093736.659000", "093736.661000", "093736.664000", "093736.666000", "093736.669000", "093736.671000", "093816.626000", "093816.629000", "093816.631000", "093816.634000", "093816.636000", "093816.639000", "093816.641000", "093816.643000", "093816.646000", "093816.648000", "093816.650000", "093816.653000", "093816.655000", "093816.657000", "093816.660000", "093816.662000", "093816.664000", "093816.667000", "093816.669000", "093816.671000", "093856.626000", "093856.629000", "093856.632000", "093856.634000", "093856.636000", "093856.639000", "093856.641000", "093856.643000", "093856.646000", "093856.648000", "093856.650000", "093856.653000", "093856.655000", "093856.657000", "093856.660000", "093856.662000", "093856.665000", "093856.667000", "093856.669000", "093856.672000", "093936.626000", "093936.629000", "093936.631000", "093936.634000", "093936.636000", "093936.638000", "093936.641000", "093936.643000", "093936.646000", "093936.648000", "093936.651000", "093936.653000", "093936.655000", "093936.658000", "093936.660000", "093936.663000", "093936.665000", "093936.667000", "093936.670000", "093936.672000", "094016.626000", "094016.629000", "094016.631000", "094016.634000", "094016.636000", "094016.638000", "094016.641000", "094016.643000", "094016.645000", "094016.647000", "094016.650000", "094016.652000", "094016.654000", "094016.657000", "094016.659000", "094016.662000", "094016.664000", "094016.666000", "094016.669000", "094016.671000", "094056.626000", "094056.629000", "094056.632000", "094056.634000", "094056.636000", "094056.639000", "094056.641000", "094056.644000", "094056.646000", "094056.648000", "094056.651000", "094056.653000", "094056.655000", "094056.658000", "094056.660000", "094056.663000", "094056.665000", "094056.667000", "094056.670000", "094056.672000", "094136.626000", "094136.629000", "094136.631000", "094136.634000", "094136.636000", "094136.638000", "094136.641000", "094136.643000", "094136.646000", "094136.648000", "094136.651000", "094136.653000", "094136.655000", "094136.657000", "094136.660000", "094136.662000", "094136.665000", "094136.667000", "094136.669000", "094136.672000", "094216.626000", "094216.629000", "094216.631000", "094216.634000", "094216.636000", "094216.638000", "094216.641000", "094216.643000", "094216.646000", "094216.648000", "094216.650000", "094216.653000", "094216.655000", "094216.657000", "094216.660000", "094216.662000", "094216.664000", "094216.667000", "094216.669000", "094216.671000", "094243.664000", "094243.666000", "094243.669000", "094243.672000", "094243.674000", "094243.677000", "094243.680000", "094243.682000", "094243.684000", "094243.687000", "094243.689000", "094243.692000", "094243.694000", "094243.701000"],
      "InstanceCreationTime": ["093656.631000", "093656.641000", "093656.643000", "093656.645000", "093656.648000", "093656.650000", "093656.653000", "093656.655000", "093656.657000", "093656.660000", "093656.662000", "093656.664000", "093656.667000", "093656.676000", "093656.678000", "093656.681000", "093656.683000", "093656.686000", "093656.688000", "093656.690000", "093656.693000", "093656.695000", "093656.697000", "093656.700000", "093656.702000", "093656.704000", "093736.626000", "093736.629000", "093736.631000", "093736.634000", "093736.636000", "093736.638000", "093736.640000", "093736.643000", "093736.645000", "093736.647000", "093736.650000", "093736.652000", "093736.655000", "093736.657000", "093736.659000", "093736.661000", "093736.664000", "093736.666000", "093736.669000", "093736.671000", "093816.626000", "093816.629000", "093816.631000", "093816.634000", "093816.636000", "093816.639000", "093816.641000", "093816.643000", "093816.646000", "093816.648000", "093816.650000", "093816.653000", "093816.655000", "093816.657000", "093816.660000", "093816.662000", "093816.664000", "093816.667000", "093816.669000", "093816.671000", "093856.626000", "093856.629000", "093856.632000", "093856.634000", "093856.636000", "093856.639000", "093856.641000", "093856.643000", "093856.646000", "093856.648000", "093856.650000", "093856.653000", "093856.655000", "093856.657000", "093856.660000", "093856.662000", "093856.665000", "093856.667000", "093856.669000", "093856.672000", "093936.626000", "093936.629000", "093936.631000", "093936.634000", "093936.636000", "093936.638000", "093936.641000", "093936.643000", "093936.646000", "093936.648000", "093936.651000", "093936.653000", "093936.655000", "093936.658000", "093936.660000", "093936.663000", "093936.665000", "093936.667000", "093936.670000", "093936.672000", "094016.626000", "094016.629000", "094016.631000", "094016.634000", "094016.636000", "094016.638000", "094016.641000", "094016.643000", "094016.645000", "094016.647000", "094016.650000", "094016.652000", "094016.654000", "094016.657000", "094016.659000", "094016.662000", "094016.664000", "094016.666000", "094016.669000", "094016.671000", "094056.626000", "094056.629000", "094056.632000", "094056.634000", "094056.636000", "094056.639000", "094056.641000", "094056.644000", "094056.646000", "094056.648000", "094056.651000", "094056.653000", "094056.655000", "094056.658000", "094056.660000", "094056.663000", "094056.665000", "094056.667000", "094056.670000", "094056.672000", "094136.626000", "094136.629000", "094136.631000", "094136.634000", "094136.636000", "094136.638000", "094136.641000", "094136.643000", "094136.646000", "094136.648000", "094136.651000", "094136.653000", "094136.655000", "094136.657000", "094136.660000", "094136.662000", "094136.665000", "094136.667000", "094136.669000", "094136.672000", "094216.626000", "094216.629000", "094216.631000", "094216.634000", "094216.636000", "094216.638000", "094216.641000", "094216.643000", "094216.646000", "094216.648000", "094216.650000", "094216.653000", "094216.655000", "094216.657000", "094216.660000", "094216.662000", "094216.664000", "094216.667000", "094216.669000", "094216.671000", "094243.664000", "094243.666000", "094243.669000", "094243.672000", "094243.674000", "094243.677000", "094243.680000", "094243.682000", "094243.684000", "094243.687000", "094243.689000", "094243.692000", "094243.694000", "094243.701000"],
      "InstanceNumber": [1, 2, 3, 4, 5, 6, 7, 8, 9, 10, 11, 12, 13, 14, 15, 16, 17, 18, 19, 20, 21, 22, 23, 24, 25, 26, 27, 28, 29, 30, 31, 32, 33, 34, 35, 36, 37, 38, 39, 40, 41, 42, 43, 44, 45, 46, 47, 48, 49, 50, 51, 52, 53, 54, 55, 56, 57, 58, 59, 60, 61, 62, 63, 64, 65, 66, 67, 68, 69, 70, 71, 72, 73, 74, 75, 76, 77, 78, 79, 80, 81, 82, 83, 84, 85, 86, 87, 88, 89, 90, 91, 92, 93, 94, 95, 96, 97, 98, 99, 100, 101, 102, 103, 104, 105, 106, 107, 108, 109, 110, 111, 112, 113, 114, 115, 116, 117, 118, 119, 120, 121, 122, 123, 124, 125, 126, 127, 128, 129, 130, 131, 132, 133, 134, 135, 136, 137, 138, 139, 140, 141, 142, 143, 144, 145, 146, 147, 148, 149, 150, 151, 152, 153, 154, 155, 156, 157, 158, 159, 160, 161, 162, 163, 164, 165, 166, 167, 168, 169, 170, 171, 172, 173, 174, 175, 176, 177, 178, 179, 180, 181, 182, 183, 184, 185, 186, 187, 188, 189, 190, 191, 192, 193, 194, 195, 196, 197, 198, 199, 200],
      "LargestImagePixelValue": [2234, 2235, 2232, 2233, 2234, 2234, 2233, 2234, 2232, 2234, 2234, 2232, 2233, 2233, 2235, 2233, 2233, 2234, 2233, 2233, 2235, 2235, 2234, 2234, 2232, 2233, 2234, 2233, 2235, 2235, 2234, 2232, 2234, 2235, 2234, 2232, 2232, 2234, 2233, 2234, 2233, 2233, 2233, 2235, 2233, 2233, 2235, 2234, 2234, 2235, 2232, 2233, 2233, 2233, 2234, 2234, 2234, 2233, 2233, 2234, 2234, 2235, 2234, 2234, 2234, 2235, 2234, 2234, 2233, 2232, 2233, 2233, 2235, 2234, 2232, 2234, 2233, 2232, 2233, 2232, 2234, 2232, 2236, 2234, 2233, 2233, 2231, 2232, 2232, 2232, 2233, 2234, 2234, 2231, 2231, 2231, 2235, 2234, 2233, 2232, 2232, 2233, 2234, 2234, 2232, 2235, 2233, 2233, 2233, 2235, 2232, 2234, 2233, 2233, 2233, 2233, 2234, 2234, 2233, 2235, 2235, 2235, 2234, 2232, 2232, 2230, 2231, 2235, 2234, 2232, 2234, 2234, 2232, 2233, 2234, 2233, 2232, 2233, 2234, 2234, 2234, 2233, 2234, 2235, 2234, 2234, 2235, 2234, 2234, 2231, 2234, 2234, 2233, 2233, 2231, 2232, 2235, 2233, 2233, 2235, 2233, 2233, 2235, 2232, 2235, 2233, 2235, 2233, 2235, 2231, 2235, 2232, 2231, 2231, 2232, 2234, 2233, 2234, 2232, 2236, 2234, 2235, 2233, 2234, 2234, 2234, 2236, 2235, 2235, 2234, 2235, 2234, 2234, 2235, 2235, 2234, 2234, 2233, 2235, 2234],
      "WindowCenter": [1038.0, 1038.0, 1038.0, 1038.0, 1038.0, 1038.0, 1037.0, 1038.0, 1039.0, 1039.0, 1038.0, 1038.0, 1038.0, 1039.0, 1038.0, 1038.0, 1037.0, 1037.0, 1038.0, 1038.0, 1038.0, 1038.0, 1038.0, 1039.0, 1038.0, 1039.0, 1038.0, 1038.0, 1039.0, 1038.0, 1038.0, 1038.0, 1038.0, 1037.0, 1039.0, 1037.0, 1040.0, 1038.0, 1039.0, 1037.0, 1038.0, 1039.0, 1039.0, 1037.0, 1038.0, 1037.0, 1037.0, 1037.0, 1038.0, 1037.0, 1038.0, 1038.0, 1037.0, 1038.0, 1038.0, 1039.0, 1037.0, 1039.0, 1037.0, 1038.0, 1038.0, 1037.0, 1039.0, 1037.0, 1038.0, 1038.0, 1037.0, 1037.0, 1038.0, 1037.0, 1037.0, 1037.0, 1038.0, 1038.0, 1037.0, 1038.0, 1039.0, 1037.0, 1037.0, 1038.0, 1038.0, 1036.0, 1038.0, 1037.0, 1037.0, 1036.0, 1037.0, 1037.0, 1037.0, 1037.0, 1037.0, 1037.0, 1036.0, 1037.0, 1038.0, 1037.0, 1037.0, 1037.0, 1038.0, 1036.0, 1037.0, 1037.0, 1037.0, 1037.0, 1036.0, 1037.0, 1036.0, 1037.0, 1037.0, 1038.0, 1037.0, 1037.0, 1037.0, 1038.0, 1038.0, 1037.0, 1037.0, 1038.0, 1037.0, 1037.0, 1036.0, 1036.0, 1037.0, 1037.0, 1037.0, 1038.0, 1037.0, 1037.0, 1037.0, 1037.0, 1038.0, 1037.0, 1038.0, 1036.0, 1037.0, 1038.0, 1037.0, 1038.0, 1037.0, 1039.0, 1037.0, 1038.0, 1036.0, 1039.0, 1037.0, 1038.0, 1037.0, 1038.0, 1038.0, 1038.0, 1037.0, 1037.0, 1039.0, 1038.0, 1037.0, 1037.0, 1038.0, 1038.0, 1037.0, 1037.0, 1037.0, 1038.0, 1038.0, 1037.0, 1037.0, 1037.0, 1038.0, 1038.0, 1037.0, 1037.0, 1037.0, 1037.0, 1038.0, 1037.0, 1037.0, 1036.0, 1037.0, 1037.0, 1037.0, 1036.0, 1037.0, 1037.0, 1037.0, 1038.0, 1036.0, 1037.0, 1036.0, 1037.0, 1038.0, 1038.0, 1037.0, 1036.0, 1037.0, 1036.0, 1037.0, 1037.0, 1037.0, 1038.0, 1037.0, 1036.0],
      "WindowWidth": [2335.0, 2335.0, 2334.0, 2335.0, 2335.0, 2335.0, 2334.0, 2335.0, 2335.0, 2335.0, 2335.0, 2335.0, 2334.0, 2335.0, 2335.0, 2335.0, 2334.0, 2334.0, 2335.0, 2335.0, 2335.0, 2335.0, 2335.0, 2335.0, 2334.0, 2335.0, 2334.0, 2335.0, 2335.0, 2335.0, 2334.0, 2335.0, 2334.0, 2333.0, 2335.0, 2334.0, 2336.0, 2335.0, 2335.0, 2334.0, 2334.0, 2335.0, 2335.0, 2334.0, 2334.0, 2334.0, 2334.0, 2334.0, 2334.0, 2334.0, 2334.0, 2335.0, 2334.0, 2334.0, 2334.0, 2335.0, 2334.0, 2335.0, 2334.0, 2334.0, 2334.0, 2334.0, 2335.0, 2334.0, 2334.0, 2334.0, 2334.0, 2334.0, 2334.0, 2334.0, 2334.0, 2333.0, 2334.0, 2334.0, 2333.0, 2334.0, 2335.0, 2334.0, 2334.0, 2334.0, 2334.0, 2333.0, 2334.0, 2334.0, 2334.0, 2333.0, 2334.0, 2334.0, 2334.0, 2334.0, 2334.0, 2334.0, 2333.0, 2334.0, 2334.0, 2333.0, 2333.0, 2333.0, 2334.0, 2333.0, 2333.0, 2333.0, 2333.0, 2333.0, 2333.0, 2333.0, 2333.0, 2333.0, 2333.0, 2334.0, 2333.0, 2333.0, 2333.0, 2334.0, 2334.0, 2333.0, 2333.0, 2334.0, 2333.0, 2333.0, 2333.0, 2333.0, 2333.0, 2333.0, 2333.0, 2334.0, 2332.0, 2332.0, 2332.0, 2333.0, 2333.0, 2333.0, 2333.0, 2332.0, 2333.0, 2333.0, 2333.0, 2334.0, 2333.0, 2334.0, 2333.0, 2333.0, 2332.0, 2335.0, 2333.0, 2334.0, 2333.0, 2334.0, 2333.0, 2334.0, 2333.0, 2333.0, 2334.0, 2333.0, 2333.0, 2333.0, 2333.0, 2333.0, 2333.0, 2332.0, 2333.0, 2333.0, 2333.0, 2332.0, 2332.0, 2332.0, 2333.0, 2333.0, 2332.0, 2332.0, 2332.0, 2332.0, 2333.0, 2332.0, 2332.0, 2332.0, 2332.0, 2332.0, 2332.0, 2332.0, 2332.0, 2332.0, 2332.0, 2333.0, 2332.0, 2332.0, 2332.0, 2332.0, 2333.0, 2333.0, 2332.0, 2332.0, 2332.0, 2332.0, 2332.0, 2332.0, 2332.0, 2333.0, 2332.0, 2332.0]
    },
    "slices": {}
  }
}