{
  "AcquisitionMatrixPE": 80,
  "AcquisitionNumber": 1,
  "AcquisitionTime": "09:42:50.460000",
  "BandwidthPerPixelPhaseEncode": 25,
  "BaseResolution": 80,
  "BodyPartExamined": "BRAIN",
  "CoilCombinationMethod": "Sum of Squares",
  "ConsistencyInfo": "N4_VE11E_LATEST_20181129",
  "ConversionSoftware": "dcm2niix",
  "ConversionSoftwareVersion": "v1.0.20220720",
  "DerivedVendorReportedEchoSpacing": 0.0005,
  "DeviceSerialNumber": "66112",
  "DwellTime": 2.7e-06,
  "EchoTime": 0.03,
  "EchoTrainLength": 80,
  "EffectiveEchoSpacing": 0.0005,
  "FlipAngle": 10,
  "HeudiconvVersion": "0.13.1",
  "ImageOrientationPatientDICOM": [0.981756, -0.18743, -0.0320297, 0.187635, 0.927656, 0.322873],
  "ImageOrientationText": "Tra>Cor(18.9)>Sag(1.8)",
  "ImageType": [
    "ORIGINAL",
    "PRIMARY",
    "M",
    "ND",
    "NORM",
    "MOSAIC"
],
  "ImagingFrequency": 123.252,
  "InPlanePhaseEncodingDirectionDICOM": "COL",
  "InstitutionAddress": "Maynard 3,Hanover,NH,US,03755",
  "InstitutionName": "Dartmouth College - PBS",
  "InstitutionalDepartmentName": "Department",
  "MRAcquisitionType": "2D",
  "MagneticFieldStrength": 3,
  "Manufacturer": "Siemens",
  "ManufacturersModelName": "Prisma",
  "MatrixCoilMode": "SENSE",
  "Modality": "MR",
  "NonlinearGradientCorrection": false,
  "PartialFourier": 1,
  "PatientPosition": "HFS",
  "PercentPhaseFOV": 100,
  "PercentSampling": 100,
  "PhaseEncodingDirection": "j-",
  "PhaseEncodingSteps": 80,
  "PhaseResolution": 1,
  "PixelBandwidth": 2315,
  "ProcedureStepDescription": "dbic^QA",
  "ProtocolName": "func-bold_fa-10",
  "PulseSequenceDetails": "%SiemensSeq%\\ep2d_bold",
  "ReceiveCoilActiveElements": "HEA;HEP",
  "ReceiveCoilName": "Head_32",
  "ReconMatrixPE": 80,
  "RepetitionTime": 2,
  "SAR": 0.00993208,
  "ScanOptions": "FS",
  "ScanningSequence": "EP",
  "SequenceName": "*epfid2d1_80",
  "SequenceVariant": "SK",
  "SeriesDescription": "func-bold_fa-10",
  "SeriesNumber": 10,
  "ShimSetting": [4142, -7716, -7516, 255, -88, -128, 47, 67],
  "SliceThickness": 3.5,
  "SliceTiming": [0.99, 0, 1.0575, 0.0675, 1.1225, 0.1325, 1.1875, 0.2, 1.255, 0.265, 1.32, 0.33, 1.3875, 0.3975, 1.4525, 0.4625, 1.5175, 0.53, 1.585, 0.595, 1.65, 0.66, 1.7175, 0.7275, 1.7825, 0.7925, 1.8475, 0.8575, 1.915, 0.925],
  "SoftwareVersions": "syngo MR E11",
  "SpacingBetweenSlices": 3.99,
  "StationName": "AWP66112",
  "TotalReadoutTime": 0.0395,
  "TxRefAmp": 225.242,
  "dcmmeta_affine": [
    [-2.9452669620513916, 0.562905490398407, 0.12290609627962112, 93.18363189697266],
    [0.5622892379760742, 2.782968282699585, 1.2887402772903442, -135.5115509033203],
    [-0.09608902037143707, -0.9686198234558105, 3.774141311645508, -6.56433629989624],
    [0.0, 0.0, 0.0, 1.0]
],
  "dcmmeta_reorient_transform": [
    [0.0, -1.0, 0.0, 79.0],
    [1.0, 0.0, 0.0, 0.0],
    [0.0, 0.0, 1.0, 0.0],
    [0.0, 0.0, 0.0, 1.0]
],
  "dcmmeta_shape": [80, 80, 30, 200],
  "dcmmeta_slice_dim": 2,
  "dcmmeta_version": 0.6,
  "global": {
    "const": {
      "AccessionNumber": "qa",
      "AcquisitionMatrix": [80, 0, 0, 80],
      "AngioFlag": "N",
      "BitsAllocated": 16,
      "BitsStored": 12,
      "BodyPartExamined": "BRAIN",
      "Columns": 480,
      "EchoNumbers": 1,
      "EchoTime": 30.0,
      "EchoTrainLength": 80,
      "FlipAngle": 10.0,
      "HighBit": 11,
      "ImageOrientationPatient": [0.98175566768793, -0.1874297440859, -0.0320296736564, 0.18763515489242, 0.92765613028176, 0.32287327637817],
      "ImagePositionPatient": [-839.28765759293, -528.47877707945, -257.59146454686],
      "ImageType": [
        "ORIGINAL",
        "PRIMARY",
        "M",
        "ND",
        "NORM",
        "MOSAIC"
],
      "ImagedNucleus": "1H",
      "ImagingFrequency": 123.25236,
      "InPlanePhaseEncodingDirection": "COL",
      "MRAcquisitionType": "2D",
      "MagneticFieldStrength": 3.0,
      "Manufacturer": "SIEMENS",
      "ManufacturerModelName": "Prisma",
      "Modality": "MR",
      "NumberOfAverages": 1.0,
      "NumberOfPhaseEncodingSteps": 80,
      "PercentPhaseFieldOfView": 100.0,
      "PercentSampling": 100.0,
      "PerformedProcedureStepStartTime": "091856.312000",
      "PhotometricInterpretation": "MONOCHROME2",
      "PixelBandwidth": 2315.0,
      "PixelRepresentation": 0,
      "PixelSpacing": [3.0, 3.0],
      "ProtocolName": "func-bold_fa-10",
      "RepetitionTime": 2000.0,
      "Rows": 480,
      "SAR": 0.00993207648654,
      "SamplesPerPixel": 1,
      "ScanOptions": "FS",
      "ScanningSequence": "EP",
      "SequenceName": "*epfid2d1_80",
      "SequenceVariant": "SK",
      "SeriesDescription": "func-bold_fa-10",
      "SeriesNumber": 10,
      "SeriesTime": "094316.458000",
      "SliceLocation": -47.108046363182,
      "SliceThickness": 3.5,
      "SmallestImagePixelValue": 0,
      "SoftwareVersions": "syngo MR E11",
      "SpacingBetweenSlices": 3.9899999518605,
      "SpecificCharacterSet": "ISO_IR 100",
      "StudyID": "8",
      "StudyTime": "091856.267000",
      "TransmitCoilName": "Body",
      "VariableFlipAngleFlag": "N",
      "WindowCenterWidthExplanation": "Algo1"
    },
    "slices": {}
  },
  "time": {
    "samples": {
      "AcquisitionNumber": [1, 2, 3, 4, 5, 6, 7, 8, 9, 10, 11, 12, 13, 14, 15, 16, 17, 18, 19, 20, 21, 22, 23, 24, 25, 26, 27, 28, 29, 30, 31, 32, 33, 34, 35, 36, 37, 38, 39, 40, 41, 42, 43, 44, 45, 46, 47, 48, 49, 50, 51, 52, 53, 54, 55, 56, 57, 58, 59, 60, 61, 62, 63, 64, 65, 66, 67, 68, 69, 70, 71, 72, 73, 74, 75, 76, 77, 78, 79, 80, 81, 82, 83, 84, 85, 86, 87, 88, 89, 90, 91, 92, 93, 94, 95, 96, 97, 98, 99, 100, 101, 102, 103, 104, 105, 106, 107, 108, 109, 110, 111, 112, 113, 114, 115, 116, 117, 118, 119, 120, 121, 122, 123, 124, 125, 126, 127, 128, 129, 130, 131, 132, 133, 134, 135, 136, 137, 138, 139, 140, 141, 142, 143, 144, 145, 146, 147, 148, 149, 150, 151, 152, 153, 154, 155, 156, 157, 158, 159, 160, 161, 162, 163, 164, 165, 166, 167, 168, 169, 170, 171, 172, 173, 174, 175, 176, 177, 178, 179, 180, 181, 182, 183, 184, 185, 186, 187, 188, 189, 190, 191, 192, 193, 194, 195, 196, 197, 198, 199, 200],
      "AcquisitionTime": ["094250.460000", "094252.460000", "094254.460000", "094256.460000", "094258.460000", "094300.460000", "094302.460000", "094304.460000", "094306.460000", "094308.460000", "094310.460000", "094312.460000", "094314.460000", "094316.460000", "094318.460000", "094320.460000", "094322.460000", "094324.460000", "094326.460000", "094328.460000", "094330.460000", "094332.460000", "094334.460000", "094336.460000", "094338.460000", "094340.460000", "094342.460000", "094344.460000", "094346.460000", "094348.460000", "094350.460000", "094352.460000", "094354.460000", "094356.460000", "094358.460000", "094400.460000", "094402.460000", "094404.460000", "094406.460000", "094408.460000", "094410.460000", "094412.460000", "094414.460000", "094416.460000", "094418.460000", "094420.460000", "094422.460000", "094424.460000", "094426.460000", "094428.460000", "094430.460000", "094432.460000", "094434.460000", "094436.460000", "094438.460000", "094440.460000", "094442.460000", "094444.460000", "094446.460000", "094448.460000", "094450.460000", "094452.460000", "094454.460000", "094456.460000", "094458.460000", "094500.460000", "094502.460000", "094504.460000", "094506.460000", "094508.460000", "094510.460000", "094512.460000", "094514.460000", "094516.460000", "094518.460000", "094520.460000", "094522.460000", "094524.460000", "094526.460000", "094528.460000", "094530.460000", "094532.460000", "094534.460000", "094536.460000", "094538.460000", "094540.460000", "094542.460000", "094544.460000", "094546.460000", "094548.460000", "094550.460000", "094552.460000", "094554.460000", "094556.460000", "094558.460000", "094600.460000", "094602.460000", "094604.460000", "094606.460000", "094608.460000", "094610.460000", "094612.460000", "094614.460000", "094616.460000", "094618.460000", "094620.460000", "094622.460000", "094624.460000", "094626.460000", "094628.460000", "094630.460000", "094632.460000", "094634.460000", "094636.460000", "094638.460000", "094640.460000", "094642.460000", "094644.460000", "094646.460000", "094648.460000", "094650.460000", "094652.460000", "094654.460000", "094656.460000", "094658.460000", "094700.460000", "094702.460000", "094704.460000", "094706.460000", "094708.460000", "094710.460000", "094712.460000", "094714.460000", "094716.460000", "094718.460000", "094720.460000", "094722.460000", "094724.460000", "094726.460000", "094728.460000", "094730.460000", "094732.460000", "094734.460000", "094736.460000", "094738.460000", "094740.460000", "094742.460000", "094744.460000", "094746.460000", "094748.460000", "094750.460000", "094752.460000", "094754.460000", "094756.460000", "094758.460000", "094800.460000", "094802.460000", "094804.460000", "094806.460000", "094808.460000", "094810.460000", "094812.460000", "094814.460000", "094816.460000", "094818.460000", "094820.460000", "094822.460000", "094824.460000", "094826.460000", "094828.460000", "094830.460000", "094832.460000", "094834.460000", "094836.460000", "094838.460000", "094840.460000", "094842.460000", "094844.460000", "094846.460000", "094848.460000", "094850.460000", "094852.460000", "094854.460000", "094856.460000", "094858.460000", "094900.460000", "094902.460000", "094904.460000", "094906.460000", "094908.460000", "094910.460000", "094912.460000", "094914.460000", "094916.460000", "094918.460000", "094920.460000", "094922.460000", "094924.460000", "094926.460000", "094928.460000"],
      "ContentTime": ["094316.462000", "094316.465000", "094316.467000", "094316.470000", "094316.472000", "094316.474000", "094316.483000", "094316.485000", "094316.487000", "094316.490000", "094316.492000", "094316.495000", "094316.497000", "094356.457000", "094356.460000", "094356.462000", "094356.464000", "094356.467000", "094356.469000", "094356.471000", "094356.483000", "094356.485000", "094356.487000", "094356.490000", "094356.492000", "094356.494000", "094356.497000", "094356.499000", "094356.501000", "094356.503000", "094356.506000", "094356.508000", "094356.511000", "094436.457000", "094436.460000", "094436.462000", "094436.464000", "094436.467000", "094436.469000", "094436.471000", "094436.474000", "094436.476000", "094436.478000", "094436.480000", "094436.483000", "094436.485000", "094436.487000", "094436.490000", "094436.492000", "094436.494000", "094436.497000", "094436.499000", "094436.501000", "094516.457000", "094516.460000", "094516.462000", "094516.464000", "094516.467000", "094516.469000", "094516.471000", "094516.474000", "094516.476000", "094516.478000", "094516.481000", "094516.483000", "094516.485000", "094516.488000", "094516.490000", "094516.492000", "094516.495000", "094516.497000", "094516.499000", "094516.502000", "094556.457000", "094556.463000", "094556.465000", "094556.468000", "094556.470000", "094556.472000", "094556.475000", "094556.477000", "094556.479000", "094556.482000", "094556.484000", "094556.486000", "094556.489000", "094556.491000", "094556.493000", "094556.496000", "094556.498000", "094556.500000", "094556.503000", "094556.505000", "094636.457000", "094636.460000", "094636.462000", "094636.464000", "094636.467000", "094636.469000", "094636.471000", "094636.474000", "094636.476000", "094636.478000", "094636.481000", "094636.483000", "094636.485000", "094636.488000", "094636.490000", "094636.492000", "094636.495000", "094636.497000", "094636.499000", "094636.502000", "094716.457000", "094716.460000", "094716.462000", "094716.465000", "094716.467000", "094716.469000", "094716.472000", "094716.474000", "094716.476000", "094716.478000", "094716.481000", "094716.483000", "094716.491000", "094716.494000", "094716.496000", "094716.498000", "094716.500000", "094716.503000", "094716.505000", "094716.507000", "094756.457000", "094756.460000", "094756.462000", "094756.464000", "094756.467000", "094756.469000", "094756.471000", "094756.474000", "094756.476000", "094756.479000", "094756.481000", "094756.483000", "094756.485000", "094756.488000", "094756.490000", "094756.492000", "094756.495000", "094756.497000", "094756.499000", "094756.502000", "094836.457000", "094836.460000", "094836.462000", "094836.465000", "094836.467000", "094836.469000", "094836.472000", "094836.474000", "094836.476000", "094836.479000", "094836.481000", "094836.483000", "094836.486000", "094836.488000", "094836.490000", "094836.493000", "094836.495000", "094836.497000", "094836.500000", "094836.502000", "094916.457000", "094916.460000", "094916.463000", "094916.465000", "094916.467000", "094916.470000", "094916.472000", "094916.474000", "094916.477000", "094916.479000", "094916.481000", "094916.484000", "094916.486000", "094916.488000", "094916.491000", "094916.493000", "094916.495000", "094916.498000", "094916.500000", "094916.502000", "094930.067000", "094930.070000", "094930.072000", "094930.075000", "094930.087000", "094930.090000", "094930.092000"],
      "InstanceCreationTime": ["094316.462000", "094316.465000", "094316.467000", "094316.470000", "094316.472000", "094316.474000", "094316.483000", "094316.485000", "094316.487000", "094316.490000", "094316.492000", "094316.495000", "094316.497000", "094356.457000", "094356.460000", "094356.462000", "094356.464000", "094356.467000", "094356.469000", "094356.471000", "094356.483000", "094356.485000", "094356.487000", "094356.490000", "094356.492000", "094356.494000", "094356.497000", "094356.499000", "094356.501000", "094356.503000", "094356.506000", "094356.508000", "094356.511000", "094436.457000", "094436.460000", "094436.462000", "094436.464000", "094436.467000", "094436.469000", "094436.471000", "094436.474000", "094436.476000", "094436.478000", "094436.480000", "094436.483000", "094436.485000", "094436.487000", "094436.490000", "094436.492000", "094436.494000", "094436.497000", "094436.499000", "094436.501000", "094516.457000", "094516.460000", "094516.462000", "094516.464000", "094516.467000", "094516.469000", "094516.471000", "094516.474000", "094516.476000", "094516.478000", "094516.481000", "094516.483000", "094516.485000", "094516.488000", "094516.490000", "094516.492000", "094516.495000", "094516.497000", "094516.499000", "094516.502000", "094556.457000", "094556.463000", "094556.465000", "094556.468000", "094556.470000", "094556.472000", "094556.475000", "094556.477000", "094556.479000", "094556.482000", "094556.484000", "094556.486000", "094556.489000", "094556.491000", "094556.493000", "094556.496000", "094556.498000", "094556.500000", "094556.503000", "094556.505000", "094636.457000", "094636.460000", "094636.462000", "094636.464000", "094636.467000", "094636.469000", "094636.471000", "094636.474000", "094636.476000", "094636.478000", "094636.481000", "094636.483000", "094636.485000", "094636.488000", "094636.490000", "094636.492000", "094636.495000", "094636.497000", "094636.499000", "094636.502000", "094716.457000", "094716.460000", "094716.462000", "094716.465000", "094716.467000", "094716.469000", "094716.472000", "094716.474000", "094716.476000", "094716.478000", "094716.481000", "094716.483000", "094716.491000", "094716.494000", "094716.496000", "094716.498000", "094716.500000", "094716.503000", "094716.505000", "094716.507000", "094756.457000", "094756.460000", "094756.462000", "094756.464000", "094756.467000", "094756.469000", "094756.471000", "094756.474000", "094756.476000", "094756.479000", "094756.481000", "094756.483000", "094756.485000", "094756.488000", "094756.490000", "094756.492000", "094756.495000", "094756.497000", "094756.499000", "094756.502000", "094836.457000", "094836.460000", "094836.462000", "094836.465000", "094836.467000", "094836.469000", "094836.472000", "094836.474000", "094836.476000", "094836.479000", "094836.481000", "094836.483000", "094836.486000", "094836.488000", "094836.490000", "094836.493000", "094836.495000", "094836.497000", "094836.500000", "094836.502000", "094916.457000", "094916.460000", "094916.463000", "094916.465000", "094916.467000", "094916.470000", "094916.472000", "094916.474000", "094916.477000", "094916.479000", "094916.481000", "094916.484000", "094916.486000", "094916.488000", "094916.491000", "094916.493000", "094916.495000", "094916.498000", "094916.500000", "094916.502000", "094930.067000", "094930.070000", "094930.072000", "094930.075000", "094930.087000", "094930.090000", "094930.092000"],
      "InstanceNumber": [1, 2, 3, 4, 5, 6, 7, 8, 9, 10, 11, 12, 13, 14, 15, 16, 17, 18, 19, 20, 21, 22, 23, 24, 25, 26, 27, 28, 29, 30, 31, 32, 33, 34, 35, 36, 37, 38, 39, 40, 41, 42, 43, 44, 45, 46, 47, 48, 49, 50, 51, 52, 53, 54, 55, 56, 57, 58, 59, 60, 61, 62, 63, 64, 65, 66, 67, 68, 69, 70, 71, 72, 73, 74, 75, 76, 77, 78, 79, 80, 81, 82, 83, 84, 85, 86, 87, 88, 89, 90, 91, 92, 93, 94, 95, 96, 97, 98, 99, 100, 101, 102, 103, 104, 105, 106, 107, 108, 109, 110, 111, 112, 113, 114, 115, 116, 117, 118, 119, 120, 121, 122, 123, 124, 125, 126, 127, 128, 129, 130, 131, 132, 133, 134, 135, 136, 137, 138, 139, 140, 141, 142, 143, 144, 145, 146, 147, 148, 149, 150, 151, 152, 153, 154, 155, 156, 157, 158, 159, 160, 161, 162, 163, 164, 165, 166, 167, 168, 169, 170, 171, 172, 173, 174, 175, 176, 177, 178, 179, 180, 181, 182, 183, 184, 185, 186, 187, 188, 189, 190, 191, 192, 193, 194, 195, 196, 197, 198, 199, 200],
      "LargestImagePixelValue": [379, 381, 380, 382, 380, 380, 381, 380, 381, 382, 380, 380, 379, 380, 380, 381, 380, 379, 381, 379, 380, 382, 379, 380, 380, 380, 380, 380, 382, 384, 381, 379, 381, 381, 379, 380, 380, 381, 380, 379, 380, 378, 380, 379, 380, 379, 379, 382, 378, 381, 381, 379, 381, 382, 382, 381, 381, 381, 386, 381, 381, 381, 381, 379, 382, 380, 379, 380, 379, 380, 380, 381, 379, 381, 380, 379, 380, 379, 380, 381, 379, 380, 382, 383, 381, 382, 380, 380, 382, 381, 382, 379, 381, 382, 380, 381, 379, 380, 380, 380, 381, 380, 381, 379, 380, 381, 379, 382, 380, 380, 380, 379, 380, 380, 381, 380, 379, 379, 380, 380, 381, 381, 380, 378, 381, 380, 380, 380, 380, 382, 380, 380, 380, 380, 379, 380, 380, 380, 381, 378, 380, 381, 380, 380, 382, 381, 380, 379, 380, 381, 381, 381, 381, 381, 380, 380, 380, 379, 380, 379, 381, 380, 381, 379, 380, 382, 380, 381, 380, 380, 381, 378, 379, 381, 379, 383, 379, 379, 380, 381, 382, 380, 381, 380, 383, 380, 379, 380, 379, 383, 381, 379, 381, 380, 380, 380, 380, 379, 381, 380],
      "WindowCenter": [312.0, 312.0, 312.0, 312.0, 312.0, 311.0, 312.0, 312.0, 312.0, 312.0, 312.0, 312.0, 312.0, 311.0, 311.0, 312.0, 312.0, 312.0, 312.0, 311.0, 312.0, 312.0, 311.0, 312.0, 312.0, 312.0, 311.0, 312.0, 312.0, 311.0, 312.0, 311.0, 312.0, 311.0, 311.0, 312.0, 312.0, 312.0, 312.0, 311.0, 311.0, 311.0, 312.0, 311.0, 312.0, 312.0, 311.0, 312.0, 312.0, 312.0, 312.0, 311.0, 311.0, 311.0, 311.0, 311.0, 311.0, 312.0, 312.0, 312.0, 312.0, 311.0, 311.0, 312.0, 312.0, 312.0, 312.0, 311.0, 312.0, 312.0, 311.0, 312.0, 311.0, 312.0, 312.0, 311.0, 311.0, 312.0, 311.0, 311.0, 311.0, 311.0, 312.0, 312.0, 311.0, 312.0, 311.0, 311.0, 311.0, 311.0, 312.0, 311.0, 311.0, 311.0, 311.0, 312.0, 311.0, 311.0, 311.0, 311.0, 311.0, 311.0, 312.0, 311.0, 312.0, 311.0, 311.0, 311.0, 311.0, 311.0, 311.0, 311.0, 311.0, 312.0, 311.0, 312.0, 311.0, 311.0, 311.0, 311.0, 311.0, 311.0, 311.0, 311.0, 311.0, 311.0, 311.0, 311.0, 311.0, 311.0, 311.0, 312.0, 311.0, 311.0, 311.0, 311.0, 311.0, 311.0, 311.0, 311.0, 312.0, 312.0, 312.0, 311.0, 311.0, 311.0, 311.0, 311.0, 311.0, 312.0, 311.0, 312.0, 312.0, 311.0, 311.0, 311.0, 312.0, 311.0, 311.0, 311.0, 311.0, 311.0, 312.0, 311.0, 312.0, 311.0, 312.0, 311.0, 311.0, 311.0, 311.0, 311.0, 311.0, 311.0, 311.0, 311.0, 312.0, 311.0, 312.0, 311.0, 311.0, 311.0, 311.0, 311.0, 312.0, 311.0, 311.0, 311.0, 311.0, 311.0, 311.0, 312.0, 311.0, 311.0, 311.0, 311.0, 311.0, 311.0, 311.0, 311.0],
      "WindowWidth": [673.0, 673.0, 672.0, 672.0, 672.0, 671.0, 673.0, 672.0, 672.0, 673.0, 672.0, 673.0, 672.0, 671.0, 671.0, 672.0, 672.0, 672.0, 673.0, 671.0, 672.0, 672.0, 671.0, 672.0, 672.0, 672.0, 671.0, 672.0, 672.0, 671.0, 672.0, 671.0, 672.0, 671.0, 671.0, 672.0, 672.0, 672.0, 672.0, 671.0, 671.0, 671.0, 672.0, 671.0, 673.0, 673.0, 671.0, 672.0, 671.0, 672.0, 672.0, 671.0, 671.0, 671.0, 671.0, 671.0, 671.0, 672.0, 672.0, 671.0, 671.0, 671.0, 671.0, 672.0, 672.0, 671.0, 671.0, 671.0, 671.0, 671.0, 671.0, 672.0, 671.0, 672.0, 671.0, 671.0, 671.0, 671.0, 671.0, 671.0, 671.0, 671.0, 671.0, 671.0, 671.0, 671.0, 671.0, 671.0, 671.0, 671.0, 672.0, 671.0, 671.0, 671.0, 671.0, 672.0, 671.0, 671.0, 671.0, 671.0, 671.0, 671.0, 671.0, 671.0, 672.0, 671.0, 671.0, 671.0, 671.0, 671.0, 671.0, 671.0, 671.0, 671.0, 671.0, 671.0, 671.0, 671.0, 671.0, 671.0, 671.0, 671.0, 671.0, 671.0, 671.0, 671.0, 671.0, 671.0, 671.0, 671.0, 671.0, 672.0, 671.0, 671.0, 671.0, 671.0, 671.0, 671.0, 671.0, 671.0, 671.0, 672.0, 671.0, 671.0, 671.0, 671.0, 671.0, 671.0, 671.0, 671.0, 671.0, 671.0, 671.0, 671.0, 671.0, 671.0, 671.0, 671.0, 671.0, 671.0, 671.0, 670.0, 671.0, 671.0, 671.0, 671.0, 671.0, 671.0, 671.0, 671.0, 671.0, 671.0, 671.0, 671.0, 671.0, 671.0, 671.0, 671.0, 671.0, 671.0, 671.0, 671.0, 671.0, 671.0, 671.0, 671.0, 671.0, 671.0, 671.0, 671.0, 671.0, 671.0, 671.0, 671.0, 671.0, 670.0, 671.0, 671.0, 671.0, 671.0]
    },
    "slices": {}
  }
}