{
  "AcquisitionMatrixPE": 80,
  "AcquisitionNumber": 1,
  "AcquisitionTime": "11:22:2.197500",
  "BandwidthPerPixelPhaseEncode": 44.643,
  "BaseResolution": 80,
  "BodyPartExamined": "BRAIN",
  "CoilCombinationMethod": "Sum of Squares",
  "ConsistencyInfo": "N4_VE11C_LATEST_20160120",
  "ConversionSoftware": "dcm2niix",
  "ConversionSoftwareVersion": "v1.0.20220720",
  "DerivedVendorReportedEchoSpacing": 0.000559998,
  "DeviceSerialNumber": "66112",
  "DwellTime": 2.7e-06,
  "EchoTime": 0.035,
  "EchoTrainLength": 39,
  "EffectiveEchoSpacing": 0.000279999,
  "FlipAngle": 90,
  "HeudiconvVersion": "0.13.1",
  "ImageOrientationPatientDICOM": [0.987931, 0.154574, 0.00997277, -0.150116, 0.939594, 0.307616],
  "ImageOrientationText": "Tra>Cor(17.8)>Sag(-2.2)",
  "ImageType": [
    "ORIGINAL",
    "PRIMARY",
    "M",
    "ND",
    "NORM",
    "MOSAIC"
],
  "ImagingFrequency": 123.252,
  "InPlanePhaseEncodingDirectionDICOM": "COL",
  "InstitutionAddress": "Maynard 3,Hanover,NH,US,03755",
  "InstitutionName": "Dartmouth College - PBS",
  "InstitutionalDepartmentName": "Department",
  "MRAcquisitionType": "2D",
  "MagneticFieldStrength": 3,
  "Manufacturer": "Siemens",
  "ManufacturersModelName": "Prisma",
  "Modality": "MR",
  "MultibandAccelerationFactor": 4,
  "NonlinearGradientCorrection": false,
  "ParallelReductionFactorInPlane": 2,
  "PartialFourier": 1,
  "PatientPosition": "HFS",
  "PercentPhaseFOV": 100,
  "PercentSampling": 100,
  "PhaseEncodingDirection": "j-",
  "PhaseEncodingSteps": 79,
  "PhaseResolution": 1,
  "PixelBandwidth": 2315,
  "ProcedureStepDescription": "dbic^QA",
  "ProtocolName": "func-bold_task-rest_acq-p2-s4-3.5mm",
  "PulseSequenceDetails": "%SiemensSeq%\\ep2d_bold",
  "ReceiveCoilActiveElements": "HEA;HEP",
  "ReceiveCoilName": "Head_32",
  "ReconMatrixPE": 80,
  "RefLinesPE": 24,
  "RepetitionTime": 2,
  "SAR": 0.0208817,
  "ScanOptions": "FS",
  "ScanningSequence": "EP",
  "SequenceName": "*epfid2d1_80",
  "SequenceVariant": "SK",
  "SeriesDescription": "func-bold_task-rest_acq-p2-s4-3.5mm",
  "SeriesNumber": 7,
  "ShimSetting": [4144, -7711, -7511, 261, -48, -75, 1, 80],
  "SliceThickness": 3.5,
  "SliceTiming": [1.485, 0, 0.99, 0.2475, 1.2375, 0.7425, 1.7325, 0.495, 1.485, 0, 0.99, 0.2475, 1.2375, 0.7425, 1.7325, 0.495, 1.485, 0, 0.99, 0.2475, 1.2375, 0.7425, 1.7325, 0.495, 1.485, 0, 0.99, 0.2475, 1.2375, 0.7425, 1.7325, 0.495],
  "SoftwareVersions": "syngo MR E11",
  "SpacingBetweenSlices": 3.99,
  "StationName": "AWP66112",
  "TaskName": "rest",
  "TotalReadoutTime": 0.0221199,
  "TxRefAmp": 221.474,
  "dcmmeta_affine": [
    [-2.9637928009033203, -0.45034825801849365, -0.15233385562896729, 140.3021240234375],
    [-0.4637209475040436, 2.8187835216522217, 1.2185462713241577, -95.87672424316406],
    [0.02991831861436367, -0.9228469133377075, 3.7963192462921143, -25.68027687072754],
    [0.0, 0.0, 0.0, 1.0]
],
  "dcmmeta_reorient_transform": [
    [0.0, -1.0, 0.0, 79.0],
    [1.0, 0.0, 0.0, 0.0],
    [0.0, 0.0, 1.0, 0.0],
    [0.0, 0.0, 0.0, 1.0]
],
  "dcmmeta_shape": [80, 80, 32, 200],
  "dcmmeta_slice_dim": 2,
  "dcmmeta_version": 0.6,
  "global": {
    "const": {
      "AccessionNumber": "qa",
      "AcquisitionMatrix": [80, 0, 0, 80],
      "AngioFlag": "N",
      "BitsAllocated": 16,
      "BitsStored": 12,
      "BodyPartExamined": "BRAIN",
      "Columns": 480,
      "EchoNumbers": 1,
      "EchoTime": 35.0,
      "EchoTrainLength": 39,
      "FlipAngle": 90.0,
      "HighBit": 11,
      "ImageOrientationPatient": [0.98793093385916, 0.15457365145825, 0.009972772886, -0.1501160907059, 0.93959447399731, 0.30761564288068],
      "ImagePositionPatient": [-607.41351043841, -783.30804266809, -289.13823439474],
      "ImageType": [
        "ORIGINAL",
        "PRIMARY",
        "M",
        "ND",
        "NORM",
        "MOSAIC"
],
      "ImagedNucleus": "1H",
      "ImagingFrequency": 123.252358,
      "InPlanePhaseEncodingDirection": "COL",
      "MRAcquisitionType": "2D",
      "MagneticFieldStrength": 3.0,
      "Manufacturer": "SIEMENS",
      "ManufacturerModelName": "Prisma",
      "Modality": "MR",
      "NumberOfAverages": 1.0,
      "NumberOfPhaseEncodingSteps": 79,
      "PercentPhaseFieldOfView": 100.0,
      "PercentSampling": 100.0,
      "PerformedProcedureStepStartTime": "111342.944000",
      "PhotometricInterpretation": "MONOCHROME2",
      "PixelBandwidth": 2315.0,
      "PixelRepresentation": 0,
      "PixelSpacing": [3.0, 3.0],
      "ProtocolName": "func-bold_task-rest_acq-p2-s4-3.5mm",
      "RepetitionTime": 2000.0,
      "Rows": 480,
      "SAR": 0.02088174587028,
      "SamplesPerPixel": 1,
      "ScanOptions": "FS",
      "ScanningSequence": "EP",
      "SequenceName": "*epfid2d1_80",
      "SequenceVariant": "SK",
      "SeriesDescription": "func-bold_task-rest_acq-p2-s4-3.5mm",
      "SeriesNumber": 7,
      "SeriesTime": "112257.719000",
      "SliceLocation": -59.071058003306,
      "SliceThickness": 3.5,
      "SmallestImagePixelValue": 0,
      "SoftwareVersions": "syngo MR E11",
      "SpacingBetweenSlices": 3.9899999948861,
      "SpecificCharacterSet": "ISO_IR 100",
      "StudyID": "24",
      "StudyTime": "111342.889000",
      "TransmitCoilName": "Body",
      "VariableFlipAngleFlag": "N",
      "WindowCenterWidthExplanation": "Algo1",
      "dBdt": 0.0},
    "slices": {}
  },
  "time": {
    "samples": {
      "AcquisitionNumber": [1, 2, 3, 4, 5, 6, 7, 8, 9, 10, 11, 12, 13, 14, 15, 16, 17, 18, 19, 20, 21, 22, 23, 24, 25, 26, 27, 28, 29, 30, 31, 32, 33, 34, 35, 36, 37, 38, 39, 40, 41, 42, 43, 44, 45, 46, 47, 48, 49, 50, 51, 52, 53, 54, 55, 56, 57, 58, 59, 60, 61, 62, 63, 64, 65, 66, 67, 68, 69, 70, 71, 72, 73, 74, 75, 76, 77, 78, 79, 80, 81, 82, 83, 84, 85, 86, 87, 88, 89, 90, 91, 92, 93, 94, 95, 96, 97, 98, 99, 100, 101, 102, 103, 104, 105, 106, 107, 108, 109, 110, 111, 112, 113, 114, 115, 116, 117, 118, 119, 120, 121, 122, 123, 124, 125, 126, 127, 128, 129, 130, 131, 132, 133, 134, 135, 136, 137, 138, 139, 140, 141, 142, 143, 144, 145, 146, 147, 148, 149, 150, 151, 152, 153, 154, 155, 156, 157, 158, 159, 160, 161, 162, 163, 164, 165, 166, 167, 168, 169, 170, 171, 172, 173, 174, 175, 176, 177, 178, 179, 180, 181, 182, 183, 184, 185, 186, 187, 188, 189, 190, 191, 192, 193, 194, 195, 196, 197, 198, 199, 200],
      "AcquisitionTime": ["112202.197500", "112204.197500", "112206.197500", "112208.197500", "112210.197500", "112212.197500", "112214.197500", "112216.197500", "112218.197500", "112220.197500", "112222.197500", "112224.197500", "112226.197500", "112228.197500", "112230.197500", "112232.197500", "112234.197500", "112236.197500", "112238.197500", "112240.197500", "112242.197500", "112244.197500", "112246.197500", "112248.197500", "112250.197500", "112252.197500", "112254.197500", "112256.197500", "112258.197500", "112300.197500", "112302.197500", "112304.197500", "112306.197500", "112308.197500", "112310.197500", "112312.197500", "112314.197500", "112316.197500", "112318.197500", "112320.197500", "112322.197500", "112324.197500", "112326.197500", "112328.197500", "112330.197500", "112332.197500", "112334.197500", "112336.197500", "112338.197500", "112340.197500", "112342.197500", "112344.197500", "112346.197500", "112348.197500", "112350.197500", "112352.197500", "112354.197500", "112356.197500", "112358.197500", "112400.197500", "112402.197500", "112404.197500", "112406.197500", "112408.197500", "112410.197500", "112412.197500", "112414.197500", "112416.197500", "112418.197500", "112420.197500", "112422.197500", "112424.197500", "112426.197500", "112428.197500", "112430.197500", "112432.197500", "112434.197500", "112436.197500", "112438.197500", "112440.197500", "112442.197500", "112444.197500", "112446.197500", "112448.197500", "112450.197500", "112452.197500", "112454.197500", "112456.197500", "112458.197500", "112500.197500", "112502.197500", "112504.197500", "112506.197500", "112508.197500", "112510.197500", "112512.197500", "112514.197500", "112516.197500", "112518.197500", "112520.197500", "112522.197500", "112524.197500", "112526.197500", "112528.197500", "112530.197500", "112532.197500", "112534.197500", "112536.197500", "112538.197500", "112540.197500", "112542.197500", "112544.197500", "112546.197500", "112548.197500", "112550.197500", "112552.197500", "112554.197500", "112556.197500", "112558.197500", "112600.197500", "112602.197500", "112604.197500", "112606.197500", "112608.197500", "112610.197500", "112612.197500", "112614.197500", "112616.197500", "112618.197500", "112620.197500", "112622.197500", "112624.197500", "112626.197500", "112628.197500", "112630.197500", "112632.197500", "112634.197500", "112636.197500", "112638.197500", "112640.197500", "112642.197500", "112644.197500", "112646.197500", "112648.197500", "112650.197500", "112652.197500", "112654.197500", "112656.197500", "112658.197500", "112700.197500", "112702.197500", "112704.197500", "112706.197500", "112708.197500", "112710.197500", "112712.197500", "112714.197500", "112716.197500", "112718.197500", "112720.197500", "112722.197500", "112724.197500", "112726.197500", "112728.197500", "112730.197500", "112732.197500", "112734.197500", "112736.197500", "112738.197500", "112740.197500", "112742.197500", "112744.197500", "112746.197500", "112748.197500", "112750.197500", "112752.197500", "112754.197500", "112756.197500", "112758.197500", "112800.197500", "112802.197500", "112804.197500", "112806.197500", "112808.197500", "112810.197500", "112812.197500", "112814.197500", "112816.197500", "112818.197500", "112820.197500", "112822.197500", "112824.197500", "112826.197500", "112828.197500", "112830.197500", "112832.197500", "112834.197500", "112836.197500", "112838.197500", "112840.197500"],
      "ContentTime": ["112257.723000", "112257.727000", "112257.730000", "112257.733000", "112257.736000", "112257.739000", "112257.742000", "112257.751000", "112257.754000", "112257.757000", "112257.759000", "112257.762000", "112257.765000", "112257.768000", "112257.771000", "112257.774000", "112257.777000", "112257.780000", "112257.783000", "112257.786000", "112257.789000", "112257.792000", "112257.795000", "112257.798000", "112257.801000", "112257.804000", "112257.807000", "112257.810000", "112337.717000", "112337.720000", "112337.723000", "112337.725000", "112337.728000", "112337.730000", "112337.733000", "112337.735000", "112337.745000", "112337.748000", "112337.751000", "112337.753000", "112337.756000", "112337.758000", "112337.761000", "112337.763000", "112337.766000", "112337.768000", "112337.771000", "112337.773000", "112417.718000", "112417.720000", "112417.723000", "112417.726000", "112417.728000", "112417.731000", "112417.733000", "112417.736000", "112417.738000", "112417.741000", "112417.743000", "112417.746000", "112417.749000", "112417.751000", "112417.754000", "112417.756000", "112417.759000", "112417.761000", "112417.764000", "112417.766000", "112457.717000", "112457.720000", "112457.723000", "112457.725000", "112457.728000", "112457.731000", "112457.733000", "112457.736000", "112457.738000", "112457.741000", "112457.743000", "112457.746000", "112457.749000", "112457.751000", "112457.754000", "112457.756000", "112457.759000", "112457.761000", "112457.764000", "112457.766000", "112537.717000", "112537.720000", "112537.723000", "112537.725000", "112537.733000", "112537.736000", "112537.738000", "112537.741000", "112537.744000", "112537.746000", "112537.749000", "112537.751000", "112537.754000", "112537.757000", "112537.759000", "112537.762000", "112537.764000", "112537.767000", "112537.769000", "112537.772000", "112617.717000", "112617.720000", "112617.723000", "112617.725000", "112617.728000", "112617.731000", "112617.733000", "112617.736000", "112617.738000", "112617.741000", "112617.743000", "112617.746000", "112617.749000", "112617.751000", "112617.754000", "112617.756000", "112617.759000", "112617.761000", "112617.764000", "112617.766000", "112657.717000", "112657.720000", "112657.723000", "112657.725000", "112657.728000", "112657.731000", "112657.733000", "112657.736000", "112657.738000", "112657.741000", "112657.743000", "112657.746000", "112657.748000", "112657.751000", "112657.753000", "112657.756000", "112657.758000", "112657.761000", "112657.763000", "112657.766000", "112737.717000", "112737.720000", "112737.723000", "112737.725000", "112737.728000", "112737.731000", "112737.733000", "112737.736000", "112737.739000", "112737.741000", "112737.744000", "112737.746000", "112737.749000", "112737.751000", "112737.754000", "112737.756000", "112737.759000", "112737.762000", "112737.764000", "112737.767000", "112817.718000", "112817.720000", "112817.723000", "112817.726000", "112817.728000", "112817.731000", "112817.734000", "112817.736000", "112817.739000", "112817.748000", "112817.751000", "112817.754000", "112817.756000", "112817.759000", "112817.761000", "112817.764000", "112817.767000", "112817.769000", "112817.772000", "112817.774000", "112841.265000", "112841.278000", "112841.280000", "112841.283000", "112841.286000", "112841.288000", "112841.291000", "112841.293000", "112841.296000", "112841.299000", "112841.302000", "112841.304000"],
      "InstanceCreationTime": ["112257.723000", "112257.727000", "112257.730000", "112257.733000", "112257.736000", "112257.739000", "112257.742000", "112257.751000", "112257.754000", "112257.757000", "112257.759000", "112257.762000", "112257.765000", "112257.768000", "112257.771000", "112257.774000", "112257.777000", "112257.780000", "112257.783000", "112257.786000", "112257.789000", "112257.792000", "112257.795000", "112257.798000", "112257.801000", "112257.804000", "112257.807000", "112257.810000", "112337.717000", "112337.720000", "112337.723000", "112337.725000", "112337.728000", "112337.730000", "112337.733000", "112337.735000", "112337.745000", "112337.748000", "112337.751000", "112337.753000", "112337.756000", "112337.758000", "112337.761000", "112337.763000", "112337.766000", "112337.768000", "112337.771000", "112337.773000", "112417.718000", "112417.720000", "112417.723000", "112417.726000", "112417.728000", "112417.731000", "112417.733000", "112417.736000", "112417.738000", "112417.741000", "112417.743000", "112417.746000", "112417.749000", "112417.751000", "112417.754000", "112417.756000", "112417.759000", "112417.761000", "112417.764000", "112417.766000", "112457.717000", "112457.720000", "112457.723000", "112457.725000", "112457.728000", "112457.731000", "112457.733000", "112457.736000", "112457.738000", "112457.741000", "112457.743000", "112457.746000", "112457.749000", "112457.751000", "112457.754000", "112457.756000", "112457.759000", "112457.761000", "112457.764000", "112457.766000", "112537.717000", "112537.720000", "112537.723000", "112537.725000", "112537.733000", "112537.736000", "112537.738000", "112537.741000", "112537.744000", "112537.746000", "112537.749000", "112537.751000", "112537.754000", "112537.757000", "112537.759000", "112537.762000", "112537.764000", "112537.767000", "112537.769000", "112537.772000", "112617.717000", "112617.720000", "112617.723000", "112617.725000", "112617.728000", "112617.731000", "112617.733000", "112617.736000", "112617.738000", "112617.741000", "112617.743000", "112617.746000", "112617.749000", "112617.751000", "112617.754000", "112617.756000", "112617.759000", "112617.761000", "112617.764000", "112617.766000", "112657.717000", "112657.720000", "112657.723000", "112657.725000", "112657.728000", "112657.731000", "112657.733000", "112657.736000", "112657.738000", "112657.741000", "112657.743000", "112657.746000", "112657.748000", "112657.751000", "112657.753000", "112657.756000", "112657.758000", "112657.761000", "112657.763000", "112657.766000", "112737.717000", "112737.720000", "112737.723000", "112737.725000", "112737.728000", "112737.731000", "112737.733000", "112737.736000", "112737.739000", "112737.741000", "112737.744000", "112737.746000", "112737.749000", "112737.751000", "112737.754000", "112737.756000", "112737.759000", "112737.762000", "112737.764000", "112737.767000", "112817.718000", "112817.720000", "112817.723000", "112817.726000", "112817.728000", "112817.731000", "112817.734000", "112817.736000", "112817.739000", "112817.748000", "112817.751000", "112817.754000", "112817.756000", "112817.759000", "112817.761000", "112817.764000", "112817.767000", "112817.769000", "112817.772000", "112817.774000", "112841.265000", "112841.278000", "112841.280000", "112841.283000", "112841.286000", "112841.288000", "112841.291000", "112841.293000", "112841.296000", "112841.299000", "112841.302000", "112841.304000"],
      "InstanceNumber": [1, 2, 3, 4, 5, 6, 7, 8, 9, 10, 11, 12, 13, 14, 15, 16, 17, 18, 19, 20, 21, 22, 23, 24, 25, 26, 27, 28, 29, 30, 31, 32, 33, 34, 35, 36, 37, 38, 39, 40, 41, 42, 43, 44, 45, 46, 47, 48, 49, 50, 51, 52, 53, 54, 55, 56, 57, 58, 59, 60, 61, 62, 63, 64, 65, 66, 67, 68, 69, 70, 71, 72, 73, 74, 75, 76, 77, 78, 79, 80, 81, 82, 83, 84, 85, 86, 87, 88, 89, 90, 91, 92, 93, 94, 95, 96, 97, 98, 99, 100, 101, 102, 103, 104, 105, 106, 107, 108, 109, 110, 111, 112, 113, 114, 115, 116, 117, 118, 119, 120, 121, 122, 123, 124, 125, 126, 127, 128, 129, 130, 131, 132, 133, 134, 135, 136, 137, 138, 139, 140, 141, 142, 143, 144, 145, 146, 147, 148, 149, 150, 151, 152, 153, 154, 155, 156, 157, 158, 159, 160, 161, 162, 163, 164, 165, 166, 167, 168, 169, 170, 171, 172, 173, 174, 175, 176, 177, 178, 179, 180, 181, 182, 183, 184, 185, 186, 187, 188, 189, 190, 191, 192, 193, 194, 195, 196, 197, 198, 199, 200],
      "LargestImagePixelValue": [1898, 1896, 1903, 1897, 1895, 1890, 1895, 1890, 1895, 1896, 1894, 1892, 1896, 1897, 1894, 1896, 1899, 1898, 1904, 1895, 1900, 1894, 1895, 1903, 1894, 1903, 1899, 1899, 1910, 1903, 1895, 1896, 1897, 1902, 1900, 1897, 1897, 1899, 1898, 1899, 1903, 1900, 1905, 1902, 1899, 1897, 1891, 1899, 1898, 1900, 1902, 1896, 1898, 1897, 1897, 1905, 1898, 1903, 1905, 1899, 1898, 1902, 1893, 1900, 1907, 1901, 1902, 1907, 1903, 1898, 1904, 1900, 1903, 1905, 1898, 1901, 1901, 1898, 1906, 1908, 1905, 1902, 1899, 1898, 1901, 1900, 1895, 1899, 1900, 1898, 1902, 1897, 1899, 1903, 1901, 1900, 1897, 1897, 1897, 1898, 1900, 1902, 1902, 1902, 1898, 1899, 1900, 1902, 1898, 1901, 1900, 1899, 1909, 1898, 1907, 1900, 1905, 1901, 1905, 1899, 1900, 1899, 1900, 1898, 1904, 1907, 1899, 1900, 1903, 1904, 1898, 1904, 1904, 1898, 1901, 1905, 1895, 1903, 1898, 1901, 1898, 1893, 1901, 1898, 1899, 1896, 1895, 1902, 1900, 1897, 1896, 1899, 1900, 1893, 1898, 1898, 1896, 1895, 1899, 1897, 1895, 1897, 1895, 1897, 1898, 1900, 1894, 1901, 1896, 1894, 1904, 1904, 1895, 1899, 1908, 1892, 1894, 1900, 1897, 1896, 1901, 1896, 1900, 1901, 1896, 1898, 1900, 1903, 1903, 1909, 1901, 1908, 1914, 1898, 1910, 1910, 1908, 1903, 1903, 1901],
      "WindowCenter": [909.0, 909.0, 909.0, 909.0, 909.0, 910.0, 909.0, 909.0, 909.0, 909.0, 909.0, 909.0, 909.0, 909.0, 909.0, 909.0, 909.0, 909.0, 909.0, 909.0, 909.0, 909.0, 909.0, 909.0, 909.0, 909.0, 909.0, 909.0, 910.0, 909.0, 909.0, 909.0, 909.0, 909.0, 909.0, 909.0, 909.0, 909.0, 910.0, 909.0, 909.0, 909.0, 909.0, 909.0, 909.0, 909.0, 909.0, 909.0, 909.0, 909.0, 909.0, 910.0, 909.0, 909.0, 909.0, 910.0, 909.0, 910.0, 909.0, 909.0, 909.0, 910.0, 909.0, 909.0, 909.0, 909.0, 909.0, 909.0, 909.0, 909.0, 909.0, 910.0, 909.0, 909.0, 909.0, 909.0, 909.0, 909.0, 909.0, 909.0, 909.0, 909.0, 909.0, 909.0, 909.0, 909.0, 909.0, 909.0, 910.0, 909.0, 909.0, 909.0, 909.0, 909.0, 909.0, 909.0, 909.0, 909.0, 909.0, 909.0, 909.0, 909.0, 909.0, 909.0, 909.0, 909.0, 909.0, 909.0, 909.0, 909.0, 909.0, 909.0, 909.0, 909.0, 909.0, 909.0, 909.0, 909.0, 909.0, 909.0, 909.0, 909.0, 909.0, 909.0, 909.0, 909.0, 909.0, 909.0, 909.0, 909.0, 909.0, 909.0, 909.0, 909.0, 909.0, 909.0, 909.0, 909.0, 909.0, 909.0, 910.0, 909.0, 909.0, 909.0, 909.0, 909.0, 909.0, 909.0, 910.0, 909.0, 909.0, 909.0, 909.0, 909.0, 910.0, 909.0, 909.0, 909.0, 909.0, 909.0, 909.0, 909.0, 909.0, 909.0, 909.0, 909.0, 909.0, 909.0, 909.0, 909.0, 909.0, 909.0, 909.0, 909.0, 909.0, 909.0, 909.0, 909.0, 909.0, 910.0, 909.0, 909.0, 909.0, 909.0, 909.0, 909.0, 909.0, 909.0, 909.0, 909.0, 909.0, 909.0, 909.0, 909.0, 909.0, 909.0, 909.0, 909.0, 909.0, 909.0],
      "WindowWidth": [2057.0, 2058.0, 2058.0, 2058.0, 2057.0, 2058.0, 2057.0, 2057.0, 2057.0, 2057.0, 2057.0, 2057.0, 2057.0, 2057.0, 2057.0, 2058.0, 2057.0, 2057.0, 2056.0, 2057.0, 2056.0, 2057.0, 2057.0, 2056.0, 2057.0, 2057.0, 2056.0, 2057.0, 2057.0, 2057.0, 2056.0, 2056.0, 2056.0, 2056.0, 2057.0, 2056.0, 2056.0, 2056.0, 2057.0, 2056.0, 2056.0, 2056.0, 2057.0, 2056.0, 2056.0, 2057.0, 2056.0, 2056.0, 2056.0, 2056.0, 2056.0, 2057.0, 2056.0, 2056.0, 2057.0, 2057.0, 2056.0, 2057.0, 2056.0, 2056.0, 2056.0, 2057.0, 2056.0, 2056.0, 2056.0, 2056.0, 2056.0, 2056.0, 2056.0, 2056.0, 2056.0, 2057.0, 2056.0, 2056.0, 2056.0, 2056.0, 2056.0, 2056.0, 2056.0, 2056.0, 2056.0, 2057.0, 2056.0, 2056.0, 2056.0, 2056.0, 2056.0, 2056.0, 2057.0, 2056.0, 2056.0, 2056.0, 2056.0, 2056.0, 2056.0, 2056.0, 2056.0, 2056.0, 2056.0, 2057.0, 2056.0, 2057.0, 2056.0, 2057.0, 2056.0, 2056.0, 2056.0, 2056.0, 2056.0, 2057.0, 2056.0, 2056.0, 2056.0, 2056.0, 2057.0, 2056.0, 2056.0, 2056.0, 2056.0, 2056.0, 2056.0, 2057.0, 2056.0, 2056.0, 2056.0, 2056.0, 2056.0, 2056.0, 2056.0, 2057.0, 2056.0, 2056.0, 2056.0, 2056.0, 2056.0, 2056.0, 2056.0, 2056.0, 2056.0, 2056.0, 2057.0, 2056.0, 2056.0, 2056.0, 2056.0, 2056.0, 2057.0, 2056.0, 2057.0, 2056.0, 2056.0, 2056.0, 2056.0, 2056.0, 2057.0, 2056.0, 2056.0, 2056.0, 2056.0, 2056.0, 2056.0, 2056.0, 2056.0, 2056.0, 2056.0, 2056.0, 2056.0, 2056.0, 2056.0, 2056.0, 2057.0, 2056.0, 2056.0, 2056.0, 2056.0, 2056.0, 2056.0, 2056.0, 2056.0, 2057.0, 2056.0, 2056.0, 2056.0, 2056.0, 2056.0, 2056.0, 2056.0, 2056.0, 2056.0, 2056.0, 2056.0, 2056.0, 2056.0, 2056.0, 2056.0, 2056.0, 2056.0, 2056.0, 2056.0, 2056.0]
    },
    "slices": {}
  }
}