{
  "AcquisitionMatrixPE": 80,
  "AcquisitionNumber": 1,
  "AcquisitionTime": "11:28:52.487500",
  "BandwidthPerPixelPhaseEncode": 25,
  "BaseResolution": 80,
  "BodyPartExamined": "BRAIN",
  "CoilCombinationMethod": "Sum of Squares",
  "ConsistencyInfo": "N4_VE11C_LATEST_20160120",
  "ConversionSoftware": "dcm2niix",
  "ConversionSoftwareVersion": "v1.0.20220720",
  "DerivedVendorReportedEchoSpacing": 0.0005,
  "DeviceSerialNumber": "66112",
  "DwellTime": 2.7e-06,
  "EchoTime": 0.03,
  "EchoTrainLength": 80,
  "EffectiveEchoSpacing": 0.0005,
  "FlipAngle": 77,
  "HeudiconvVersion": "0.13.1",
  "ImageOrientationPatientDICOM": [0.987931, 0.154574, 0.00997277, -0.150116, 0.939594, 0.307616],
  "ImageOrientationText": "Tra>Cor(17.8)>Sag(-2.2)",
  "ImageType": [
    "ORIGINAL",
    "PRIMARY",
    "M",
    "ND",
    "NORM",
    "MOSAIC"
],
  "ImagingFrequency": 123.252,
  "InPlanePhaseEncodingDirectionDICOM": "COL",
  "InstitutionAddress": "Maynard 3,Hanover,NH,US,03755",
  "InstitutionName": "Dartmouth College - PBS",
  "InstitutionalDepartmentName": "Department",
  "MRAcquisitionType": "2D",
  "MagneticFieldStrength": 3,
  "Manufacturer": "Siemens",
  "ManufacturersModelName": "Prisma",
  "MatrixCoilMode": "SENSE",
  "Modality": "MR",
  "NonlinearGradientCorrection": false,
  "PartialFourier": 1,
  "PatientPosition": "HFS",
  "PercentPhaseFOV": 100,
  "PercentSampling": 100,
  "PhaseEncodingDirection": "j-",
  "PhaseEncodingSteps": 80,
  "PhaseResolution": 1,
  "PixelBandwidth": 2315,
  "ProcedureStepDescription": "dbic^QA",
  "ProtocolName": "func-bold_fa-77",
  "PulseSequenceDetails": "%SiemensSeq%\\ep2d_bold",
  "ReceiveCoilActiveElements": "HEA;HEP",
  "ReceiveCoilName": "Head_32",
  "ReconMatrixPE": 80,
  "RepetitionTime": 2,
  "SAR": 0.04364,
  "ScanOptions": "FS",
  "ScanningSequence": "EP",
  "SequenceName": "*epfid2d1_80",
  "SequenceVariant": "SK",
  "SeriesDescription": "func-bold_fa-77",
  "SeriesNumber": 8,
  "ShimSetting": [4144, -7710, -7511, 259, -47, -74, -2, 80],
  "SliceThickness": 3.5,
  "SliceTiming": [0.99, 0, 1.0575, 0.0675, 1.1225, 0.1325, 1.19, 0.2, 1.255, 0.265, 1.32, 0.33, 1.3875, 0.3975, 1.4525, 0.4625, 1.52, 0.53, 1.585, 0.595, 1.65, 0.66, 1.7175, 0.7275, 1.7825, 0.7925, 1.85, 0.86, 1.915, 0.925],
  "SoftwareVersions": "syngo MR E11",
  "SpacingBetweenSlices": 3.99,
  "StationName": "AWP66112",
  "TotalReadoutTime": 0.0395,
  "TxRefAmp": 221.474,
  "dcmmeta_affine": [
    [-2.9637928009033203, -0.45034825801849365, -0.15233385562896729, 140.58297729492188],
    [-0.4637209475040436, 2.8187835216522217, 1.2185463905334473, -97.45450592041016],
    [0.02991831861436367, -0.9228469133377075, 3.7963192462921143, -22.313749313354492],
    [0.0, 0.0, 0.0, 1.0]
],
  "dcmmeta_reorient_transform": [
    [0.0, -1.0, 0.0, 79.0],
    [1.0, 0.0, 0.0, 0.0],
    [0.0, 0.0, 1.0, 0.0],
    [0.0, 0.0, 0.0, 1.0]
],
  "dcmmeta_shape": [80, 80, 30, 200],
  "dcmmeta_slice_dim": 2,
  "dcmmeta_version": 0.6,
  "global": {
    "const": {
      "AccessionNumber": "qa",
      "AcquisitionMatrix": [80, 0, 0, 80],
      "AngioFlag": "N",
      "BitsAllocated": 16,
      "BitsStored": 12,
      "BodyPartExamined": "BRAIN",
      "Columns": 480,
      "EchoNumbers": 1,
      "EchoTime": 30.0,
      "EchoTrainLength": 80,
      "FlipAngle": 77.0,
      "HighBit": 11,
      "ImageOrientationPatient": [0.98793093385916, 0.15457365145825, 0.009972772886, -0.1501160907059, 0.93959447399731, 0.30761564288068],
      "ImagePositionPatient": [-607.69437229296, -781.73025717615, -285.77170683736],
      "ImageType": [
        "ORIGINAL",
        "PRIMARY",
        "M",
        "ND",
        "NORM",
        "MOSAIC"
],
      "ImagedNucleus": "1H",
      "ImagingFrequency": 123.252357,
      "InPlanePhaseEncodingDirection": "COL",
      "MRAcquisitionType": "2D",
      "MagneticFieldStrength": 3.0,
      "Manufacturer": "SIEMENS",
      "ManufacturerModelName": "Prisma",
      "Modality": "MR",
      "NumberOfAverages": 1.0,
      "NumberOfPhaseEncodingSteps": 80,
      "PercentPhaseFieldOfView": 100.0,
      "PercentSampling": 100.0,
      "PerformedProcedureStepStartTime": "111342.944000",
      "PhotometricInterpretation": "MONOCHROME2",
      "PixelBandwidth": 2315.0,
      "PixelRepresentation": 0,
      "PixelSpacing": [3.0, 3.0],
      "ProtocolName": "func-bold_fa-77",
      "RepetitionTime": 2000.0,
      "Rows": 480,
      "SAR": 0.04364001746393,
      "SamplesPerPixel": 1,
      "ScanOptions": "FS",
      "ScanningSequence": "EP",
      "SequenceName": "*epfid2d1_80",
      "SequenceVariant": "SK",
      "SeriesDescription": "func-bold_fa-77",
      "SeriesNumber": 8,
      "SeriesTime": "112937.790000",
      "SliceLocation": -56.360525770582,
      "SliceThickness": 3.5,
      "SmallestImagePixelValue": 0,
      "SoftwareVersions": "syngo MR E11",
      "SpacingBetweenSlices": 3.9900000763646,
      "SpecificCharacterSet": "ISO_IR 100",
      "StudyID": "24",
      "StudyTime": "111342.889000",
      "TransmitCoilName": "Body",
      "VariableFlipAngleFlag": "N",
      "WindowCenterWidthExplanation": "Algo1",
      "dBdt": 0.0},
    "slices": {}
  },
  "time": {
    "samples": {
      "AcquisitionNumber": [1, 2, 3, 4, 5, 6, 7, 8, 9, 10, 11, 12, 13, 14, 15, 16, 17, 18, 19, 20, 21, 22, 23, 24, 25, 26, 27, 28, 29, 30, 31, 32, 33, 34, 35, 36, 37, 38, 39, 40, 41, 42, 43, 44, 45, 46, 47, 48, 49, 50, 51, 52, 53, 54, 55, 56, 57, 58, 59, 60, 61, 62, 63, 64, 65, 66, 67, 68, 69, 70, 71, 72, 73, 74, 75, 76, 77, 78, 79, 80, 81, 82, 83, 84, 85, 86, 87, 88, 89, 90, 91, 92, 93, 94, 95, 96, 97, 98, 99, 100, 101, 102, 103, 104, 105, 106, 107, 108, 109, 110, 111, 112, 113, 114, 115, 116, 117, 118, 119, 120, 121, 122, 123, 124, 125, 126, 127, 128, 129, 130, 131, 132, 133, 134, 135, 136, 137, 138, 139, 140, 141, 142, 143, 144, 145, 146, 147, 148, 149, 150, 151, 152, 153, 154, 155, 156, 157, 158, 159, 160, 161, 162, 163, 164, 165, 166, 167, 168, 169, 170, 171, 172, 173, 174, 175, 176, 177, 178, 179, 180, 181, 182, 183, 184, 185, 186, 187, 188, 189, 190, 191, 192, 193, 194, 195, 196, 197, 198, 199, 200],
      "AcquisitionTime": ["112852.487500", "112854.487500", "112856.487500", "112858.487500", "112900.487500", "112902.487500", "112904.487500", "112906.487500", "112908.487500", "112910.487500", "112912.487500", "112914.487500", "112916.487500", "112918.487500", "112920.487500", "112922.487500", "112924.487500", "112926.487500", "112928.487500", "112930.487500", "112932.487500", "112934.487500", "112936.487500", "112938.487500", "112940.487500", "112942.487500", "112944.487500", "112946.487500", "112948.487500", "112950.487500", "112952.487500", "112954.487500", "112956.487500", "112958.487500", "113000.487500", "113002.487500", "113004.487500", "113006.487500", "113008.487500", "113010.487500", "113012.487500", "113014.487500", "113016.487500", "113018.487500", "113020.487500", "113022.487500", "113024.487500", "113026.487500", "113028.487500", "113030.487500", "113032.487500", "113034.487500", "113036.487500", "113038.487500", "113040.487500", "113042.487500", "113044.487500", "113046.487500", "113048.487500", "113050.487500", "113052.487500", "113054.487500", "113056.487500", "113058.487500", "113100.487500", "113102.487500", "113104.487500", "113106.487500", "113108.487500", "113110.487500", "113112.487500", "113114.487500", "113116.487500", "113118.487500", "113120.487500", "113122.487500", "113124.487500", "113126.487500", "113128.487500", "113130.487500", "113132.487500", "113134.487500", "113136.487500", "113138.487500", "113140.487500", "113142.487500", "113144.487500", "113146.487500", "113148.487500", "113150.487500", "113152.487500", "113154.487500", "113156.487500", "113158.487500", "113200.487500", "113202.487500", "113204.487500", "113206.487500", "113208.487500", "113210.487500", "113212.487500", "113214.487500", "113216.487500", "113218.487500", "113220.487500", "113222.487500", "113224.487500", "113226.487500", "113228.487500", "113230.487500", "113232.487500", "113234.487500", "113236.487500", "113238.487500", "113240.487500", "113242.487500", "113244.487500", "113246.487500", "113248.487500", "113250.487500", "113252.487500", "113254.487500", "113256.487500", "113258.487500", "113300.487500", "113302.487500", "113304.487500", "113306.487500", "113308.487500", "113310.487500", "113312.487500", "113314.487500", "113316.487500", "113318.487500", "113320.487500", "113322.487500", "113324.487500", "113326.487500", "113328.487500", "113330.487500", "113332.487500", "113334.487500", "113336.487500", "113338.487500", "113340.487500", "113342.487500", "113344.487500", "113346.487500", "113348.487500", "113350.487500", "113352.487500", "113354.487500", "113356.487500", "113358.487500", "113400.487500", "113402.487500", "113404.487500", "113406.487500", "113408.487500", "113410.487500", "113412.487500", "113414.487500", "113416.487500", "113418.487500", "113420.487500", "113422.487500", "113424.487500", "113426.487500", "113428.487500", "113430.487500", "113432.487500", "113434.487500", "113436.487500", "113438.487500", "113440.487500", "113442.487500", "113444.487500", "113446.487500", "113448.487500", "113450.487500", "113452.487500", "113454.487500", "113456.487500", "113458.487500", "113500.487500", "113502.487500", "113504.487500", "113506.487500", "113508.487500", "113510.487500", "113512.487500", "113514.487500", "113516.487500", "113518.487500", "113520.487500", "113522.487500", "113524.487500", "113526.487500", "113528.487500", "113530.487500"],
      "ContentTime": ["112937.793000", "112937.797000", "112937.799000", "112937.802000", "112937.804000", "112937.807000", "112937.809000", "112937.819000", "112937.822000", "112937.824000", "112937.827000", "112937.829000", "112937.832000", "112937.834000", "112937.836000", "112937.839000", "112937.842000", "112937.844000", "112937.847000", "112937.849000", "112937.852000", "112937.854000", "112937.857000", "113017.788000", "113017.791000", "113017.794000", "113017.796000", "113017.799000", "113017.801000", "113017.804000", "113017.806000", "113017.809000", "113017.811000", "113017.814000", "113017.816000", "113017.819000", "113017.821000", "113017.824000", "113017.826000", "113017.829000", "113017.832000", "113017.834000", "113017.837000", "113057.788000", "113057.791000", "113057.794000", "113057.796000", "113057.799000", "113057.801000", "113057.804000", "113057.807000", "113057.809000", "113057.812000", "113057.814000", "113057.817000", "113057.819000", "113057.822000", "113057.824000", "113057.827000", "113057.829000", "113057.831000", "113057.834000", "113057.836000", "113137.788000", "113137.791000", "113137.794000", "113137.796000", "113137.799000", "113137.801000", "113137.804000", "113137.806000", "113137.809000", "113137.811000", "113137.814000", "113137.816000", "113137.819000", "113137.821000", "113137.824000", "113137.826000", "113137.829000", "113137.831000", "113137.834000", "113137.836000", "113217.788000", "113217.791000", "113217.794000", "113217.796000", "113217.799000", "113217.801000", "113217.804000", "113217.806000", "113217.809000", "113217.811000", "113217.814000", "113217.816000", "113217.819000", "113217.821000", "113217.824000", "113217.826000", "113217.829000", "113217.831000", "113217.834000", "113217.836000", "113257.788000", "113257.791000", "113257.794000", "113257.796000", "113257.799000", "113257.801000", "113257.804000", "113257.806000", "113257.809000", "113257.811000", "113257.814000", "113257.816000", "113257.819000", "113257.821000", "113257.824000", "113257.826000", "113257.829000", "113257.831000", "113257.834000", "113257.836000", "113337.788000", "113337.791000", "113337.794000", "113337.796000", "113337.799000", "113337.801000", "113337.804000", "113337.806000", "113337.824000", "113337.827000", "113337.829000", "113337.832000", "113337.834000", "113337.837000", "113337.839000", "113337.842000", "113337.844000", "113337.847000", "113337.849000", "113337.852000", "113417.788000", "113417.791000", "113417.794000", "113417.796000", "113417.799000", "113417.801000", "113417.804000", "113417.806000", "113417.809000", "113417.811000", "113417.814000", "113417.816000", "113417.819000", "113417.822000", "113417.824000", "113417.827000", "113417.829000", "113417.832000", "113417.834000", "113417.837000", "113437.788000", "113437.791000", "113437.794000", "113437.796000", "113437.799000", "113437.801000", "113437.804000", "113437.806000", "113437.809000", "113437.811000", "113517.788000", "113517.791000", "113517.794000", "113517.796000", "113517.799000", "113517.801000", "113517.804000", "113517.806000", "113517.809000", "113517.811000", "113517.814000", "113517.816000", "113517.819000", "113517.821000", "113517.824000", "113517.826000", "113517.829000", "113517.832000", "113517.834000", "113517.837000", "113531.660000", "113531.663000", "113531.665000", "113531.668000", "113531.670000", "113531.673000", "113531.676000"],
      "InstanceCreationTime": ["112937.793000", "112937.797000", "112937.799000", "112937.802000", "112937.804000", "112937.807000", "112937.809000", "112937.819000", "112937.822000", "112937.824000", "112937.827000", "112937.829000", "112937.832000", "112937.834000", "112937.836000", "112937.839000", "112937.842000", "112937.844000", "112937.847000", "112937.849000", "112937.852000", "112937.854000", "112937.857000", "113017.788000", "113017.791000", "113017.794000", "113017.796000", "113017.799000", "113017.801000", "113017.804000", "113017.806000", "113017.809000", "113017.811000", "113017.814000", "113017.816000", "113017.819000", "113017.821000", "113017.824000", "113017.826000", "113017.829000", "113017.832000", "113017.834000", "113017.837000", "113057.788000", "113057.791000", "113057.794000", "113057.796000", "113057.799000", "113057.801000", "113057.804000", "113057.807000", "113057.809000", "113057.812000", "113057.814000", "113057.817000", "113057.819000", "113057.822000", "113057.824000", "113057.827000", "113057.829000", "113057.831000", "113057.834000", "113057.836000", "113137.788000", "113137.791000", "113137.794000", "113137.796000", "113137.799000", "113137.801000", "113137.804000", "113137.806000", "113137.809000", "113137.811000", "113137.814000", "113137.816000", "113137.819000", "113137.821000", "113137.824000", "113137.826000", "113137.829000", "113137.831000", "113137.834000", "113137.836000", "113217.788000", "113217.791000", "113217.794000", "113217.796000", "113217.799000", "113217.801000", "113217.804000", "113217.806000", "113217.809000", "113217.811000", "113217.814000", "113217.816000", "113217.819000", "113217.821000", "113217.824000", "113217.826000", "113217.829000", "113217.831000", "113217.834000", "113217.836000", "113257.788000", "113257.791000", "113257.794000", "113257.796000", "113257.799000", "113257.801000", "113257.804000", "113257.806000", "113257.809000", "113257.811000", "113257.814000", "113257.816000", "113257.819000", "113257.821000", "113257.824000", "113257.826000", "113257.829000", "113257.831000", "113257.834000", "113257.836000", "113337.788000", "113337.791000", "113337.794000", "113337.796000", "113337.799000", "113337.801000", "113337.804000", "113337.806000", "113337.824000", "113337.827000", "113337.829000", "113337.832000", "113337.834000", "113337.837000", "113337.839000", "113337.842000", "113337.844000", "113337.847000", "113337.849000", "113337.852000", "113417.788000", "113417.791000", "113417.794000", "113417.796000", "113417.799000", "113417.801000", "113417.804000", "113417.806000", "113417.809000", "113417.811000", "113417.814000", "113417.816000", "113417.819000", "113417.822000", "113417.824000", "113417.827000", "113417.829000", "113417.832000", "113417.834000", "113417.837000", "113437.788000", "113437.791000", "113437.794000", "113437.796000", "113437.799000", "113437.801000", "113437.804000", "113437.806000", "113437.809000", "113437.811000", "113517.788000", "113517.791000", "113517.794000", "113517.796000", "113517.799000", "113517.801000", "113517.804000", "113517.806000", "113517.809000", "113517.811000", "113517.814000", "113517.816000", "113517.819000", "113517.821000", "113517.824000", "113517.826000", "113517.829000", "113517.832000", "113517.834000", "113517.837000", "113531.660000", "113531.663000", "113531.665000", "113531.668000", "113531.670000", "113531.673000", "113531.676000"],
      "InstanceNumber": [1, 2, 3, 4, 5, 6, 7, 8, 9, 10, 11, 12, 13, 14, 15, 16, 17, 18, 19, 20, 21, 22, 23, 24, 25, 26, 27, 28, 29, 30, 31, 32, 33, 34, 35, 36, 37, 38, 39, 40, 41, 42, 43, 44, 45, 46, 47, 48, 49, 50, 51, 52, 53, 54, 55, 56, 57, 58, 59, 60, 61, 62, 63, 64, 65, 66, 67, 68, 69, 70, 71, 72, 73, 74, 75, 76, 77, 78, 79, 80, 81, 82, 83, 84, 85, 86, 87, 88, 89, 90, 91, 92, 93, 94, 95, 96, 97, 98, 99, 100, 101, 102, 103, 104, 105, 106, 107, 108, 109, 110, 111, 112, 113, 114, 115, 116, 117, 118, 119, 120, 121, 122, 123, 124, 125, 126, 127, 128, 129, 130, 131, 132, 133, 134, 135, 136, 137, 138, 139, 140, 141, 142, 143, 144, 145, 146, 147, 148, 149, 150, 151, 152, 153, 154, 155, 156, 157, 158, 159, 160, 161, 162, 163, 164, 165, 166, 167, 168, 169, 170, 171, 172, 173, 174, 175, 176, 177, 178, 179, 180, 181, 182, 183, 184, 185, 186, 187, 188, 189, 190, 191, 192, 193, 194, 195, 196, 197, 198, 199, 200],
      "LargestImagePixelValue": [1878, 1877, 1878, 1877, 1875, 1877, 1876, 1876, 1876, 1877, 1877, 1878, 1876, 1879, 1877, 1875, 1878, 1875, 1877, 1875, 1876, 1874, 1874, 1875, 1876, 1876, 1875, 1877, 1874, 1875, 1875, 1875, 1875, 1875, 1875, 1873, 1877, 1876, 1877, 1874, 1875, 1877, 1874, 1878, 1876, 1877, 1876, 1872, 1877, 1877, 1875, 1873, 1875, 1874, 1877, 1873, 1874, 1875, 1875, 1874, 1875, 1875, 1874, 1874, 1873, 1874, 1876, 1875, 1877, 1874, 1876, 1878, 1878, 1877, 1879, 1877, 1875, 1877, 1874, 1873, 1874, 1874, 1873, 1873, 1874, 1874, 1874, 1874, 1873, 1873, 1875, 1874, 1875, 1874, 1875, 1876, 1874, 1873, 1872, 1872, 1871, 1873, 1873, 1871, 1872, 1871, 1875, 1874, 1874, 1872, 1876, 1874, 1876, 1873, 1873, 1874, 1874, 1874, 1875, 1876, 1873, 1875, 1873, 1875, 1873, 1875, 1874, 1875, 1874, 1874, 1873, 1875, 1874, 1874, 1872, 1874, 1875, 1874, 1874, 1874, 1873, 1874, 1873, 1876, 1875, 1875, 1873, 1873, 1873, 1873, 1873, 1873, 1875, 1874, 1871, 1873, 1873, 1871, 1872, 1873, 1873, 1873, 1871, 1871, 1871, 1872, 1872, 1873, 1871, 1873, 1873, 1873, 1872, 1873, 1873, 1871, 1872, 1872, 1872, 1872, 1874, 1872, 1872, 1872, 1874, 1872, 1872, 1873, 1874, 1872, 1875, 1872, 1872, 1874, 1873, 1872, 1872, 1875, 1872, 1872],
      "WindowCenter": [958.0, 958.0, 958.0, 958.0, 958.0, 957.0, 958.0, 958.0, 957.0, 958.0, 958.0, 958.0, 958.0, 958.0, 959.0, 958.0, 957.0, 958.0, 957.0, 958.0, 958.0, 956.0, 957.0, 957.0, 957.0, 958.0, 957.0, 958.0, 958.0, 958.0, 956.0, 958.0, 958.0, 958.0, 957.0, 958.0, 958.0, 958.0, 957.0, 957.0, 957.0, 958.0, 958.0, 958.0, 956.0, 957.0, 957.0, 958.0, 957.0, 958.0, 957.0, 957.0, 957.0, 956.0, 957.0, 957.0, 957.0, 957.0, 957.0, 957.0, 956.0, 957.0, 957.0, 957.0, 957.0, 957.0, 957.0, 956.0, 957.0, 957.0, 957.0, 957.0, 956.0, 956.0, 957.0, 957.0, 957.0, 957.0, 957.0, 957.0, 957.0, 957.0, 956.0, 957.0, 957.0, 956.0, 956.0, 957.0, 957.0, 956.0, 957.0, 957.0, 957.0, 956.0, 957.0, 957.0, 957.0, 956.0, 957.0, 956.0, 957.0, 957.0, 957.0, 957.0, 958.0, 955.0, 956.0, 957.0, 957.0, 957.0, 956.0, 957.0, 957.0, 957.0, 957.0, 956.0, 956.0, 957.0, 956.0, 957.0, 957.0, 956.0, 957.0, 957.0, 956.0, 957.0, 957.0, 957.0, 957.0, 957.0, 956.0, 957.0, 957.0, 957.0, 957.0, 956.0, 957.0, 958.0, 957.0, 956.0, 956.0, 956.0, 957.0, 956.0, 956.0, 955.0, 957.0, 956.0, 956.0, 957.0, 957.0, 956.0, 957.0, 957.0, 956.0, 956.0, 957.0, 956.0, 957.0, 954.0, 957.0, 957.0, 957.0, 956.0, 957.0, 956.0, 957.0, 957.0, 957.0, 957.0, 957.0, 957.0, 957.0, 956.0, 957.0, 957.0, 957.0, 957.0, 957.0, 957.0, 956.0, 957.0, 957.0, 956.0, 957.0, 956.0, 956.0, 957.0, 956.0, 956.0, 956.0, 956.0, 956.0, 956.0, 956.0, 957.0, 957.0, 957.0, 956.0, 956.0],
      "WindowWidth": [2076.0, 2075.0, 2075.0, 2076.0, 2076.0, 2075.0, 2075.0, 2075.0, 2075.0, 2075.0, 2075.0, 2075.0, 2075.0, 2076.0, 2076.0, 2075.0, 2075.0, 2075.0, 2074.0, 2075.0, 2074.0, 2073.0, 2074.0, 2074.0, 2075.0, 2074.0, 2074.0, 2074.0, 2074.0, 2074.0, 2073.0, 2074.0, 2074.0, 2074.0, 2074.0, 2074.0, 2074.0, 2075.0, 2074.0, 2074.0, 2073.0, 2074.0, 2074.0, 2074.0, 2073.0, 2074.0, 2074.0, 2074.0, 2074.0, 2074.0, 2074.0, 2074.0, 2073.0, 2073.0, 2074.0, 2073.0, 2074.0, 2074.0, 2074.0, 2073.0, 2073.0, 2073.0, 2074.0, 2073.0, 2074.0, 2073.0, 2073.0, 2073.0, 2073.0, 2074.0, 2073.0, 2074.0, 2072.0, 2072.0, 2074.0, 2074.0, 2074.0, 2074.0, 2073.0, 2073.0, 2073.0, 2074.0, 2073.0, 2073.0, 2073.0, 2072.0, 2072.0, 2073.0, 2073.0, 2072.0, 2073.0, 2073.0, 2073.0, 2073.0, 2074.0, 2073.0, 2074.0, 2073.0, 2073.0, 2072.0, 2073.0, 2073.0, 2073.0, 2073.0, 2074.0, 2072.0, 2072.0, 2073.0, 2073.0, 2073.0, 2072.0, 2074.0, 2074.0, 2074.0, 2073.0, 2073.0, 2072.0, 2073.0, 2072.0, 2073.0, 2073.0, 2073.0, 2074.0, 2074.0, 2073.0, 2074.0, 2074.0, 2073.0, 2073.0, 2073.0, 2072.0, 2073.0, 2073.0, 2073.0, 2073.0, 2072.0, 2073.0, 2073.0, 2073.0, 2072.0, 2072.0, 2072.0, 2073.0, 2073.0, 2073.0, 2072.0, 2073.0, 2072.0, 2072.0, 2073.0, 2072.0, 2072.0, 2073.0, 2073.0, 2072.0, 2072.0, 2073.0, 2072.0, 2073.0, 2071.0, 2072.0, 2073.0, 2073.0, 2071.0, 2072.0, 2072.0, 2073.0, 2072.0, 2073.0, 2072.0, 2072.0, 2072.0, 2073.0, 2071.0, 2072.0, 2072.0, 2073.0, 2072.0, 2072.0, 2073.0, 2072.0, 2072.0, 2073.0, 2072.0, 2073.0, 2072.0, 2072.0, 2072.0, 2072.0, 2072.0, 2072.0, 2072.0, 2071.0, 2072.0, 2072.0, 2073.0, 2073.0, 2073.0, 2072.0, 2072.0]
    },
    "slices": {}
  }
}