{
  "AcquisitionMatrixPE": 80,
  "AcquisitionNumber": 1,
  "AcquisitionTime": "11:35:38.510000",
  "BandwidthPerPixelPhaseEncode": 25,
  "BaseResolution": 80,
  "BodyPartExamined": "BRAIN",
  "CoilCombinationMethod": "Sum of Squares",
  "ConsistencyInfo": "N4_VE11C_LATEST_20160120",
  "ConversionSoftware": "dcm2niix",
  "ConversionSoftwareVersion": "v1.0.20220720",
  "DerivedVendorReportedEchoSpacing": 0.0005,
  "DeviceSerialNumber": "66112",
  "DwellTime": 2.7e-06,
  "EchoTime": 0.03,
  "EchoTrainLength": 80,
  "EffectiveEchoSpacing": 0.0005,
  "FlipAngle": 10,
  "HeudiconvVersion": "0.13.1",
  "ImageOrientationPatientDICOM": [0.987931, 0.154574, 0.00997277, -0.150116, 0.939594, 0.307616],
  "ImageOrientationText": "Tra>Cor(17.8)>Sag(-2.2)",
  "ImageType": [
    "ORIGINAL",
    "PRIMARY",
    "M",
    "ND",
    "NORM",
    "MOSAIC"
],
  "ImagingFrequency": 123.252,
  "InPlanePhaseEncodingDirectionDICOM": "COL",
  "InstitutionAddress": "Maynard 3,Hanover,NH,US,03755",
  "InstitutionName": "Dartmouth College - PBS",
  "InstitutionalDepartmentName": "Department",
  "MRAcquisitionType": "2D",
  "MagneticFieldStrength": 3,
  "Manufacturer": "Siemens",
  "ManufacturersModelName": "Prisma",
  "MatrixCoilMode": "SENSE",
  "Modality": "MR",
  "NonlinearGradientCorrection": false,
  "PartialFourier": 1,
  "PatientPosition": "HFS",
  "PercentPhaseFOV": 100,
  "PercentSampling": 100,
  "PhaseEncodingDirection": "j-",
  "PhaseEncodingSteps": 80,
  "PhaseResolution": 1,
  "PixelBandwidth": 2315,
  "ProcedureStepDescription": "dbic^QA",
  "ProtocolName": "func-bold_fa-10",
  "PulseSequenceDetails": "%SiemensSeq%\\ep2d_bold",
  "ReceiveCoilActiveElements": "HEA;HEP",
  "ReceiveCoilName": "Head_32",
  "ReconMatrixPE": 80,
  "RepetitionTime": 2,
  "SAR": 0.0117064,
  "ScanOptions": "FS",
  "ScanningSequence": "EP",
  "SequenceName": "*epfid2d1_80",
  "SequenceVariant": "SK",
  "SeriesDescription": "func-bold_fa-10",
  "SeriesNumber": 10,
  "ShimSetting": [4144, -7710, -7511, 259, -47, -74, -2, 80],
  "SliceThickness": 3.5,
  "SliceTiming": [0.99, 0, 1.0575, 0.0675, 1.1225, 0.1325, 1.19, 0.2, 1.255, 0.265, 1.32, 0.33, 1.3875, 0.3975, 1.4525, 0.4625, 1.52, 0.53, 1.585, 0.595, 1.65, 0.66, 1.7175, 0.7275, 1.7825, 0.7925, 1.85, 0.86, 1.915, 0.925],
  "SoftwareVersions": "syngo MR E11",
  "SpacingBetweenSlices": 3.99,
  "StationName": "AWP66112",
  "TotalReadoutTime": 0.0395,
  "TxRefAmp": 221.474,
  "dcmmeta_affine": [
    [-2.9637928009033203, -0.45034825801849365, -0.15233385562896729, 140.58297729492188],
    [-0.4637209475040436, 2.8187835216522217, 1.2185463905334473, -97.45450592041016],
    [0.02991831861436367, -0.9228469133377075, 3.7963192462921143, -22.313749313354492],
    [0.0, 0.0, 0.0, 1.0]
],
  "dcmmeta_reorient_transform": [
    [0.0, -1.0, 0.0, 79.0],
    [1.0, 0.0, 0.0, 0.0],
    [0.0, 0.0, 1.0, 0.0],
    [0.0, 0.0, 0.0, 1.0]
],
  "dcmmeta_shape": [80, 80, 30, 200],
  "dcmmeta_slice_dim": 2,
  "dcmmeta_version": 0.6,
  "global": {
    "const": {
      "AccessionNumber": "qa",
      "AcquisitionMatrix": [80, 0, 0, 80],
      "AngioFlag": "N",
      "BitsAllocated": 16,
      "BitsStored": 12,
      "BodyPartExamined": "BRAIN",
      "Columns": 480,
      "EchoNumbers": 1,
      "EchoTime": 30.0,
      "EchoTrainLength": 80,
      "FlipAngle": 10.0,
      "HighBit": 11,
      "ImageOrientationPatient": [0.98793093385916, 0.15457365145825, 0.009972772886, -0.1501160907059, 0.93959447399731, 0.30761564288068],
      "ImagePositionPatient": [-607.69437229296, -781.73025717615, -285.77170683736],
      "ImageType": [
        "ORIGINAL",
        "PRIMARY",
        "M",
        "ND",
        "NORM",
        "MOSAIC"
],
      "ImagedNucleus": "1H",
      "ImagingFrequency": 123.25236,
      "InPlanePhaseEncodingDirection": "COL",
      "MRAcquisitionType": "2D",
      "MagneticFieldStrength": 3.0,
      "Manufacturer": "SIEMENS",
      "ManufacturerModelName": "Prisma",
      "Modality": "MR",
      "NumberOfAverages": 1.0,
      "NumberOfPhaseEncodingSteps": 80,
      "PercentPhaseFieldOfView": 100.0,
      "PercentSampling": 100.0,
      "PerformedProcedureStepStartTime": "111342.944000",
      "PhotometricInterpretation": "MONOCHROME2",
      "PixelBandwidth": 2315.0,
      "PixelRepresentation": 0,
      "PixelSpacing": [3.0, 3.0],
      "ProtocolName": "func-bold_fa-10",
      "RepetitionTime": 2000.0,
      "Rows": 480,
      "SAR": 0.01170639466751,
      "SamplesPerPixel": 1,
      "ScanOptions": "FS",
      "ScanningSequence": "EP",
      "SequenceName": "*epfid2d1_80",
      "SequenceVariant": "SK",
      "SeriesDescription": "func-bold_fa-10",
      "SeriesNumber": 10,
      "SeriesTime": "113637.862000",
      "SliceLocation": -56.360525770582,
      "SliceThickness": 3.5,
      "SmallestImagePixelValue": 0,
      "SoftwareVersions": "syngo MR E11",
      "SpacingBetweenSlices": 3.9900000763646,
      "SpecificCharacterSet": "ISO_IR 100",
      "StudyID": "24",
      "StudyTime": "111342.889000",
      "TransmitCoilName": "Body",
      "VariableFlipAngleFlag": "N",
      "WindowCenterWidthExplanation": "Algo1",
      "dBdt": 0.0},
    "slices": {}
  },
  "time": {
    "samples": {
      "AcquisitionNumber": [1, 2, 3, 4, 5, 6, 7, 8, 9, 10, 11, 12, 13, 14, 15, 16, 17, 18, 19, 20, 21, 22, 23, 24, 25, 26, 27, 28, 29, 30, 31, 32, 33, 34, 35, 36, 37, 38, 39, 40, 41, 42, 43, 44, 45, 46, 47, 48, 49, 50, 51, 52, 53, 54, 55, 56, 57, 58, 59, 60, 61, 62, 63, 64, 65, 66, 67, 68, 69, 70, 71, 72, 73, 74, 75, 76, 77, 78, 79, 80, 81, 82, 83, 84, 85, 86, 87, 88, 89, 90, 91, 92, 93, 94, 95, 96, 97, 98, 99, 100, 101, 102, 103, 104, 105, 106, 107, 108, 109, 110, 111, 112, 113, 114, 115, 116, 117, 118, 119, 120, 121, 122, 123, 124, 125, 126, 127, 128, 129, 130, 131, 132, 133, 134, 135, 136, 137, 138, 139, 140, 141, 142, 143, 144, 145, 146, 147, 148, 149, 150, 151, 152, 153, 154, 155, 156, 157, 158, 159, 160, 161, 162, 163, 164, 165, 166, 167, 168, 169, 170, 171, 172, 173, 174, 175, 176, 177, 178, 179, 180, 181, 182, 183, 184, 185, 186, 187, 188, 189, 190, 191, 192, 193, 194, 195, 196, 197, 198, 199, 200],
      "AcquisitionTime": ["113538.510000", "113540.510000", "113542.510000", "113544.510000", "113546.510000", "113548.510000", "113550.510000", "113552.510000", "113554.510000", "113556.510000", "113558.510000", "113600.510000", "113602.510000", "113604.510000", "113606.510000", "113608.510000", "113610.510000", "113612.510000", "113614.510000", "113616.510000", "113618.510000", "113620.510000", "113622.510000", "113624.510000", "113626.510000", "113628.510000", "113630.510000", "113632.510000", "113634.510000", "113636.510000", "113638.510000", "113640.510000", "113642.510000", "113644.510000", "113646.510000", "113648.510000", "113650.510000", "113652.510000", "113654.510000", "113656.510000", "113658.510000", "113700.510000", "113702.510000", "113704.510000", "113706.510000", "113708.510000", "113710.510000", "113712.510000", "113714.510000", "113716.510000", "113718.510000", "113720.510000", "113722.510000", "113724.510000", "113726.510000", "113728.510000", "113730.510000", "113732.510000", "113734.510000", "113736.510000", "113738.510000", "113740.510000", "113742.510000", "113744.510000", "113746.510000", "113748.510000", "113750.510000", "113752.510000", "113754.510000", "113756.510000", "113758.510000", "113800.510000", "113802.510000", "113804.510000", "113806.510000", "113808.510000", "113810.510000", "113812.510000", "113814.510000", "113816.510000", "113818.510000", "113820.510000", "113822.510000", "113824.510000", "113826.510000", "113828.510000", "113830.510000", "113832.510000", "113834.510000", "113836.510000", "113838.510000", "113840.510000", "113842.510000", "113844.510000", "113846.510000", "113848.510000", "113850.510000", "113852.510000", "113854.510000", "113856.510000", "113858.510000", "113900.510000", "113902.510000", "113904.510000", "113906.510000", "113908.510000", "113910.510000", "113912.510000", "113914.510000", "113916.510000", "113918.510000", "113920.510000", "113922.510000", "113924.510000", "113926.510000", "113928.510000", "113930.510000", "113932.510000", "113934.510000", "113936.510000", "113938.510000", "113940.510000", "113942.510000", "113944.510000", "113946.510000", "113948.510000", "113950.510000", "113952.510000", "113954.510000", "113956.510000", "113958.510000", "114000.510000", "114002.510000", "114004.510000", "114006.510000", "114008.510000", "114010.510000", "114012.510000", "114014.510000", "114016.510000", "114018.510000", "114020.510000", "114022.510000", "114024.510000", "114026.510000", "114028.510000", "114030.510000", "114032.510000", "114034.510000", "114036.510000", "114038.510000", "114040.510000", "114042.510000", "114044.510000", "114046.510000", "114048.510000", "114050.510000", "114052.510000", "114054.510000", "114056.510000", "114058.510000", "114100.510000", "114102.510000", "114104.510000", "114106.510000", "114108.510000", "114110.510000", "114112.510000", "114114.510000", "114116.510000", "114118.510000", "114120.510000", "114122.510000", "114124.510000", "114126.510000", "114128.510000", "114130.510000", "114132.510000", "114134.510000", "114136.510000", "114138.510000", "114140.510000", "114142.510000", "114144.510000", "114146.510000", "114148.510000", "114150.510000", "114152.510000", "114154.510000", "114156.510000", "114158.510000", "114200.510000", "114202.510000", "114204.510000", "114206.510000", "114208.510000", "114210.510000", "114212.510000", "114214.510000", "114216.510000"],
      "ContentTime": ["113637.865000", "113637.869000", "113637.871000", "113637.874000", "113637.876000", "113637.879000", "113637.881000", "113637.884000", "113637.886000", "113637.889000", "113637.891000", "113637.894000", "113637.897000", "113637.899000", "113637.901000", "113637.904000", "113637.906000", "113637.909000", "113637.911000", "113637.914000", "113637.917000", "113637.919000", "113637.933000", "113637.935000", "113637.938000", "113637.940000", "113637.943000", "113637.946000", "113637.948000", "113717.860000", "113717.863000", "113717.866000", "113717.868000", "113717.871000", "113717.873000", "113717.876000", "113717.878000", "113717.881000", "113717.883000", "113717.886000", "113717.896000", "113717.899000", "113717.901000", "113717.904000", "113717.906000", "113717.909000", "113717.911000", "113717.914000", "113717.916000", "113757.861000", "113757.864000", "113757.867000", "113757.870000", "113757.873000", "113757.876000", "113757.879000", "113757.882000", "113757.885000", "113757.887000", "113757.890000", "113757.893000", "113757.895000", "113757.898000", "113757.900000", "113757.903000", "113757.906000", "113757.908000", "113757.911000", "113757.913000", "113837.860000", "113837.863000", "113837.866000", "113837.868000", "113837.871000", "113837.873000", "113837.876000", "113837.879000", "113837.881000", "113837.884000", "113837.886000", "113837.889000", "113837.891000", "113837.894000", "113837.896000", "113837.899000", "113837.901000", "113837.904000", "113837.906000", "113837.909000", "113917.861000", "113917.863000", "113917.866000", "113917.869000", "113917.871000", "113917.874000", "113917.876000", "113917.879000", "113917.881000", "113917.884000", "113917.886000", "113917.889000", "113917.891000", "113917.894000", "113917.897000", "113917.899000", "113917.902000", "113917.904000", "113917.907000", "113917.909000", "113957.860000", "113957.863000", "113957.866000", "113957.868000", "113957.871000", "113957.873000", "113957.876000", "113957.878000", "113957.881000", "113957.883000", "113957.886000", "113957.888000", "113957.891000", "113957.893000", "113957.896000", "113957.898000", "113957.901000", "113957.903000", "113957.906000", "113957.908000", "114037.860000", "114037.863000", "114037.866000", "114037.868000", "114037.871000", "114037.873000", "114037.876000", "114037.878000", "114037.881000", "114037.883000", "114037.886000", "114037.888000", "114037.891000", "114037.893000", "114037.896000", "114037.898000", "114037.901000", "114037.903000", "114037.906000", "114037.908000", "114117.860000", "114117.863000", "114117.866000", "114117.868000", "114117.871000", "114117.873000", "114117.876000", "114117.878000", "114117.881000", "114117.883000", "114117.886000", "114117.888000", "114117.891000", "114117.893000", "114117.896000", "114117.898000", "114117.901000", "114117.903000", "114117.906000", "114117.908000", "114157.860000", "114157.863000", "114157.866000", "114157.868000", "114157.871000", "114157.873000", "114157.876000", "114157.878000", "114157.881000", "114157.883000", "114157.886000", "114157.888000", "114157.891000", "114157.893000", "114157.896000", "114157.898000", "114157.901000", "114157.904000", "114157.906000", "114157.908000", "114218.066000", "114218.068000", "114218.071000", "114218.073000", "114218.076000", "114218.079000", "114218.081000", "114218.084000", "114218.086000", "114218.089000", "114218.091000"],
      "InstanceCreationTime": ["113637.865000", "113637.869000", "113637.871000", "113637.874000", "113637.876000", "113637.879000", "113637.881000", "113637.884000", "113637.886000", "113637.889000", "113637.891000", "113637.894000", "113637.897000", "113637.899000", "113637.901000", "113637.904000", "113637.906000", "113637.909000", "113637.911000", "113637.914000", "113637.917000", "113637.919000", "113637.933000", "113637.935000", "113637.938000", "113637.940000", "113637.943000", "113637.946000", "113637.948000", "113717.860000", "113717.863000", "113717.866000", "113717.868000", "113717.871000", "113717.873000", "113717.876000", "113717.878000", "113717.881000", "113717.883000", "113717.886000", "113717.896000", "113717.899000", "113717.901000", "113717.904000", "113717.906000", "113717.909000", "113717.911000", "113717.914000", "113717.916000", "113757.861000", "113757.864000", "113757.867000", "113757.870000", "113757.873000", "113757.876000", "113757.879000", "113757.882000", "113757.885000", "113757.887000", "113757.890000", "113757.893000", "113757.895000", "113757.898000", "113757.900000", "113757.903000", "113757.906000", "113757.908000", "113757.911000", "113757.913000", "113837.860000", "113837.863000", "113837.866000", "113837.868000", "113837.871000", "113837.873000", "113837.876000", "113837.879000", "113837.881000", "113837.884000", "113837.886000", "113837.889000", "113837.891000", "113837.894000", "113837.896000", "113837.899000", "113837.901000", "113837.904000", "113837.906000", "113837.909000", "113917.861000", "113917.863000", "113917.866000", "113917.869000", "113917.871000", "113917.874000", "113917.876000", "113917.879000", "113917.881000", "113917.884000", "113917.886000", "113917.889000", "113917.891000", "113917.894000", "113917.897000", "113917.899000", "113917.902000", "113917.904000", "113917.907000", "113917.909000", "113957.860000", "113957.863000", "113957.866000", "113957.868000", "113957.871000", "113957.873000", "113957.876000", "113957.878000", "113957.881000", "113957.883000", "113957.886000", "113957.888000", "113957.891000", "113957.893000", "113957.896000", "113957.898000", "113957.901000", "113957.903000", "113957.906000", "113957.908000", "114037.860000", "114037.863000", "114037.866000", "114037.868000", "114037.871000", "114037.873000", "114037.876000", "114037.878000", "114037.881000", "114037.883000", "114037.886000", "114037.888000", "114037.891000", "114037.893000", "114037.896000", "114037.898000", "114037.901000", "114037.903000", "114037.906000", "114037.908000", "114117.860000", "114117.863000", "114117.866000", "114117.868000", "114117.871000", "114117.873000", "114117.876000", "114117.878000", "114117.881000", "114117.883000", "114117.886000", "114117.888000", "114117.891000", "114117.893000", "114117.896000", "114117.898000", "114117.901000", "114117.903000", "114117.906000", "114117.908000", "114157.860000", "114157.863000", "114157.866000", "114157.868000", "114157.871000", "114157.873000", "114157.876000", "114157.878000", "114157.881000", "114157.883000", "114157.886000", "114157.888000", "114157.891000", "114157.893000", "114157.896000", "114157.898000", "114157.901000", "114157.904000", "114157.906000", "114157.908000", "114218.066000", "114218.068000", "114218.071000", "114218.073000", "114218.076000", "114218.079000", "114218.081000", "114218.084000", "114218.086000", "114218.089000", "114218.091000"],
      "InstanceNumber": [1, 2, 3, 4, 5, 6, 7, 8, 9, 10, 11, 12, 13, 14, 15, 16, 17, 18, 19, 20, 21, 22, 23, 24, 25, 26, 27, 28, 29, 30, 31, 32, 33, 34, 35, 36, 37, 38, 39, 40, 41, 42, 43, 44, 45, 46, 47, 48, 49, 50, 51, 52, 53, 54, 55, 56, 57, 58, 59, 60, 61, 62, 63, 64, 65, 66, 67, 68, 69, 70, 71, 72, 73, 74, 75, 76, 77, 78, 79, 80, 81, 82, 83, 84, 85, 86, 87, 88, 89, 90, 91, 92, 93, 94, 95, 96, 97, 98, 99, 100, 101, 102, 103, 104, 105, 106, 107, 108, 109, 110, 111, 112, 113, 114, 115, 116, 117, 118, 119, 120, 121, 122, 123, 124, 125, 126, 127, 128, 129, 130, 131, 132, 133, 134, 135, 136, 137, 138, 139, 140, 141, 142, 143, 144, 145, 146, 147, 148, 149, 150, 151, 152, 153, 154, 155, 156, 157, 158, 159, 160, 161, 162, 163, 164, 165, 166, 167, 168, 169, 170, 171, 172, 173, 174, 175, 176, 177, 178, 179, 180, 181, 182, 183, 184, 185, 186, 187, 188, 189, 190, 191, 192, 193, 194, 195, 196, 197, 198, 199, 200],
      "LargestImagePixelValue": [317, 321, 322, 318, 320, 322, 320, 323, 321, 320, 320, 318, 320, 318, 321, 317, 322, 320, 320, 319, 320, 320, 319, 320, 321, 322, 320, 322, 329, 320, 322, 322, 323, 322, 319, 321, 319, 321, 322, 323, 322, 320, 324, 322, 319, 321, 323, 321, 319, 319, 320, 319, 318, 321, 323, 321, 321, 320, 322, 320, 320, 320, 321, 322, 320, 320, 322, 320, 318, 320, 319, 322, 319, 321, 321, 323, 320, 321, 319, 324, 321, 318, 320, 319, 319, 324, 321, 323, 318, 321, 320, 319, 321, 322, 320, 322, 321, 321, 321, 323, 322, 323, 319, 320, 321, 318, 320, 323, 320, 321, 321, 318, 319, 321, 321, 323, 321, 324, 321, 322, 319, 320, 321, 320, 320, 318, 322, 319, 323, 318, 321, 323, 320, 320, 319, 321, 321, 321, 320, 319, 322, 322, 319, 319, 319, 320, 322, 319, 321, 319, 319, 320, 321, 319, 320, 319, 320, 323, 322, 321, 320, 319, 321, 317, 318, 319, 318, 321, 320, 321, 323, 320, 319, 321, 320, 318, 322, 322, 321, 320, 320, 318, 323, 320, 320, 321, 319, 319, 319, 320, 319, 319, 322, 319, 319, 321, 320, 318, 318, 321],
      "WindowCenter": [265.0, 266.0, 266.0, 266.0, 265.0, 266.0, 266.0, 267.0, 267.0, 267.0, 267.0, 266.0, 266.0, 267.0, 267.0, 266.0, 267.0, 267.0, 267.0, 268.0, 267.0, 268.0, 267.0, 267.0, 267.0, 267.0, 267.0, 267.0, 268.0, 268.0, 268.0, 267.0, 267.0, 267.0, 267.0, 267.0, 267.0, 267.0, 267.0, 267.0, 267.0, 268.0, 267.0, 267.0, 267.0, 267.0, 267.0, 268.0, 267.0, 268.0, 267.0, 267.0, 268.0, 267.0, 267.0, 268.0, 268.0, 267.0, 268.0, 267.0, 267.0, 267.0, 268.0, 267.0, 267.0, 267.0, 268.0, 267.0, 267.0, 268.0, 267.0, 267.0, 267.0, 267.0, 267.0, 268.0, 267.0, 268.0, 268.0, 267.0, 267.0, 268.0, 268.0, 268.0, 267.0, 267.0, 268.0, 268.0, 267.0, 267.0, 267.0, 267.0, 267.0, 267.0, 267.0, 268.0, 267.0, 267.0, 267.0, 267.0, 267.0, 267.0, 267.0, 267.0, 267.0, 267.0, 267.0, 267.0, 267.0, 267.0, 267.0, 267.0, 267.0, 267.0, 267.0, 267.0, 267.0, 267.0, 267.0, 267.0, 267.0, 267.0, 267.0, 267.0, 267.0, 267.0, 267.0, 267.0, 267.0, 267.0, 267.0, 267.0, 267.0, 267.0, 267.0, 267.0, 267.0, 267.0, 267.0, 267.0, 267.0, 267.0, 267.0, 267.0, 267.0, 267.0, 267.0, 267.0, 267.0, 267.0, 267.0, 267.0, 267.0, 267.0, 267.0, 267.0, 267.0, 267.0, 267.0, 267.0, 267.0, 267.0, 267.0, 267.0, 267.0, 267.0, 267.0, 267.0, 267.0, 267.0, 267.0, 267.0, 267.0, 267.0, 267.0, 267.0, 267.0, 267.0, 267.0, 267.0, 267.0, 267.0, 268.0, 267.0, 267.0, 267.0, 267.0, 267.0, 267.0, 267.0, 267.0, 266.0, 267.0, 267.0, 267.0, 267.0, 267.0, 267.0, 267.0, 267.0],
      "WindowWidth": [585.0, 585.0, 587.0, 585.0, 585.0, 587.0, 587.0, 588.0, 588.0, 588.0, 587.0, 585.0, 587.0, 587.0, 588.0, 585.0, 589.0, 589.0, 589.0, 589.0, 588.0, 589.0, 588.0, 588.0, 588.0, 589.0, 588.0, 588.0, 589.0, 589.0, 589.0, 588.0, 588.0, 589.0, 588.0, 588.0, 589.0, 588.0, 588.0, 589.0, 588.0, 589.0, 588.0, 588.0, 588.0, 588.0, 588.0, 589.0, 588.0, 589.0, 588.0, 588.0, 589.0, 588.0, 588.0, 589.0, 589.0, 588.0, 589.0, 588.0, 588.0, 588.0, 589.0, 588.0, 588.0, 588.0, 589.0, 588.0, 588.0, 589.0, 588.0, 588.0, 588.0, 588.0, 588.0, 589.0, 588.0, 589.0, 589.0, 588.0, 588.0, 589.0, 589.0, 589.0, 588.0, 588.0, 589.0, 589.0, 588.0, 588.0, 588.0, 588.0, 588.0, 588.0, 588.0, 588.0, 588.0, 588.0, 588.0, 588.0, 588.0, 588.0, 588.0, 588.0, 588.0, 588.0, 588.0, 588.0, 588.0, 588.0, 588.0, 588.0, 588.0, 588.0, 588.0, 588.0, 588.0, 588.0, 588.0, 588.0, 588.0, 588.0, 588.0, 588.0, 588.0, 588.0, 588.0, 588.0, 588.0, 588.0, 588.0, 588.0, 588.0, 588.0, 588.0, 588.0, 588.0, 588.0, 588.0, 588.0, 588.0, 588.0, 588.0, 588.0, 588.0, 588.0, 588.0, 588.0, 588.0, 588.0, 588.0, 588.0, 588.0, 588.0, 588.0, 588.0, 588.0, 588.0, 587.0, 588.0, 588.0, 587.0, 588.0, 588.0, 588.0, 588.0, 588.0, 588.0, 588.0, 588.0, 588.0, 588.0, 588.0, 588.0, 588.0, 588.0, 588.0, 588.0, 588.0, 588.0, 588.0, 588.0, 588.0, 588.0, 588.0, 588.0, 587.0, 588.0, 588.0, 587.0, 588.0, 587.0, 587.0, 587.0, 587.0, 588.0, 587.0, 588.0, 588.0, 588.0]
    },
    "slices": {}
  }
}