{
  "AcquisitionMatrixPE": 80,
  "AcquisitionNumber": 1,
  "AcquisitionTime": "11:15:7.480000",
  "BandwidthPerPixelPhaseEncode": 48.077,
  "BaseResolution": 80,
  "BodyPartExamined": "BRAIN",
  "CoilCombinationMethod": "Sum of Squares",
  "ConsistencyInfo": "N4_VE11C_LATEST_20160120",
  "ConversionSoftware": "dcm2niix",
  "ConversionSoftwareVersion": "v1.0.20220720",
  "DerivedVendorReportedEchoSpacing": 0.000519999,
  "DeviceSerialNumber": "66112",
  "DwellTime": 2.7e-06,
  "EchoTime": 0.035,
  "EchoTrainLength": 39,
  "EffectiveEchoSpacing": 0.00026,
  "FlipAngle": 90,
  "HeudiconvVersion": "0.13.1",
  "ImageOrientationPatientDICOM": [0.987931, 0.154574, 0.00997277, -0.150116, 0.939594, 0.307616],
  "ImageOrientationText": "Tra>Cor(17.8)>Sag(-2.2)",
  "ImageType": [
    "ORIGINAL",
    "PRIMARY",
    "M",
    "ND",
    "NORM",
    "MOSAIC"
],
  "ImagingFrequency": 123.252,
  "InPlanePhaseEncodingDirectionDICOM": "COL",
  "InstitutionAddress": "Maynard 3,Hanover,NH,US,03755",
  "InstitutionName": "Dartmouth College - PBS",
  "InstitutionalDepartmentName": "Department",
  "MRAcquisitionType": "2D",
  "MagneticFieldStrength": 3,
  "Manufacturer": "Siemens",
  "ManufacturersModelName": "Prisma",
  "MatrixCoilMode": "GRAPPA",
  "Modality": "MR",
  "NonlinearGradientCorrection": false,
  "ParallelReductionFactorInPlane": 2,
  "PartialFourier": 1,
  "PatientPosition": "HFS",
  "PercentPhaseFOV": 100,
  "PercentSampling": 100,
  "PhaseEncodingDirection": "j-",
  "PhaseEncodingSteps": 79,
  "PhaseResolution": 1,
  "PixelBandwidth": 2315,
  "ProcedureStepDescription": "dbic^QA",
  "ProtocolName": "func-bold_task-rest_acq-p2",
  "PulseSequenceDetails": "%SiemensSeq%\\ep2d_bold",
  "ReceiveCoilActiveElements": "HEA;HEP",
  "ReceiveCoilName": "Head_32",
  "ReconMatrixPE": 80,
  "RefLinesPE": 24,
  "RepetitionTime": 2,
  "SAR": 0.0555323,
  "ScanOptions": "FS",
  "ScanningSequence": "EP",
  "SequenceName": "*epfid2d1_80",
  "SequenceVariant": "SK",
  "SeriesDescription": "func-bold_task-rest_acq-p2",
  "SeriesNumber": 5,
  "ShimSetting": [4144, -7710, -7511, 258, -47, -72, -1, 80],
  "SliceThickness": 3.5,
  "SliceTiming": [0.9875, 0, 1.055, 0.065, 1.12, 0.13, 1.1875, 0.1975, 1.2525, 0.2625, 1.3175, 0.3275, 1.385, 0.395, 1.45, 0.46, 1.5175, 0.5275, 1.5825, 0.5925, 1.6475, 0.6575, 1.715, 0.725, 1.78, 0.79, 1.8475, 0.8575, 1.9125, 0.9225],
  "SoftwareVersions": "syngo MR E11",
  "SpacingBetweenSlices": 3.99,
  "StationName": "AWP66112",
  "TaskName": "rest",
  "TotalReadoutTime": 0.02054,
  "TxRefAmp": 221.474,
  "dcmmeta_affine": [
    [-2.9637928009033203, -0.45034825801849365, -0.15233385562896729, 140.1497802734375],
    [-0.4637209475040436, 2.8187835216522217, 1.2185462713241577, -94.6581802368164],
    [0.02991831861436367, -0.9228469133377075, 3.796319007873535, -21.88395881652832],
    [0.0, 0.0, 0.0, 1.0]
],
  "dcmmeta_reorient_transform": [
    [0.0, -1.0, 0.0, 79.0],
    [1.0, 0.0, 0.0, 0.0],
    [0.0, 0.0, 1.0, 0.0],
    [0.0, 0.0, 0.0, 1.0]
],
  "dcmmeta_shape": [80, 80, 30, 200],
  "dcmmeta_slice_dim": 2,
  "dcmmeta_version": 0.6,
  "global": {
    "const": {
      "AccessionNumber": "qa",
      "AcquisitionMatrix": [80, 0, 0, 80],
      "AngioFlag": "N",
      "BitsAllocated": 16,
      "BitsStored": 12,
      "BodyPartExamined": "BRAIN",
      "Columns": 480,
      "EchoNumbers": 1,
      "EchoTime": 35.0,
      "EchoTrainLength": 39,
      "FlipAngle": 90.0,
      "HighBit": 11,
      "ImageOrientationPatient": [0.98793093385916, 0.15457365145825, 0.009972772886, -0.1501160907059, 0.93959447399731, 0.30761564288068],
      "ImagePositionPatient": [-607.26117670199, -784.52658882021, -285.34191634054],
      "ImageType": [
        "ORIGINAL",
        "PRIMARY",
        "M",
        "ND",
        "NORM",
        "MOSAIC"
],
      "ImagedNucleus": "1H",
      "ImagingFrequency": 123.252359,
      "InPlanePhaseEncodingDirection": "COL",
      "MRAcquisitionType": "2D",
      "MagneticFieldStrength": 3.0,
      "Manufacturer": "SIEMENS",
      "ManufacturerModelName": "Prisma",
      "Modality": "MR",
      "NumberOfAverages": 1.0,
      "NumberOfPhaseEncodingSteps": 79,
      "PercentPhaseFieldOfView": 100.0,
      "PercentSampling": 100.0,
      "PerformedProcedureStepStartTime": "111342.944000",
      "PhotometricInterpretation": "MONOCHROME2",
      "PixelBandwidth": 2315.0,
      "PixelRepresentation": 0,
      "PixelSpacing": [3.0, 3.0],
      "ProtocolName": "func-bold_task-rest_acq-p2",
      "RepetitionTime": 2000.0,
      "Rows": 480,
      "SAR": 0.05553225129228,
      "SamplesPerPixel": 1,
      "ScanOptions": "FS",
      "ScanningSequence": "EP",
      "SequenceName": "*epfid2d1_80",
      "SequenceVariant": "SK",
      "SeriesDescription": "func-bold_task-rest_acq-p2",
      "SeriesNumber": 5,
      "SeriesTime": "111557.862000",
      "SliceLocation": -55.081059123516,
      "SliceThickness": 3.5,
      "SmallestImagePixelValue": 0,
      "SoftwareVersions": "syngo MR E11",
      "SpacingBetweenSlices": 3.9899999289399,
      "SpecificCharacterSet": "ISO_IR 100",
      "StudyID": "24",
      "StudyTime": "111342.889000",
      "TransmitCoilName": "Body",
      "VariableFlipAngleFlag": "N",
      "WindowCenterWidthExplanation": "Algo1",
      "dBdt": 0.0},
    "slices": {}
  },
  "time": {
    "samples": {
      "AcquisitionNumber": [1, 2, 3, 4, 5, 6, 7, 8, 9, 10, 11, 12, 13, 14, 15, 16, 17, 18, 19, 20, 21, 22, 23, 24, 25, 26, 27, 28, 29, 30, 31, 32, 33, 34, 35, 36, 37, 38, 39, 40, 41, 42, 43, 44, 45, 46, 47, 48, 49, 50, 51, 52, 53, 54, 55, 56, 57, 58, 59, 60, 61, 62, 63, 64, 65, 66, 67, 68, 69, 70, 71, 72, 73, 74, 75, 76, 77, 78, 79, 80, 81, 82, 83, 84, 85, 86, 87, 88, 89, 90, 91, 92, 93, 94, 95, 96, 97, 98, 99, 100, 101, 102, 103, 104, 105, 106, 107, 108, 109, 110, 111, 112, 113, 114, 115, 116, 117, 118, 119, 120, 121, 122, 123, 124, 125, 126, 127, 128, 129, 130, 131, 132, 133, 134, 135, 136, 137, 138, 139, 140, 141, 142, 143, 144, 145, 146, 147, 148, 149, 150, 151, 152, 153, 154, 155, 156, 157, 158, 159, 160, 161, 162, 163, 164, 165, 166, 167, 168, 169, 170, 171, 172, 173, 174, 175, 176, 177, 178, 179, 180, 181, 182, 183, 184, 185, 186, 187, 188, 189, 190, 191, 192, 193, 194, 195, 196, 197, 198, 199, 200],
      "AcquisitionTime": ["111507.480000", "111509.480000", "111511.480000", "111513.480000", "111515.480000", "111517.480000", "111519.480000", "111521.480000", "111523.480000", "111525.480000", "111527.480000", "111529.480000", "111531.480000", "111533.480000", "111535.480000", "111537.480000", "111539.480000", "111541.480000", "111543.480000", "111545.480000", "111547.480000", "111549.480000", "111551.480000", "111553.480000", "111555.480000", "111557.480000", "111559.480000", "111601.480000", "111603.480000", "111605.480000", "111607.480000", "111609.480000", "111611.480000", "111613.480000", "111615.480000", "111617.480000", "111619.480000", "111621.480000", "111623.480000", "111625.480000", "111627.480000", "111629.480000", "111631.480000", "111633.480000", "111635.480000", "111637.480000", "111639.480000", "111641.480000", "111643.480000", "111645.480000", "111647.480000", "111649.480000", "111651.480000", "111653.480000", "111655.480000", "111657.480000", "111659.480000", "111701.480000", "111703.480000", "111705.480000", "111707.480000", "111709.480000", "111711.480000", "111713.480000", "111715.480000", "111717.480000", "111719.480000", "111721.480000", "111723.480000", "111725.480000", "111727.480000", "111729.480000", "111731.480000", "111733.480000", "111735.480000", "111737.480000", "111739.480000", "111741.480000", "111743.480000", "111745.480000", "111747.480000", "111749.480000", "111751.480000", "111753.480000", "111755.480000", "111757.480000", "111759.480000", "111801.480000", "111803.480000", "111805.480000", "111807.480000", "111809.480000", "111811.480000", "111813.480000", "111815.480000", "111817.480000", "111819.480000", "111821.480000", "111823.480000", "111825.480000", "111827.480000", "111829.480000", "111831.480000", "111833.480000", "111835.480000", "111837.480000", "111839.480000", "111841.480000", "111843.480000", "111845.480000", "111847.480000", "111849.480000", "111851.480000", "111853.480000", "111855.480000", "111857.480000", "111859.480000", "111901.480000", "111903.480000", "111905.480000", "111907.480000", "111909.480000", "111911.480000", "111913.480000", "111915.480000", "111917.480000", "111919.480000", "111921.480000", "111923.480000", "111925.480000", "111927.480000", "111929.480000", "111931.480000", "111933.480000", "111935.480000", "111937.480000", "111939.480000", "111941.480000", "111943.480000", "111945.480000", "111947.480000", "111949.480000", "111951.480000", "111953.480000", "111955.480000", "111957.480000", "111959.480000", "112001.480000", "112003.480000", "112005.480000", "112007.480000", "112009.480000", "112011.480000", "112013.480000", "112015.480000", "112017.480000", "112019.480000", "112021.480000", "112023.480000", "112025.480000", "112027.480000", "112029.480000", "112031.480000", "112033.480000", "112035.480000", "112037.480000", "112039.480000", "112041.480000", "112043.480000", "112045.480000", "112047.480000", "112049.480000", "112051.480000", "112053.480000", "112055.480000", "112057.480000", "112059.480000", "112101.480000", "112103.480000", "112105.480000", "112107.480000", "112109.480000", "112111.480000", "112113.480000", "112115.480000", "112117.480000", "112119.480000", "112121.480000", "112123.480000", "112125.480000", "112127.480000", "112129.480000", "112131.480000", "112133.480000", "112135.480000", "112137.480000", "112139.480000", "112141.480000", "112143.480000", "112145.480000"],
      "ContentTime": ["111557.865000", "111557.869000", "111557.871000", "111557.874000", "111557.876000", "111557.879000", "111557.881000", "111557.884000", "111557.886000", "111557.889000", "111557.891000", "111557.894000", "111557.896000", "111557.899000", "111557.901000", "111557.904000", "111557.907000", "111557.909000", "111557.912000", "111557.914000", "111557.917000", "111557.919000", "111557.922000", "111557.924000", "111557.927000", "111637.860000", "111637.863000", "111637.866000", "111637.868000", "111637.871000", "111637.873000", "111637.876000", "111637.878000", "111637.881000", "111637.883000", "111637.886000", "111637.888000", "111637.891000", "111637.893000", "111637.896000", "111637.899000", "111637.901000", "111637.904000", "111637.906000", "111637.909000", "111717.860000", "111717.863000", "111717.866000", "111717.868000", "111717.871000", "111717.873000", "111717.876000", "111717.878000", "111717.881000", "111717.884000", "111717.886000", "111717.889000", "111717.891000", "111717.894000", "111717.896000", "111717.899000", "111717.901000", "111717.904000", "111717.906000", "111717.909000", "111757.860000", "111757.863000", "111757.866000", "111757.868000", "111757.871000", "111757.873000", "111757.876000", "111757.878000", "111757.881000", "111757.884000", "111757.886000", "111757.889000", "111757.891000", "111757.894000", "111757.896000", "111757.899000", "111757.901000", "111757.904000", "111757.906000", "111757.909000", "111837.860000", "111837.863000", "111837.866000", "111837.868000", "111837.871000", "111837.873000", "111837.876000", "111837.878000", "111837.881000", "111837.883000", "111837.886000", "111837.889000", "111837.891000", "111837.894000", "111837.896000", "111837.899000", "111837.901000", "111837.904000", "111837.906000", "111837.909000", "111917.861000", "111917.863000", "111917.866000", "111917.869000", "111917.871000", "111917.874000", "111917.876000", "111917.879000", "111917.881000", "111917.884000", "111917.886000", "111917.889000", "111917.891000", "111917.894000", "111917.896000", "111917.899000", "111917.901000", "111917.904000", "111917.906000", "111917.909000", "111957.862000", "111957.864000", "111957.867000", "111957.869000", "111957.872000", "111957.875000", "111957.877000", "111957.880000", "111957.883000", "111957.885000", "111957.888000", "111957.890000", "111957.893000", "111957.895000", "111957.898000", "111957.901000", "111957.903000", "111957.906000", "111957.908000", "111957.911000", "112037.860000", "112037.863000", "112037.866000", "112037.868000", "112037.871000", "112037.874000", "112037.876000", "112037.879000", "112037.882000", "112037.884000", "112037.887000", "112037.889000", "112037.892000", "112037.894000", "112037.897000", "112037.899000", "112037.902000", "112037.905000", "112037.907000", "112037.910000", "112117.860000", "112117.863000", "112117.866000", "112117.868000", "112117.871000", "112117.874000", "112117.876000", "112117.879000", "112117.881000", "112117.884000", "112117.887000", "112117.889000", "112117.898000", "112117.901000", "112117.903000", "112117.906000", "112117.909000", "112117.911000", "112117.914000", "112117.916000", "112147.168000", "112147.171000", "112147.174000", "112147.176000", "112147.179000", "112147.182000", "112147.184000", "112147.187000", "112147.189000", "112147.192000", "112147.194000", "112147.197000", "112147.203000", "112147.206000", "112147.209000"],
      "InstanceCreationTime": ["111557.865000", "111557.869000", "111557.871000", "111557.874000", "111557.876000", "111557.879000", "111557.881000", "111557.884000", "111557.886000", "111557.889000", "111557.891000", "111557.894000", "111557.896000", "111557.899000", "111557.901000", "111557.904000", "111557.907000", "111557.909000", "111557.912000", "111557.914000", "111557.917000", "111557.919000", "111557.922000", "111557.924000", "111557.927000", "111637.860000", "111637.863000", "111637.866000", "111637.868000", "111637.871000", "111637.873000", "111637.876000", "111637.878000", "111637.881000", "111637.883000", "111637.886000", "111637.888000", "111637.891000", "111637.893000", "111637.896000", "111637.899000", "111637.901000", "111637.904000", "111637.906000", "111637.909000", "111717.860000", "111717.863000", "111717.866000", "111717.868000", "111717.871000", "111717.873000", "111717.876000", "111717.878000", "111717.881000", "111717.884000", "111717.886000", "111717.889000", "111717.891000", "111717.894000", "111717.896000", "111717.899000", "111717.901000", "111717.904000", "111717.906000", "111717.909000", "111757.860000", "111757.863000", "111757.866000", "111757.868000", "111757.871000", "111757.873000", "111757.876000", "111757.878000", "111757.881000", "111757.884000", "111757.886000", "111757.889000", "111757.891000", "111757.894000", "111757.896000", "111757.899000", "111757.901000", "111757.904000", "111757.906000", "111757.909000", "111837.860000", "111837.863000", "111837.866000", "111837.868000", "111837.871000", "111837.873000", "111837.876000", "111837.878000", "111837.881000", "111837.883000", "111837.886000", "111837.889000", "111837.891000", "111837.894000", "111837.896000", "111837.899000", "111837.901000", "111837.904000", "111837.906000", "111837.909000", "111917.861000", "111917.863000", "111917.866000", "111917.869000", "111917.871000", "111917.874000", "111917.876000", "111917.879000", "111917.881000", "111917.884000", "111917.886000", "111917.889000", "111917.891000", "111917.894000", "111917.896000", "111917.899000", "111917.901000", "111917.904000", "111917.906000", "111917.909000", "111957.862000", "111957.864000", "111957.867000", "111957.869000", "111957.872000", "111957.875000", "111957.877000", "111957.880000", "111957.883000", "111957.885000", "111957.888000", "111957.890000", "111957.893000", "111957.895000", "111957.898000", "111957.901000", "111957.903000", "111957.906000", "111957.908000", "111957.911000", "112037.860000", "112037.863000", "112037.866000", "112037.868000", "112037.871000", "112037.874000", "112037.876000", "112037.879000", "112037.882000", "112037.884000", "112037.887000", "112037.889000", "112037.892000", "112037.894000", "112037.897000", "112037.899000", "112037.902000", "112037.905000", "112037.907000", "112037.910000", "112117.860000", "112117.863000", "112117.866000", "112117.868000", "112117.871000", "112117.874000", "112117.876000", "112117.879000", "112117.881000", "112117.884000", "112117.887000", "112117.889000", "112117.898000", "112117.901000", "112117.903000", "112117.906000", "112117.909000", "112117.911000", "112117.914000", "112117.916000", "112147.168000", "112147.171000", "112147.174000", "112147.176000", "112147.179000", "112147.182000", "112147.184000", "112147.187000", "112147.189000", "112147.192000", "112147.194000", "112147.197000", "112147.203000", "112147.206000", "112147.209000"],
      "InstanceNumber": [1, 2, 3, 4, 5, 6, 7, 8, 9, 10, 11, 12, 13, 14, 15, 16, 17, 18, 19, 20, 21, 22, 23, 24, 25, 26, 27, 28, 29, 30, 31, 32, 33, 34, 35, 36, 37, 38, 39, 40, 41, 42, 43, 44, 45, 46, 47, 48, 49, 50, 51, 52, 53, 54, 55, 56, 57, 58, 59, 60, 61, 62, 63, 64, 65, 66, 67, 68, 69, 70, 71, 72, 73, 74, 75, 76, 77, 78, 79, 80, 81, 82, 83, 84, 85, 86, 87, 88, 89, 90, 91, 92, 93, 94, 95, 96, 97, 98, 99, 100, 101, 102, 103, 104, 105, 106, 107, 108, 109, 110, 111, 112, 113, 114, 115, 116, 117, 118, 119, 120, 121, 122, 123, 124, 125, 126, 127, 128, 129, 130, 131, 132, 133, 134, 135, 136, 137, 138, 139, 140, 141, 142, 143, 144, 145, 146, 147, 148, 149, 150, 151, 152, 153, 154, 155, 156, 157, 158, 159, 160, 161, 162, 163, 164, 165, 166, 167, 168, 169, 170, 171, 172, 173, 174, 175, 176, 177, 178, 179, 180, 181, 182, 183, 184, 185, 186, 187, 188, 189, 190, 191, 192, 193, 194, 195, 196, 197, 198, 199, 200],
      "LargestImagePixelValue": [1916, 1918, 1920, 1923, 1920, 1921, 1913, 1924, 1920, 1919, 1921, 1913, 1918, 1919, 1915, 1916, 1916, 1916, 1925, 1922, 1915, 1924, 1914, 1922, 1913, 1917, 1922, 1916, 1923, 1922, 1915, 1918, 1921, 1926, 1923, 1918, 1917, 1919, 1915, 1923, 1919, 1924, 1921, 1924, 1918, 1920, 1921, 1911, 1916, 1916, 1909, 1919, 1923, 1915, 1919, 1913, 1918, 1917, 1909, 1917, 1914, 1907, 1910, 1911, 1915, 1913, 1910, 1908, 1909, 1912, 1913, 1916, 1919, 1918, 1924, 1921, 1918, 1913, 1917, 1917, 1911, 1922, 1921, 1918, 1926, 1920, 1921, 1924, 1918, 1927, 1922, 1923, 1928, 1920, 1927, 1916, 1918, 1923, 1920, 1923, 1930, 1923, 1911, 1922, 1921, 1920, 1918, 1916, 1916, 1922, 1919, 1915, 1924, 1919, 1922, 1917, 1917, 1919, 1924, 1916, 1918, 1922, 1920, 1916, 1918, 1919, 1911, 1923, 1917, 1923, 1916, 1917, 1920, 1916, 1918, 1912, 1920, 1921, 1920, 1921, 1913, 1914, 1913, 1915, 1915, 1915, 1923, 1919, 1914, 1914, 1912, 1924, 1916, 1918, 1920, 1919, 1917, 1921, 1929, 1925, 1917, 1913, 1915, 1916, 1911, 1914, 1926, 1919, 1918, 1919, 1919, 1916, 1915, 1918, 1918, 1917, 1912, 1906, 1907, 1911, 1913, 1917, 1915, 1911, 1910, 1911, 1910, 1910, 1911, 1913, 1906, 1917, 1903, 1913, 1911, 1915, 1915, 1913, 1917, 1909],
      "WindowCenter": [973.0, 972.0, 972.0, 971.0, 971.0, 972.0, 971.0, 971.0, 972.0, 972.0, 971.0, 973.0, 971.0, 971.0, 972.0, 971.0, 972.0, 972.0, 971.0, 972.0, 973.0, 972.0, 971.0, 971.0, 971.0, 971.0, 971.0, 971.0, 971.0, 971.0, 971.0, 973.0, 973.0, 972.0, 971.0, 971.0, 971.0, 972.0, 971.0, 971.0, 971.0, 972.0, 971.0, 971.0, 971.0, 972.0, 971.0, 971.0, 971.0, 971.0, 971.0, 972.0, 972.0, 972.0, 972.0, 971.0, 972.0, 972.0, 971.0, 971.0, 971.0, 971.0, 971.0, 971.0, 971.0, 971.0, 971.0, 971.0, 971.0, 972.0, 971.0, 972.0, 971.0, 971.0, 971.0, 971.0, 971.0, 972.0, 971.0, 971.0, 971.0, 971.0, 971.0, 971.0, 972.0, 972.0, 971.0, 971.0, 970.0, 970.0, 971.0, 971.0, 972.0, 971.0, 971.0, 971.0, 971.0, 971.0, 971.0, 971.0, 970.0, 972.0, 971.0, 971.0, 971.0, 971.0, 970.0, 970.0, 971.0, 970.0, 971.0, 971.0, 970.0, 970.0, 970.0, 971.0, 971.0, 970.0, 970.0, 971.0, 970.0, 971.0, 970.0, 970.0, 970.0, 971.0, 971.0, 971.0, 970.0, 970.0, 970.0, 970.0, 970.0, 972.0, 970.0, 970.0, 970.0, 970.0, 971.0, 970.0, 971.0, 970.0, 970.0, 970.0, 970.0, 971.0, 971.0, 970.0, 970.0, 971.0, 971.0, 970.0, 970.0, 970.0, 970.0, 971.0, 970.0, 972.0, 970.0, 972.0, 970.0, 970.0, 970.0, 970.0, 971.0, 971.0, 970.0, 970.0, 970.0, 970.0, 971.0, 970.0, 970.0, 970.0, 971.0, 971.0, 970.0, 971.0, 971.0, 970.0, 972.0, 971.0, 971.0, 970.0, 970.0, 970.0, 970.0, 971.0, 970.0, 970.0, 971.0, 972.0, 971.0, 970.0, 971.0, 970.0, 971.0, 971.0, 970.0, 970.0],
      "WindowWidth": [2118.0, 2117.0, 2117.0, 2116.0, 2116.0, 2117.0, 2116.0, 2116.0, 2117.0, 2117.0, 2116.0, 2117.0, 2116.0, 2116.0, 2116.0, 2116.0, 2117.0, 2116.0, 2116.0, 2116.0, 2117.0, 2116.0, 2116.0, 2116.0, 2116.0, 2115.0, 2116.0, 2115.0, 2116.0, 2115.0, 2115.0, 2117.0, 2117.0, 2116.0, 2115.0, 2115.0, 2115.0, 2116.0, 2115.0, 2115.0, 2115.0, 2116.0, 2115.0, 2115.0, 2115.0, 2116.0, 2115.0, 2115.0, 2115.0, 2115.0, 2115.0, 2115.0, 2116.0, 2116.0, 2116.0, 2115.0, 2116.0, 2116.0, 2115.0, 2115.0, 2115.0, 2115.0, 2115.0, 2115.0, 2115.0, 2115.0, 2115.0, 2115.0, 2115.0, 2116.0, 2115.0, 2116.0, 2114.0, 2115.0, 2115.0, 2115.0, 2115.0, 2115.0, 2115.0, 2115.0, 2115.0, 2115.0, 2115.0, 2114.0, 2115.0, 2115.0, 2115.0, 2115.0, 2114.0, 2115.0, 2115.0, 2115.0, 2116.0, 2115.0, 2114.0, 2115.0, 2115.0, 2115.0, 2115.0, 2115.0, 2115.0, 2116.0, 2115.0, 2115.0, 2114.0, 2114.0, 2114.0, 2114.0, 2115.0, 2114.0, 2115.0, 2115.0, 2114.0, 2114.0, 2114.0, 2115.0, 2115.0, 2114.0, 2114.0, 2115.0, 2114.0, 2114.0, 2114.0, 2114.0, 2114.0, 2115.0, 2115.0, 2114.0, 2114.0, 2114.0, 2114.0, 2114.0, 2114.0, 2115.0, 2114.0, 2114.0, 2114.0, 2113.0, 2114.0, 2114.0, 2114.0, 2114.0, 2114.0, 2114.0, 2114.0, 2114.0, 2114.0, 2114.0, 2114.0, 2114.0, 2114.0, 2114.0, 2114.0, 2114.0, 2114.0, 2114.0, 2114.0, 2114.0, 2113.0, 2115.0, 2113.0, 2114.0, 2113.0, 2113.0, 2114.0, 2114.0, 2113.0, 2114.0, 2113.0, 2114.0, 2114.0, 2113.0, 2113.0, 2113.0, 2113.0, 2114.0, 2113.0, 2114.0, 2114.0, 2113.0, 2114.0, 2114.0, 2114.0, 2113.0, 2114.0, 2113.0, 2113.0, 2114.0, 2113.0, 2114.0, 2114.0, 2115.0, 2114.0, 2114.0, 2114.0, 2113.0, 2114.0, 2114.0, 2114.0, 2114.0]
    },
    "slices": {}
  }
}