{
  "AcquisitionMatrixPE": 80,
  "AcquisitionNumber": 1,
  "AcquisitionTime": "09:23:22.425000",
  "BandwidthPerPixelPhaseEncode": 25,
  "BaseResolution": 80,
  "BodyPartExamined": "BRAIN",
  "CoilCombinationMethod": "Sum of Squares",
  "ConsistencyInfo": "N4_VE11E_LATEST_20181129",
  "ConversionSoftware": "dcm2niix",
  "ConversionSoftwareVersion": "v1.0.20220720",
  "DerivedVendorReportedEchoSpacing": 0.0005,
  "DeviceSerialNumber": "66112",
  "DwellTime": 2.7e-06,
  "EchoTime": 0.03,
  "EchoTrainLength": 80,
  "EffectiveEchoSpacing": 0.0005,
  "FlipAngle": 77,
  "HeudiconvVersion": "0.13.1",
  "ImageOrientationPatientDICOM": [0.990809, 0.135191, 0.00453676, -0.129563, 0.93886, 0.318991],
  "ImageOrientationText": "Tra>Cor(18.5)>Sag(-2.2)",
  "ImageType": [
    "ORIGINAL",
    "PRIMARY",
    "M",
    "ND",
    "NORM",
    "MOSAIC"
],
  "ImagingFrequency": 123.259,
  "InPlanePhaseEncodingDirectionDICOM": "COL",
  "InstitutionAddress": "Maynard 3,Hanover,NH,US,03755",
  "InstitutionName": "Dartmouth College - PBS",
  "InstitutionalDepartmentName": "Department",
  "MRAcquisitionType": "2D",
  "MagneticFieldStrength": 3,
  "Manufacturer": "Siemens",
  "ManufacturersModelName": "Prisma",
  "MatrixCoilMode": "SENSE",
  "Modality": "MR",
  "NonlinearGradientCorrection": false,
  "PartialFourier": 1,
  "PatientPosition": "HFS",
  "PercentPhaseFOV": 100,
  "PercentSampling": 100,
  "PhaseEncodingDirection": "j-",
  "PhaseEncodingSteps": 80,
  "PhaseResolution": 1,
  "PixelBandwidth": 2315,
  "ProcedureStepDescription": "dbic^QA",
  "ProtocolName": "func-bold_fa-77",
  "PulseSequenceDetails": "%SiemensSeq%\\ep2d_bold",
  "ReceiveCoilActiveElements": "HC1-7;NC1,2",
  "ReceiveCoilName": "HeadNeck_64",
  "ReconMatrixPE": 80,
  "RepetitionTime": 2,
  "SAR": 0.0283262,
  "ScanOptions": "FS",
  "ScanningSequence": "EP",
  "SequenceName": "*epfid2d1_80",
  "SequenceVariant": "SK",
  "SeriesDescription": "func-bold_fa-77",
  "SeriesNumber": 7,
  "ShimSetting": [4217, -7725, -7485, -146, -170, -286, -86, 68],
  "SliceThickness": 3.5,
  "SliceTiming": [0.9875, 0, 1.055, 0.065, 1.12, 0.13, 1.1875, 0.1975, 1.2525, 0.2625, 1.3175, 0.33, 1.385, 0.395, 1.45, 0.46, 1.5175, 0.5275, 1.5825, 0.5925, 1.6475, 0.6575, 1.715, 0.725, 1.78, 0.79, 1.8475, 0.8575, 1.9125, 0.9225],
  "SoftwareVersions": "syngo MR E11",
  "SpacingBetweenSlices": 3.99,
  "StationName": "AWP66112",
  "TotalReadoutTime": 0.0395,
  "TxRefAmp": 215.698,
  "dcmmeta_affine": [
    [-2.9724276065826416, -0.3886891007423401, -0.15507234632968903, 137.24502563476562],
    [-0.4055718779563904, 2.816579818725586, 1.2634228467941284, -113.0750732421875],
    [0.013610288500785828, -0.9569739103317261, 3.7815098762512207, -27.938180923461914],
    [0.0, 0.0, 0.0, 1.0]
],
  "dcmmeta_reorient_transform": [
    [0.0, -1.0, 0.0, 79.0],
    [1.0, 0.0, 0.0, 0.0],
    [0.0, 0.0, 1.0, 0.0],
    [0.0, 0.0, 0.0, 1.0]
],
  "dcmmeta_shape": [80, 80, 30, 200],
  "dcmmeta_slice_dim": 2,
  "dcmmeta_version": 0.6,
  "global": {
    "const": {
      "AccessionNumber": "qa64",
      "AcquisitionMatrix": [80, 0, 0, 80],
      "AngioFlag": "N",
      "BitsAllocated": 16,
      "BitsStored": 12,
      "BodyPartExamined": "BRAIN",
      "Columns": 480,
      "EchoNumbers": 1,
      "EchoTime": 30.0,
      "EchoTrainLength": 80,
      "FlipAngle": 77.0,
      "HighBit": 11,
      "ImageOrientationPatient": [0.99080922151573, 0.13519062224699, 0.00453676270671, -0.1295630313962, 0.93885993228679, 0.31899129837955],
      "ImagePositionPatient": [-623.28630541474, -753.86506526469, -297.65595563006],
      "ImageType": [
        "ORIGINAL",
        "PRIMARY",
        "M",
        "ND",
        "NORM",
        "MOSAIC"
],
      "ImagedNucleus": "1H",
      "ImagingFrequency": 123.259284,
      "InPlanePhaseEncodingDirection": "COL",
      "LargestImagePixelValue": 4095,
      "MRAcquisitionType": "2D",
      "MagneticFieldStrength": 3.0,
      "Manufacturer": "SIEMENS",
      "ManufacturerModelName": "Prisma",
      "Modality": "MR",
      "NumberOfAverages": 1.0,
      "NumberOfPhaseEncodingSteps": 80,
      "PercentPhaseFieldOfView": 100.0,
      "PercentSampling": 100.0,
      "PerformedProcedureStepStartTime": "091444.476000",
      "PhotometricInterpretation": "MONOCHROME2",
      "PixelBandwidth": 2315.0,
      "PixelRepresentation": 0,
      "PixelSpacing": [3.0, 3.0],
      "ProtocolName": "func-bold_fa-77",
      "RepetitionTime": 2000.0,
      "Rows": 480,
      "SAR": 0.0283262013475,
      "SamplesPerPixel": 1,
      "ScanOptions": "FS",
      "ScanningSequence": "EP",
      "SequenceName": "*epfid2d1_80",
      "SequenceVariant": "SK",
      "SeriesDescription": "func-bold_fa-77",
      "SeriesNumber": 7,
      "SeriesTime": "092408.955000",
      "SliceLocation": -67.617301470855,
      "SliceThickness": 3.5,
      "SmallestImagePixelValue": 0,
      "SoftwareVersions": "syngo MR E11",
      "SpacingBetweenSlices": 3.9900001149122,
      "SpecificCharacterSet": "ISO_IR 100",
      "StudyID": "23",
      "StudyTime": "091444.404000",
      "TransmitCoilName": "Body",
      "VariableFlipAngleFlag": "N",
      "WindowCenterWidthExplanation": "Algo1"
    },
    "slices": {}
  },
  "time": {
    "samples": {
      "AcquisitionNumber": [1, 2, 3, 4, 5, 6, 7, 8, 9, 10, 11, 12, 13, 14, 15, 16, 17, 18, 19, 20, 21, 22, 23, 24, 25, 26, 27, 28, 29, 30, 31, 32, 33, 34, 35, 36, 37, 38, 39, 40, 41, 42, 43, 44, 45, 46, 47, 48, 49, 50, 51, 52, 53, 54, 55, 56, 57, 58, 59, 60, 61, 62, 63, 64, 65, 66, 67, 68, 69, 70, 71, 72, 73, 74, 75, 76, 77, 78, 79, 80, 81, 82, 83, 84, 85, 86, 87, 88, 89, 90, 91, 92, 93, 94, 95, 96, 97, 98, 99, 100, 101, 102, 103, 104, 105, 106, 107, 108, 109, 110, 111, 112, 113, 114, 115, 116, 117, 118, 119, 120, 121, 122, 123, 124, 125, 126, 127, 128, 129, 130, 131, 132, 133, 134, 135, 136, 137, 138, 139, 140, 141, 142, 143, 144, 145, 146, 147, 148, 149, 150, 151, 152, 153, 154, 155, 156, 157, 158, 159, 160, 161, 162, 163, 164, 165, 166, 167, 168, 169, 170, 171, 172, 173, 174, 175, 176, 177, 178, 179, 180, 181, 182, 183, 184, 185, 186, 187, 188, 189, 190, 191, 192, 193, 194, 195, 196, 197, 198, 199, 200],
      "AcquisitionTime": ["092322.425000", "092324.425000", "092326.425000", "092328.425000", "092330.425000", "092332.425000", "092334.425000", "092336.425000", "092338.425000", "092340.425000", "092342.425000", "092344.425000", "092346.425000", "092348.425000", "092350.425000", "092352.425000", "092354.425000", "092356.425000", "092358.425000", "092400.425000", "092402.425000", "092404.425000", "092406.425000", "092408.425000", "092410.425000", "092412.425000", "092414.425000", "092416.425000", "092418.425000", "092420.425000", "092422.425000", "092424.425000", "092426.425000", "092428.425000", "092430.425000", "092432.425000", "092434.425000", "092436.425000", "092438.425000", "092440.425000", "092442.425000", "092444.425000", "092446.425000", "092448.425000", "092450.425000", "092452.425000", "092454.425000", "092456.425000", "092458.425000", "092500.425000", "092502.425000", "092504.425000", "092506.425000", "092508.425000", "092510.425000", "092512.425000", "092514.425000", "092516.425000", "092518.425000", "092520.425000", "092522.425000", "092524.425000", "092526.425000", "092528.425000", "092530.425000", "092532.425000", "092534.425000", "092536.425000", "092538.425000", "092540.425000", "092542.425000", "092544.425000", "092546.425000", "092548.425000", "092550.425000", "092552.425000", "092554.425000", "092556.425000", "092558.425000", "092600.425000", "092602.425000", "092604.425000", "092606.425000", "092608.425000", "092610.425000", "092612.425000", "092614.425000", "092616.425000", "092618.425000", "092620.425000", "092622.425000", "092624.425000", "092626.425000", "092628.425000", "092630.425000", "092632.425000", "092634.425000", "092636.425000", "092638.425000", "092640.425000", "092642.425000", "092644.425000", "092646.425000", "092648.425000", "092650.425000", "092652.425000", "092654.425000", "092656.425000", "092658.425000", "092700.425000", "092702.425000", "092704.425000", "092706.425000", "092708.425000", "092710.425000", "092712.425000", "092714.425000", "092716.425000", "092718.425000", "092720.425000", "092722.425000", "092724.425000", "092726.425000", "092728.425000", "092730.425000", "092732.425000", "092734.425000", "092736.425000", "092738.425000", "092740.425000", "092742.425000", "092744.425000", "092746.425000", "092748.425000", "092750.425000", "092752.425000", "092754.425000", "092756.425000", "092758.425000", "092800.425000", "092802.425000", "092804.425000", "092806.425000", "092808.425000", "092810.425000", "092812.425000", "092814.425000", "092816.425000", "092818.425000", "092820.425000", "092822.425000", "092824.425000", "092826.425000", "092828.425000", "092830.425000", "092832.425000", "092834.425000", "092836.425000", "092838.425000", "092840.425000", "092842.425000", "092844.425000", "092846.425000", "092848.425000", "092850.425000", "092852.425000", "092854.425000", "092856.425000", "092858.425000", "092900.425000", "092902.425000", "092904.425000", "092906.425000", "092908.425000", "092910.425000", "092912.425000", "092914.425000", "092916.425000", "092918.425000", "092920.425000", "092922.425000", "092924.425000", "092926.425000", "092928.425000", "092930.425000", "092932.425000", "092934.425000", "092936.425000", "092938.425000", "092940.425000", "092942.425000", "092944.425000", "092946.425000", "092948.425000", "092950.425000", "092952.425000", "092954.425000", "092956.425000", "092958.425000", "093000.425000"],
      "ContentTime": ["092408.958000", "092408.961000", "092408.964000", "092408.966000", "092408.968000", "092408.970000", "092408.973000", "092408.975000", "092408.977000", "092408.980000", "092408.982000", "092408.994000", "092408.996000", "092408.998000", "092409.002000", "092409.004000", "092409.006000", "092409.008000", "092409.011000", "092409.013000", "092409.015000", "092409.018000", "092409.020000", "092448.954000", "092448.957000", "092448.959000", "092448.961000", "092448.964000", "092448.966000", "092448.968000", "092448.970000", "092448.973000", "092448.975000", "092448.977000", "092448.979000", "092448.982000", "092448.984000", "092448.986000", "092448.988000", "092448.991000", "092448.993000", "092448.995000", "092448.998000", "092528.954000", "092528.957000", "092528.959000", "092528.961000", "092528.964000", "092528.966000", "092528.968000", "092528.970000", "092528.973000", "092528.975000", "092528.977000", "092528.979000", "092528.982000", "092528.984000", "092528.986000", "092528.988000", "092528.991000", "092528.993000", "092528.995000", "092528.998000", "092608.954000", "092608.957000", "092608.959000", "092608.961000", "092608.964000", "092608.966000", "092608.968000", "092608.971000", "092608.973000", "092608.975000", "092608.977000", "092608.980000", "092608.982000", "092608.984000", "092608.986000", "092608.989000", "092608.991000", "092608.993000", "092608.995000", "092608.998000", "092648.953000", "092648.956000", "092648.958000", "092648.960000", "092648.963000", "092648.965000", "092648.967000", "092648.970000", "092648.972000", "092648.974000", "092648.976000", "092648.979000", "092648.981000", "092648.983000", "092648.986000", "092648.988000", "092648.990000", "092648.992000", "092648.995000", "092648.997000", "092728.954000", "092728.957000", "092728.959000", "092728.961000", "092728.964000", "092728.966000", "092728.976000", "092728.978000", "092728.981000", "092728.983000", "092728.985000", "092728.988000", "092728.990000", "092728.992000", "092728.995000", "092728.997000", "092729.000000", "092729.002000", "092729.005000", "092729.007000", "092808.954000", "092808.957000", "092808.959000", "092808.961000", "092808.964000", "092808.966000", "092808.968000", "092808.970000", "092808.973000", "092808.975000", "092808.977000", "092808.980000", "092808.982000", "092808.984000", "092808.987000", "092808.989000", "092808.991000", "092808.993000", "092808.996000", "092808.998000", "092848.953000", "092848.956000", "092848.958000", "092848.961000", "092848.963000", "092848.965000", "092848.967000", "092848.970000", "092848.972000", "092848.974000", "092848.977000", "092848.979000", "092848.981000", "092848.984000", "092848.986000", "092848.988000", "092848.990000", "092848.993000", "092848.995000", "092848.997000", "092928.954000", "092928.957000", "092928.959000", "092928.961000", "092928.964000", "092928.966000", "092928.968000", "092928.971000", "092928.973000", "092928.975000", "092928.977000", "092928.980000", "092928.982000", "092928.984000", "092928.987000", "092928.989000", "092928.991000", "092928.994000", "092928.996000", "092928.998000", "093002.148000", "093002.151000", "093002.153000", "093002.156000", "093002.158000", "093002.161000", "093002.163000", "093002.165000", "093002.168000", "093002.170000", "093002.172000", "093002.175000", "093002.177000", "093002.181000", "093002.184000", "093002.188000", "093002.193000"],
      "InstanceCreationTime": ["092408.958000", "092408.961000", "092408.964000", "092408.966000", "092408.968000", "092408.970000", "092408.973000", "092408.975000", "092408.977000", "092408.980000", "092408.982000", "092408.994000", "092408.996000", "092408.998000", "092409.002000", "092409.004000", "092409.006000", "092409.008000", "092409.011000", "092409.013000", "092409.015000", "092409.018000", "092409.020000", "092448.954000", "092448.957000", "092448.959000", "092448.961000", "092448.964000", "092448.966000", "092448.968000", "092448.970000", "092448.973000", "092448.975000", "092448.977000", "092448.979000", "092448.982000", "092448.984000", "092448.986000", "092448.988000", "092448.991000", "092448.993000", "092448.995000", "092448.998000", "092528.954000", "092528.957000", "092528.959000", "092528.961000", "092528.964000", "092528.966000", "092528.968000", "092528.970000", "092528.973000", "092528.975000", "092528.977000", "092528.979000", "092528.982000", "092528.984000", "092528.986000", "092528.988000", "092528.991000", "092528.993000", "092528.995000", "092528.998000", "092608.954000", "092608.957000", "092608.959000", "092608.961000", "092608.964000", "092608.966000", "092608.968000", "092608.971000", "092608.973000", "092608.975000", "092608.977000", "092608.980000", "092608.982000", "092608.984000", "092608.986000", "092608.989000", "092608.991000", "092608.993000", "092608.995000", "092608.998000", "092648.953000", "092648.956000", "092648.958000", "092648.960000", "092648.963000", "092648.965000", "092648.967000", "092648.970000", "092648.972000", "092648.974000", "092648.976000", "092648.979000", "092648.981000", "092648.983000", "092648.986000", "092648.988000", "092648.990000", "092648.992000", "092648.995000", "092648.997000", "092728.954000", "092728.957000", "092728.959000", "092728.961000", "092728.964000", "092728.966000", "092728.976000", "092728.978000", "092728.981000", "092728.983000", "092728.985000", "092728.988000", "092728.990000", "092728.992000", "092728.995000", "092728.997000", "092729.000000", "092729.002000", "092729.005000", "092729.007000", "092808.954000", "092808.957000", "092808.959000", "092808.961000", "092808.964000", "092808.966000", "092808.968000", "092808.970000", "092808.973000", "092808.975000", "092808.977000", "092808.980000", "092808.982000", "092808.984000", "092808.987000", "092808.989000", "092808.991000", "092808.993000", "092808.996000", "092808.998000", "092848.953000", "092848.956000", "092848.958000", "092848.961000", "092848.963000", "092848.965000", "092848.967000", "092848.970000", "092848.972000", "092848.974000", "092848.977000", "092848.979000", "092848.981000", "092848.984000", "092848.986000", "092848.988000", "092848.990000", "092848.993000", "092848.995000", "092848.997000", "092928.954000", "092928.957000", "092928.959000", "092928.961000", "092928.964000", "092928.966000", "092928.968000", "092928.971000", "092928.973000", "092928.975000", "092928.977000", "092928.980000", "092928.982000", "092928.984000", "092928.987000", "092928.989000", "092928.991000", "092928.994000", "092928.996000", "092928.998000", "093002.148000", "093002.151000", "093002.153000", "093002.156000", "093002.158000", "093002.161000", "093002.163000", "093002.165000", "093002.168000", "093002.170000", "093002.172000", "093002.175000", "093002.177000", "093002.181000", "093002.184000", "093002.188000", "093002.193000"],
      "InstanceNumber": [1, 2, 3, 4, 5, 6, 7, 8, 9, 10, 11, 12, 13, 14, 15, 16, 17, 18, 19, 20, 21, 22, 23, 24, 25, 26, 27, 28, 29, 30, 31, 32, 33, 34, 35, 36, 37, 38, 39, 40, 41, 42, 43, 44, 45, 46, 47, 48, 49, 50, 51, 52, 53, 54, 55, 56, 57, 58, 59, 60, 61, 62, 63, 64, 65, 66, 67, 68, 69, 70, 71, 72, 73, 74, 75, 76, 77, 78, 79, 80, 81, 82, 83, 84, 85, 86, 87, 88, 89, 90, 91, 92, 93, 94, 95, 96, 97, 98, 99, 100, 101, 102, 103, 104, 105, 106, 107, 108, 109, 110, 111, 112, 113, 114, 115, 116, 117, 118, 119, 120, 121, 122, 123, 124, 125, 126, 127, 128, 129, 130, 131, 132, 133, 134, 135, 136, 137, 138, 139, 140, 141, 142, 143, 144, 145, 146, 147, 148, 149, 150, 151, 152, 153, 154, 155, 156, 157, 158, 159, 160, 161, 162, 163, 164, 165, 166, 167, 168, 169, 170, 171, 172, 173, 174, 175, 176, 177, 178, 179, 180, 181, 182, 183, 184, 185, 186, 187, 188, 189, 190, 191, 192, 193, 194, 195, 196, 197, 198, 199, 200],
      "WindowCenter": [1490.0, 1490.0, 1490.0, 1490.0, 1490.0, 1490.0, 1490.0, 1490.0, 1490.0, 1490.0, 1489.0, 1489.0, 1488.0, 1488.0, 1488.0, 1489.0, 1489.0, 1488.0, 1489.0, 1489.0, 1488.0, 1488.0, 1488.0, 1489.0, 1489.0, 1488.0, 1488.0, 1488.0, 1488.0, 1488.0, 1488.0, 1488.0, 1488.0, 1488.0, 1488.0, 1489.0, 1488.0, 1488.0, 1488.0, 1489.0, 1488.0, 1487.0, 1489.0, 1488.0, 1488.0, 1488.0, 1488.0, 1488.0, 1487.0, 1487.0, 1487.0, 1488.0, 1487.0, 1487.0, 1487.0, 1488.0, 1488.0, 1488.0, 1488.0, 1487.0, 1487.0, 1487.0, 1487.0, 1487.0, 1487.0, 1487.0, 1487.0, 1488.0, 1487.0, 1487.0, 1487.0, 1487.0, 1487.0, 1486.0, 1487.0, 1486.0, 1486.0, 1487.0, 1487.0, 1487.0, 1487.0, 1487.0, 1486.0, 1487.0, 1487.0, 1487.0, 1487.0, 1487.0, 1486.0, 1486.0, 1486.0, 1487.0, 1486.0, 1486.0, 1486.0, 1486.0, 1485.0, 1486.0, 1486.0, 1486.0, 1486.0, 1486.0, 1486.0, 1486.0, 1486.0, 1487.0, 1485.0, 1486.0, 1485.0, 1486.0, 1485.0, 1486.0, 1486.0, 1486.0, 1486.0, 1485.0, 1485.0, 1485.0, 1486.0, 1485.0, 1485.0, 1485.0, 1485.0, 1485.0, 1485.0, 1485.0, 1484.0, 1485.0, 1485.0, 1484.0, 1485.0, 1485.0, 1484.0, 1484.0, 1484.0, 1484.0, 1484.0, 1484.0, 1485.0, 1484.0, 1484.0, 1484.0, 1485.0, 1485.0, 1484.0, 1484.0, 1484.0, 1484.0, 1485.0, 1484.0, 1483.0, 1484.0, 1484.0, 1484.0, 1484.0, 1484.0, 1484.0, 1484.0, 1484.0, 1484.0, 1484.0, 1483.0, 1484.0, 1484.0, 1484.0, 1484.0, 1484.0, 1483.0, 1483.0, 1483.0, 1483.0, 1484.0, 1483.0, 1483.0, 1483.0, 1483.0, 1483.0, 1483.0, 1483.0, 1483.0, 1483.0, 1483.0, 1483.0, 1483.0, 1483.0, 1483.0, 1483.0, 1483.0, 1483.0, 1482.0, 1481.0, 1482.0, 1483.0, 1482.0, 1482.0, 1482.0, 1483.0, 1483.0, 1482.0, 1482.0],
      "WindowWidth": [3458.0, 3458.0, 3458.0, 3458.0, 3458.0, 3458.0, 3458.0, 3458.0, 3457.0, 3458.0, 3458.0, 3457.0, 3457.0, 3457.0, 3457.0, 3457.0, 3457.0, 3457.0, 3457.0, 3456.0, 3456.0, 3456.0, 3456.0, 3456.0, 3456.0, 3456.0, 3456.0, 3456.0, 3456.0, 3456.0, 3456.0, 3456.0, 3456.0, 3456.0, 3456.0, 3455.0, 3456.0, 3456.0, 3456.0, 3455.0, 3456.0, 3456.0, 3455.0, 3455.0, 3455.0, 3455.0, 3455.0, 3455.0, 3455.0, 3455.0, 3455.0, 3454.0, 3455.0, 3455.0, 3455.0, 3454.0, 3454.0, 3454.0, 3454.0, 3454.0, 3454.0, 3454.0, 3454.0, 3454.0, 3454.0, 3454.0, 3454.0, 3454.0, 3454.0, 3454.0, 3454.0, 3454.0, 3454.0, 3454.0, 3454.0, 3454.0, 3454.0, 3454.0, 3453.0, 3453.0, 3453.0, 3453.0, 3453.0, 3453.0, 3453.0, 3453.0, 3453.0, 3453.0, 3453.0, 3453.0, 3453.0, 3453.0, 3453.0, 3453.0, 3453.0, 3453.0, 3453.0, 3453.0, 3453.0, 3453.0, 3453.0, 3453.0, 3453.0, 3453.0, 3452.0, 3452.0, 3452.0, 3453.0, 3452.0, 3452.0, 3452.0, 3452.0, 3452.0, 3452.0, 3452.0, 3452.0, 3452.0, 3452.0, 3452.0, 3452.0, 3452.0, 3452.0, 3452.0, 3452.0, 3452.0, 3452.0, 3452.0, 3452.0, 3452.0, 3452.0, 3451.0, 3451.0, 3452.0, 3452.0, 3452.0, 3451.0, 3451.0, 3451.0, 3451.0, 3451.0, 3451.0, 3451.0, 3451.0, 3451.0, 3451.0, 3451.0, 3451.0, 3451.0, 3451.0, 3451.0, 3451.0, 3451.0, 3451.0, 3451.0, 3451.0, 3451.0, 3451.0, 3451.0, 3451.0, 3451.0, 3451.0, 3451.0, 3451.0, 3451.0, 3451.0, 3450.0, 3451.0, 3451.0, 3451.0, 3451.0, 3451.0, 3450.0, 3451.0, 3450.0, 3451.0, 3451.0, 3451.0, 3450.0, 3450.0, 3450.0, 3450.0, 3450.0, 3450.0, 3450.0, 3450.0, 3451.0, 3450.0, 3450.0, 3450.0, 3450.0, 3451.0, 3450.0, 3450.0, 3450.0, 3450.0, 3450.0, 3450.0, 3450.0, 3450.0, 3450.0]
    },
    "slices": {}
  }
}