{
  "AcquisitionMatrixPE": 80,
  "AcquisitionNumber": 1,
  "AcquisitionTime": "09:16:31.737500",
  "BandwidthPerPixelPhaseEncode": 48.077,
  "BaseResolution": 80,
  "BodyPartExamined": "BRAIN",
  "CoilCombinationMethod": "Sum of Squares",
  "ConsistencyInfo": "N4_VE11E_LATEST_20181129",
  "ConversionSoftware": "dcm2niix",
  "ConversionSoftwareVersion": "v1.0.20220720",
  "DerivedVendorReportedEchoSpacing": 0.000519999,
  "DeviceSerialNumber": "66112",
  "DwellTime": 2.7e-06,
  "EchoTime": 0.035,
  "EchoTrainLength": 39,
  "EffectiveEchoSpacing": 0.00026,
  "FlipAngle": 90,
  "HeudiconvVersion": "0.13.1",
  "ImageOrientationPatientDICOM": [0.990832, 0.135027, 0.00448109, -0.12939, 0.938884, 0.318992],
  "ImageOrientationText": "Tra>Cor(18.5)>Sag(-2.2)",
  "ImageType": [
    "ORIGINAL",
    "PRIMARY",
    "M",
    "ND",
    "NORM",
    "MOSAIC"
],
  "ImagingFrequency": 123.259,
  "InPlanePhaseEncodingDirectionDICOM": "COL",
  "InstitutionAddress": "Maynard 3,Hanover,NH,US,03755",
  "InstitutionName": "Dartmouth College - PBS",
  "InstitutionalDepartmentName": "Department",
  "MRAcquisitionType": "2D",
  "MagneticFieldStrength": 3,
  "Manufacturer": "Siemens",
  "ManufacturersModelName": "Prisma",
  "MatrixCoilMode": "GRAPPA",
  "Modality": "MR",
  "NonlinearGradientCorrection": false,
  "ParallelReductionFactorInPlane": 2,
  "PartialFourier": 1,
  "PatientPosition": "HFS",
  "PercentPhaseFOV": 100,
  "PercentSampling": 100,
  "PhaseEncodingDirection": "j-",
  "PhaseEncodingSteps": 79,
  "PhaseResolution": 1,
  "PixelBandwidth": 2315,
  "ProcedureStepDescription": "dbic^QA",
  "ProtocolName": "func-bold_task-rest_acq-p2",
  "PulseSequenceDetails": "%SiemensSeq%\\ep2d_bold",
  "ReceiveCoilActiveElements": "HC1-7;NC1,2",
  "ReceiveCoilName": "HeadNeck_64",
  "ReconMatrixPE": 80,
  "RefLinesPE": 24,
  "RepetitionTime": 2,
  "SAR": 0.0360453,
  "ScanOptions": "FS",
  "ScanningSequence": "EP",
  "SequenceName": "*epfid2d1_80",
  "SequenceVariant": "SK",
  "SeriesDescription": "func-bold_task-rest_acq-p2",
  "SeriesNumber": 5,
  "ShimSetting": [4217, -7725, -7484, -145, -170, -285, -85, 68],
  "SliceThickness": 3.5,
  "SliceTiming": [0.99, 0, 1.0575, 0.0675, 1.1225, 0.1325, 1.19, 0.2, 1.255, 0.265, 1.32, 0.33, 1.3875, 0.3975, 1.4525, 0.4625, 1.52, 0.53, 1.585, 0.595, 1.65, 0.66, 1.7175, 0.7275, 1.7825, 0.7925, 1.85, 0.86, 1.915, 0.925],
  "SoftwareVersions": "syngo MR E11",
  "SpacingBetweenSlices": 3.99,
  "StationName": "AWP66112",
  "TaskName": "rest",
  "TotalReadoutTime": 0.02054,
  "TxRefAmp": 215.698,
  "dcmmeta_affine": [
    [-2.9724955558776855, -0.3881702125072479, -0.15507228672504425, 139.60231018066406],
    [-0.4050801694393158, 2.816650629043579, 1.2634227275848389, -116.2413101196289],
    [0.01344326138496399, -0.9569762349128723, 3.7815096378326416, -26.10672378540039],
    [0.0, 0.0, 0.0, 1.0]
],
  "dcmmeta_reorient_transform": [
    [0.0, -1.0, 0.0, 79.0],
    [1.0, 0.0, 0.0, 0.0],
    [0.0, 0.0, 1.0, 0.0],
    [0.0, 0.0, 0.0, 1.0]
],
  "dcmmeta_shape": [80, 80, 30, 200],
  "dcmmeta_slice_dim": 2,
  "dcmmeta_version": 0.6,
  "global": {
    "const": {
      "AccessionNumber": "qa64",
      "AcquisitionMatrix": [80, 0, 0, 80],
      "AngioFlag": "N",
      "BitsAllocated": 16,
      "BitsStored": 12,
      "BodyPartExamined": "BRAIN",
      "Columns": 480,
      "EchoNumbers": 1,
      "EchoTime": 35.0,
      "EchoTrainLength": 39,
      "FlipAngle": 90.0,
      "HighBit": 11,
      "ImageOrientationPatient": [0.99083182433399, 0.13502672233407, 0.00448108722289, -0.1293900664338, 0.93888351906464, 0.31899208193472],
      "ImagePositionPatient": [-625.80192133615, -750.62022953522, -295.79174929836],
      "ImageType": [
        "ORIGINAL",
        "PRIMARY",
        "M",
        "ND",
        "NORM",
        "MOSAIC"
],
      "ImagedNucleus": "1H",
      "ImagingFrequency": 123.259285,
      "InPlanePhaseEncodingDirection": "COL",
      "LargestImagePixelValue": 4095,
      "MRAcquisitionType": "2D",
      "MagneticFieldStrength": 3.0,
      "Manufacturer": "SIEMENS",
      "ManufacturerModelName": "Prisma",
      "Modality": "MR",
      "NumberOfAverages": 1.0,
      "NumberOfPhaseEncodingSteps": 79,
      "PercentPhaseFieldOfView": 100.0,
      "PercentSampling": 100.0,
      "PerformedProcedureStepStartTime": "091444.476000",
      "PhotometricInterpretation": "MONOCHROME2",
      "PixelBandwidth": 2315.0,
      "PixelRepresentation": 0,
      "PixelSpacing": [3.0, 3.0],
      "ProtocolName": "func-bold_task-rest_acq-p2",
      "RepetitionTime": 2000.0,
      "Rows": 480,
      "SAR": 0.0360453110321,
      "SamplesPerPixel": 1,
      "ScanOptions": "FS",
      "ScanningSequence": "EP",
      "SequenceName": "*epfid2d1_80",
      "SequenceVariant": "SK",
      "SeriesDescription": "func-bold_task-rest_acq-p2",
      "SeriesNumber": 5,
      "SeriesTime": "091728.861000",
      "SliceLocation": -66.975739456749,
      "SliceThickness": 3.5,
      "SmallestImagePixelValue": 0,
      "SoftwareVersions": "syngo MR E11",
      "SpacingBetweenSlices": 3.9899999796715,
      "SpecificCharacterSet": "ISO_IR 100",
      "StudyID": "23",
      "StudyTime": "091444.404000",
      "TransmitCoilName": "Body",
      "VariableFlipAngleFlag": "N",
      "WindowCenterWidthExplanation": "Algo1"
    },
    "slices": {}
  },
  "time": {
    "samples": {
      "AcquisitionNumber": [1, 2, 3, 4, 5, 6, 7, 8, 9, 10, 11, 12, 13, 14, 15, 16, 17, 18, 19, 20, 21, 22, 23, 24, 25, 26, 27, 28, 29, 30, 31, 32, 33, 34, 35, 36, 37, 38, 39, 40, 41, 42, 43, 44, 45, 46, 47, 48, 49, 50, 51, 52, 53, 54, 55, 56, 57, 58, 59, 60, 61, 62, 63, 64, 65, 66, 67, 68, 69, 70, 71, 72, 73, 74, 75, 76, 77, 78, 79, 80, 81, 82, 83, 84, 85, 86, 87, 88, 89, 90, 91, 92, 93, 94, 95, 96, 97, 98, 99, 100, 101, 102, 103, 104, 105, 106, 107, 108, 109, 110, 111, 112, 113, 114, 115, 116, 117, 118, 119, 120, 121, 122, 123, 124, 125, 126, 127, 128, 129, 130, 131, 132, 133, 134, 135, 136, 137, 138, 139, 140, 141, 142, 143, 144, 145, 146, 147, 148, 149, 150, 151, 152, 153, 154, 155, 156, 157, 158, 159, 160, 161, 162, 163, 164, 165, 166, 167, 168, 169, 170, 171, 172, 173, 174, 175, 176, 177, 178, 179, 180, 181, 182, 183, 184, 185, 186, 187, 188, 189, 190, 191, 192, 193, 194, 195, 196, 197, 198, 199, 200],
      "AcquisitionTime": ["091631.737500", "091633.737500", "091635.737500", "091637.737500", "091639.737500", "091641.737500", "091643.737500", "091645.737500", "091647.737500", "091649.737500", "091651.737500", "091653.737500", "091655.737500", "091657.737500", "091659.737500", "091701.737500", "091703.737500", "091705.737500", "091707.737500", "091709.737500", "091711.737500", "091713.737500", "091715.737500", "091717.737500", "091719.737500", "091721.737500", "091723.737500", "091725.737500", "091727.737500", "091729.737500", "091731.737500", "091733.737500", "091735.737500", "091737.737500", "091739.737500", "091741.737500", "091743.737500", "091745.737500", "091747.737500", "091749.737500", "091751.737500", "091753.737500", "091755.737500", "091757.737500", "091759.737500", "091801.737500", "091803.737500", "091805.737500", "091807.737500", "091809.737500", "091811.737500", "091813.737500", "091815.737500", "091817.737500", "091819.737500", "091821.737500", "091823.737500", "091825.737500", "091827.737500", "091829.737500", "091831.737500", "091833.737500", "091835.737500", "091837.737500", "091839.737500", "091841.737500", "091843.737500", "091845.737500", "091847.737500", "091849.737500", "091851.737500", "091853.737500", "091855.737500", "091857.737500", "091859.737500", "091901.737500", "091903.737500", "091905.737500", "091907.737500", "091909.737500", "091911.737500", "091913.737500", "091915.737500", "091917.737500", "091919.737500", "091921.737500", "091923.737500", "091925.737500", "091927.737500", "091929.737500", "091931.737500", "091933.737500", "091935.737500", "091937.737500", "091939.737500", "091941.737500", "091943.737500", "091945.737500", "091947.737500", "091949.737500", "091951.737500", "091953.737500", "091955.737500", "091957.737500", "091959.737500", "092001.737500", "092003.737500", "092005.737500", "092007.737500", "092009.737500", "092011.737500", "092013.737500", "092015.737500", "092017.737500", "092019.737500", "092021.737500", "092023.737500", "092025.737500", "092027.737500", "092029.737500", "092031.737500", "092033.737500", "092035.737500", "092037.737500", "092039.737500", "092041.737500", "092043.737500", "092045.737500", "092047.737500", "092049.737500", "092051.737500", "092053.737500", "092055.737500", "092057.737500", "092059.737500", "092101.737500", "092103.737500", "092105.737500", "092107.737500", "092109.737500", "092111.737500", "092113.737500", "092115.737500", "092117.737500", "092119.737500", "092121.737500", "092123.737500", "092125.737500", "092127.737500", "092129.737500", "092131.737500", "092133.737500", "092135.737500", "092137.737500", "092139.737500", "092141.737500", "092143.737500", "092145.737500", "092147.737500", "092149.737500", "092151.737500", "092153.737500", "092155.737500", "092157.737500", "092159.737500", "092201.737500", "092203.737500", "092205.737500", "092207.737500", "092209.737500", "092211.737500", "092213.737500", "092215.737500", "092217.737500", "092219.737500", "092221.737500", "092223.737500", "092225.737500", "092227.737500", "092229.737500", "092231.737500", "092233.737500", "092235.737500", "092237.737500", "092239.737500", "092241.737500", "092243.737500", "092245.737500", "092247.737500", "092249.737500", "092251.737500", "092253.737500", "092255.737500", "092257.737500", "092259.737500", "092301.737500", "092303.737500", "092305.737500", "092307.737500", "092309.737500"],
      "ContentTime": ["091728.865000", "091728.868000", "091728.870000", "091728.872000", "091728.875000", "091728.877000", "091728.880000", "091728.882000", "091728.884000", "091728.886000", "091728.889000", "091728.891000", "091728.893000", "091728.896000", "091728.898000", "091728.908000", "091728.910000", "091728.912000", "091728.915000", "091728.917000", "091728.919000", "091728.922000", "091728.924000", "091728.927000", "091728.929000", "091728.931000", "091728.933000", "091728.936000", "091808.860000", "091808.863000", "091808.865000", "091808.867000", "091808.870000", "091808.872000", "091808.874000", "091808.877000", "091808.879000", "091808.881000", "091808.884000", "091808.886000", "091808.888000", "091808.899000", "091808.902000", "091808.904000", "091808.906000", "091808.909000", "091808.911000", "091808.913000", "091848.860000", "091848.863000", "091848.865000", "091848.867000", "091848.870000", "091848.872000", "091848.874000", "091848.877000", "091848.879000", "091848.881000", "091848.884000", "091848.886000", "091848.888000", "091848.891000", "091848.893000", "091848.895000", "091848.897000", "091848.900000", "091848.902000", "091848.904000", "091928.859000", "091928.862000", "091928.864000", "091928.867000", "091928.869000", "091928.871000", "091928.873000", "091928.876000", "091928.878000", "091928.880000", "091928.883000", "091928.885000", "091928.887000", "091928.890000", "091928.892000", "091928.894000", "091928.897000", "091928.899000", "091928.901000", "091928.903000", "092008.860000", "092008.863000", "092008.865000", "092008.867000", "092008.870000", "092008.872000", "092008.874000", "092008.877000", "092008.879000", "092008.891000", "092008.894000", "092008.896000", "092008.898000", "092008.901000", "092008.903000", "092008.905000", "092008.908000", "092008.910000", "092008.912000", "092008.914000", "092048.860000", "092048.863000", "092048.865000", "092048.867000", "092048.870000", "092048.872000", "092048.874000", "092048.876000", "092048.879000", "092048.881000", "092048.883000", "092048.886000", "092048.888000", "092048.890000", "092048.893000", "092048.895000", "092048.897000", "092048.900000", "092048.902000", "092048.904000", "092108.860000", "092108.868000", "092108.870000", "092108.873000", "092108.875000", "092108.877000", "092108.898000", "092108.900000", "092108.903000", "092108.905000", "092148.859000", "092148.862000", "092148.864000", "092148.866000", "092148.869000", "092148.871000", "092148.873000", "092148.876000", "092148.878000", "092148.880000", "092148.883000", "092148.885000", "092148.887000", "092148.890000", "092148.892000", "092148.894000", "092148.896000", "092148.899000", "092148.901000", "092148.903000", "092228.860000", "092228.863000", "092228.865000", "092228.867000", "092228.870000", "092228.902000", "092228.904000", "092228.906000", "092228.909000", "092228.911000", "092228.913000", "092228.916000", "092228.918000", "092228.920000", "092228.923000", "092228.925000", "092228.927000", "092228.929000", "092228.932000", "092228.934000", "092308.860000", "092308.863000", "092308.865000", "092308.867000", "092308.870000", "092308.872000", "092308.874000", "092308.877000", "092308.879000", "092308.881000", "092308.884000", "092308.886000", "092308.888000", "092308.891000", "092308.893000", "092308.895000", "092308.897000", "092308.900000", "092308.902000", "092308.904000", "092311.351000", "092311.358000"],
      "InstanceCreationTime": ["091728.865000", "091728.868000", "091728.870000", "091728.872000", "091728.875000", "091728.877000", "091728.880000", "091728.882000", "091728.884000", "091728.886000", "091728.889000", "091728.891000", "091728.893000", "091728.896000", "091728.898000", "091728.908000", "091728.910000", "091728.912000", "091728.915000", "091728.917000", "091728.919000", "091728.922000", "091728.924000", "091728.927000", "091728.929000", "091728.931000", "091728.933000", "091728.936000", "091808.860000", "091808.863000", "091808.865000", "091808.867000", "091808.870000", "091808.872000", "091808.874000", "091808.877000", "091808.879000", "091808.881000", "091808.884000", "091808.886000", "091808.888000", "091808.899000", "091808.902000", "091808.904000", "091808.906000", "091808.909000", "091808.911000", "091808.913000", "091848.860000", "091848.863000", "091848.865000", "091848.867000", "091848.870000", "091848.872000", "091848.874000", "091848.877000", "091848.879000", "091848.881000", "091848.884000", "091848.886000", "091848.888000", "091848.891000", "091848.893000", "091848.895000", "091848.897000", "091848.900000", "091848.902000", "091848.904000", "091928.859000", "091928.862000", "091928.864000", "091928.867000", "091928.869000", "091928.871000", "091928.873000", "091928.876000", "091928.878000", "091928.880000", "091928.883000", "091928.885000", "091928.887000", "091928.890000", "091928.892000", "091928.894000", "091928.897000", "091928.899000", "091928.901000", "091928.903000", "092008.860000", "092008.863000", "092008.865000", "092008.867000", "092008.870000", "092008.872000", "092008.874000", "092008.877000", "092008.879000", "092008.891000", "092008.894000", "092008.896000", "092008.898000", "092008.901000", "092008.903000", "092008.905000", "092008.908000", "092008.910000", "092008.912000", "092008.914000", "092048.860000", "092048.863000", "092048.865000", "092048.867000", "092048.870000", "092048.872000", "092048.874000", "092048.876000", "092048.879000", "092048.881000", "092048.883000", "092048.886000", "092048.888000", "092048.890000", "092048.893000", "092048.895000", "092048.897000", "092048.900000", "092048.902000", "092048.904000", "092108.860000", "092108.868000", "092108.870000", "092108.873000", "092108.875000", "092108.877000", "092108.898000", "092108.900000", "092108.903000", "092108.905000", "092148.859000", "092148.862000", "092148.864000", "092148.866000", "092148.869000", "092148.871000", "092148.873000", "092148.876000", "092148.878000", "092148.880000", "092148.883000", "092148.885000", "092148.887000", "092148.890000", "092148.892000", "092148.894000", "092148.896000", "092148.899000", "092148.901000", "092148.903000", "092228.860000", "092228.863000", "092228.865000", "092228.867000", "092228.870000", "092228.902000", "092228.904000", "092228.906000", "092228.909000", "092228.911000", "092228.913000", "092228.916000", "092228.918000", "092228.920000", "092228.923000", "092228.925000", "092228.927000", "092228.929000", "092228.932000", "092228.934000", "092308.860000", "092308.863000", "092308.865000", "092308.867000", "092308.870000", "092308.872000", "092308.874000", "092308.877000", "092308.879000", "092308.881000", "092308.884000", "092308.886000", "092308.888000", "092308.891000", "092308.893000", "092308.895000", "092308.897000", "092308.900000", "092308.902000", "092308.904000", "092311.351000", "092311.358000"],
      "InstanceNumber": [1, 2, 3, 4, 5, 6, 7, 8, 9, 10, 11, 12, 13, 14, 15, 16, 17, 18, 19, 20, 21, 22, 23, 24, 25, 26, 27, 28, 29, 30, 31, 32, 33, 34, 35, 36, 37, 38, 39, 40, 41, 42, 43, 44, 45, 46, 47, 48, 49, 50, 51, 52, 53, 54, 55, 56, 57, 58, 59, 60, 61, 62, 63, 64, 65, 66, 67, 68, 69, 70, 71, 72, 73, 74, 75, 76, 77, 78, 79, 80, 81, 82, 83, 84, 85, 86, 87, 88, 89, 90, 91, 92, 93, 94, 95, 96, 97, 98, 99, 100, 101, 102, 103, 104, 105, 106, 107, 108, 109, 110, 111, 112, 113, 114, 115, 116, 117, 118, 119, 120, 121, 122, 123, 124, 125, 126, 127, 128, 129, 130, 131, 132, 133, 134, 135, 136, 137, 138, 139, 140, 141, 142, 143, 144, 145, 146, 147, 148, 149, 150, 151, 152, 153, 154, 155, 156, 157, 158, 159, 160, 161, 162, 163, 164, 165, 166, 167, 168, 169, 170, 171, 172, 173, 174, 175, 176, 177, 178, 179, 180, 181, 182, 183, 184, 185, 186, 187, 188, 189, 190, 191, 192, 193, 194, 195, 196, 197, 198, 199, 200],
      "WindowCenter": [1608.0, 1607.0, 1606.0, 1607.0, 1606.0, 1607.0, 1606.0, 1606.0, 1606.0, 1606.0, 1606.0, 1605.0, 1605.0, 1605.0, 1605.0, 1605.0, 1605.0, 1604.0, 1604.0, 1604.0, 1604.0, 1603.0, 1604.0, 1603.0, 1604.0, 1604.0, 1603.0, 1602.0, 1604.0, 1603.0, 1603.0, 1602.0, 1603.0, 1602.0, 1602.0, 1603.0, 1603.0, 1602.0, 1602.0, 1602.0, 1602.0, 1602.0, 1602.0, 1601.0, 1601.0, 1601.0, 1601.0, 1601.0, 1601.0, 1601.0, 1600.0, 1600.0, 1601.0, 1600.0, 1600.0, 1600.0, 1599.0, 1600.0, 1600.0, 1601.0, 1600.0, 1600.0, 1600.0, 1601.0, 1599.0, 1600.0, 1599.0, 1599.0, 1600.0, 1599.0, 1599.0, 1598.0, 1599.0, 1599.0, 1599.0, 1598.0, 1598.0, 1598.0, 1599.0, 1599.0, 1598.0, 1598.0, 1597.0, 1598.0, 1599.0, 1597.0, 1598.0, 1597.0, 1597.0, 1597.0, 1597.0, 1598.0, 1597.0, 1598.0, 1597.0, 1598.0, 1597.0, 1597.0, 1597.0, 1597.0, 1597.0, 1597.0, 1596.0, 1597.0, 1597.0, 1596.0, 1597.0, 1597.0, 1597.0, 1597.0, 1596.0, 1597.0, 1595.0, 1597.0, 1595.0, 1595.0, 1595.0, 1595.0, 1597.0, 1595.0, 1596.0, 1595.0, 1595.0, 1596.0, 1596.0, 1596.0, 1595.0, 1596.0, 1595.0, 1595.0, 1595.0, 1595.0, 1595.0, 1595.0, 1595.0, 1594.0, 1596.0, 1595.0, 1595.0, 1595.0, 1594.0, 1595.0, 1594.0, 1594.0, 1595.0, 1595.0, 1594.0, 1594.0, 1594.0, 1595.0, 1594.0, 1594.0, 1595.0, 1594.0, 1594.0, 1594.0, 1594.0, 1595.0, 1595.0, 1593.0, 1595.0, 1594.0, 1594.0, 1593.0, 1593.0, 1594.0, 1594.0, 1594.0, 1593.0, 1593.0, 1593.0, 1594.0, 1593.0, 1593.0, 1593.0, 1593.0, 1593.0, 1593.0, 1593.0, 1594.0, 1593.0, 1593.0, 1592.0, 1593.0, 1592.0, 1592.0, 1592.0, 1593.0, 1593.0, 1593.0, 1593.0, 1592.0, 1592.0, 1593.0, 1592.0, 1592.0, 1593.0, 1593.0, 1593.0, 1593.0],
      "WindowWidth": [3514.0, 3514.0, 3514.0, 3513.0, 3513.0, 3513.0, 3513.0, 3513.0, 3513.0, 3513.0, 3513.0, 3513.0, 3513.0, 3513.0, 3513.0, 3513.0, 3512.0, 3513.0, 3512.0, 3512.0, 3512.0, 3512.0, 3512.0, 3512.0, 3512.0, 3512.0, 3512.0, 3512.0, 3512.0, 3512.0, 3512.0, 3512.0, 3512.0, 3511.0, 3511.0, 3511.0, 3511.0, 3511.0, 3511.0, 3511.0, 3511.0, 3511.0, 3511.0, 3511.0, 3511.0, 3511.0, 3511.0, 3511.0, 3511.0, 3510.0, 3510.0, 3510.0, 3510.0, 3510.0, 3510.0, 3510.0, 3510.0, 3510.0, 3510.0, 3510.0, 3510.0, 3510.0, 3510.0, 3509.0, 3510.0, 3509.0, 3510.0, 3509.0, 3509.0, 3509.0, 3509.0, 3509.0, 3509.0, 3509.0, 3509.0, 3509.0, 3509.0, 3509.0, 3508.0, 3508.0, 3509.0, 3509.0, 3509.0, 3508.0, 3508.0, 3509.0, 3508.0, 3509.0, 3509.0, 3509.0, 3509.0, 3508.0, 3508.0, 3508.0, 3508.0, 3508.0, 3508.0, 3508.0, 3508.0, 3508.0, 3508.0, 3508.0, 3508.0, 3507.0, 3507.0, 3508.0, 3507.0, 3507.0, 3507.0, 3507.0, 3507.0, 3507.0, 3508.0, 3507.0, 3507.0, 3507.0, 3507.0, 3507.0, 3507.0, 3507.0, 3506.0, 3507.0, 3507.0, 3507.0, 3506.0, 3506.0, 3507.0, 3506.0, 3506.0, 3506.0, 3506.0, 3506.0, 3506.0, 3506.0, 3506.0, 3506.0, 3506.0, 3506.0, 3506.0, 3506.0, 3506.0, 3506.0, 3506.0, 3506.0, 3506.0, 3506.0, 3505.0, 3505.0, 3506.0, 3506.0, 3505.0, 3505.0, 3505.0, 3505.0, 3505.0, 3505.0, 3505.0, 3505.0, 3505.0, 3505.0, 3505.0, 3505.0, 3505.0, 3505.0, 3505.0, 3505.0, 3505.0, 3505.0, 3505.0, 3505.0, 3505.0, 3504.0, 3505.0, 3505.0, 3505.0, 3505.0, 3504.0, 3505.0, 3504.0, 3504.0, 3504.0, 3504.0, 3504.0, 3504.0, 3504.0, 3504.0, 3504.0, 3504.0, 3504.0, 3504.0, 3504.0, 3504.0, 3504.0, 3504.0, 3504.0, 3504.0, 3504.0, 3503.0, 3504.0, 3503.0]
    },
    "slices": {}
  }
}