{
  "AcquisitionMatrixPE": 80,
  "AcquisitionNumber": 1,
  "AcquisitionTime": "09:30:9.502500",
  "BandwidthPerPixelPhaseEncode": 25,
  "BaseResolution": 80,
  "BodyPartExamined": "BRAIN",
  "CoilCombinationMethod": "Sum of Squares",
  "ConsistencyInfo": "N4_VE11E_LATEST_20181129",
  "ConversionSoftware": "dcm2niix",
  "ConversionSoftwareVersion": "v1.0.20220720",
  "DerivedVendorReportedEchoSpacing": 0.0005,
  "DeviceSerialNumber": "66112",
  "DwellTime": 2.7e-06,
  "EchoTime": 0.03,
  "EchoTrainLength": 80,
  "EffectiveEchoSpacing": 0.0005,
  "FlipAngle": 10,
  "HeudiconvVersion": "0.13.1",
  "ImageOrientationPatientDICOM": [0.990809, 0.135191, 0.00453676, -0.129563, 0.93886, 0.318991],
  "ImageOrientationText": "Tra>Cor(18.5)>Sag(-2.2)",
  "ImageType": [
    "ORIGINAL",
    "PRIMARY",
    "M",
    "ND",
    "NORM",
    "MOSAIC"
],
  "ImagingFrequency": 123.259,
  "InPlanePhaseEncodingDirectionDICOM": "COL",
  "InstitutionAddress": "Maynard 3,Hanover,NH,US,03755",
  "InstitutionName": "Dartmouth College - PBS",
  "InstitutionalDepartmentName": "Department",
  "MRAcquisitionType": "2D",
  "MagneticFieldStrength": 3,
  "Manufacturer": "Siemens",
  "ManufacturersModelName": "Prisma",
  "MatrixCoilMode": "SENSE",
  "Modality": "MR",
  "NonlinearGradientCorrection": false,
  "PartialFourier": 1,
  "PatientPosition": "HFS",
  "PercentPhaseFOV": 100,
  "PercentSampling": 100,
  "PhaseEncodingDirection": "j-",
  "PhaseEncodingSteps": 80,
  "PhaseResolution": 1,
  "PixelBandwidth": 2315,
  "ProcedureStepDescription": "dbic^QA",
  "ProtocolName": "func-bold_fa-10",
  "PulseSequenceDetails": "%SiemensSeq%\\ep2d_bold",
  "ReceiveCoilActiveElements": "HC1-7;NC1,2",
  "ReceiveCoilName": "HeadNeck_64",
  "ReconMatrixPE": 80,
  "RepetitionTime": 2,
  "SAR": 0.00759848,
  "ScanOptions": "FS",
  "ScanningSequence": "EP",
  "SequenceName": "*epfid2d1_80",
  "SequenceVariant": "SK",
  "SeriesDescription": "func-bold_fa-10",
  "SeriesNumber": 9,
  "ShimSetting": [4217, -7725, -7485, -146, -170, -286, -86, 68],
  "SliceThickness": 3.5,
  "SliceTiming": [0.99, 0, 1.055, 0.065, 1.1225, 0.1325, 1.1875, 0.1975, 1.2525, 0.265, 1.32, 0.33, 1.385, 0.395, 1.4525, 0.4625, 1.5175, 0.5275, 1.5825, 0.5925, 1.65, 0.66, 1.715, 0.725, 1.7825, 0.7925, 1.8475, 0.8575, 1.9125, 0.9225],
  "SoftwareVersions": "syngo MR E11",
  "SpacingBetweenSlices": 3.99,
  "StationName": "AWP66112",
  "TotalReadoutTime": 0.0395,
  "TxRefAmp": 215.698,
  "dcmmeta_affine": [
    [-2.9724276065826416, -0.3886891007423401, -0.15507234632968903, 137.24502563476562],
    [-0.4055718779563904, 2.816579818725586, 1.2634228467941284, -113.0750732421875],
    [0.013610288500785828, -0.9569739103317261, 3.7815098762512207, -27.938180923461914],
    [0.0, 0.0, 0.0, 1.0]
],
  "dcmmeta_reorient_transform": [
    [0.0, -1.0, 0.0, 79.0],
    [1.0, 0.0, 0.0, 0.0],
    [0.0, 0.0, 1.0, 0.0],
    [0.0, 0.0, 0.0, 1.0]
],
  "dcmmeta_shape": [80, 80, 30, 200],
  "dcmmeta_slice_dim": 2,
  "dcmmeta_version": 0.6,
  "global": {
    "const": {
      "AccessionNumber": "qa64",
      "AcquisitionMatrix": [80, 0, 0, 80],
      "AngioFlag": "N",
      "BitsAllocated": 16,
      "BitsStored": 12,
      "BodyPartExamined": "BRAIN",
      "Columns": 480,
      "EchoNumbers": 1,
      "EchoTime": 30.0,
      "EchoTrainLength": 80,
      "FlipAngle": 10.0,
      "HighBit": 11,
      "ImageOrientationPatient": [0.99080922151573, 0.13519062224699, 0.00453676270671, -0.1295630313962, 0.93885993228679, 0.31899129837955],
      "ImagePositionPatient": [-623.28630541474, -753.86506526469, -297.65595563006],
      "ImageType": [
        "ORIGINAL",
        "PRIMARY",
        "M",
        "ND",
        "NORM",
        "MOSAIC"
],
      "ImagedNucleus": "1H",
      "ImagingFrequency": 123.259284,
      "InPlanePhaseEncodingDirection": "COL",
      "MRAcquisitionType": "2D",
      "MagneticFieldStrength": 3.0,
      "Manufacturer": "SIEMENS",
      "ManufacturerModelName": "Prisma",
      "Modality": "MR",
      "NumberOfAverages": 1.0,
      "NumberOfPhaseEncodingSteps": 80,
      "PercentPhaseFieldOfView": 100.0,
      "PercentSampling": 100.0,
      "PerformedProcedureStepStartTime": "091444.476000",
      "PhotometricInterpretation": "MONOCHROME2",
      "PixelBandwidth": 2315.0,
      "PixelRepresentation": 0,
      "PixelSpacing": [3.0, 3.0],
      "ProtocolName": "func-bold_fa-10",
      "RepetitionTime": 2000.0,
      "Rows": 480,
      "SAR": 0.00759847871416,
      "SamplesPerPixel": 1,
      "ScanOptions": "FS",
      "ScanningSequence": "EP",
      "SequenceName": "*epfid2d1_80",
      "SequenceVariant": "SK",
      "SeriesDescription": "func-bold_fa-10",
      "SeriesNumber": 9,
      "SeriesTime": "093048.784000",
      "SliceLocation": -67.617301470855,
      "SliceThickness": 3.5,
      "SmallestImagePixelValue": 0,
      "SoftwareVersions": "syngo MR E11",
      "SpacingBetweenSlices": 3.9900001149122,
      "SpecificCharacterSet": "ISO_IR 100",
      "StudyID": "23",
      "StudyTime": "091444.404000",
      "TransmitCoilName": "Body",
      "VariableFlipAngleFlag": "N",
      "WindowCenterWidthExplanation": "Algo1"
    },
    "slices": {}
  },
  "time": {
    "samples": {
      "AcquisitionNumber": [1, 2, 3, 4, 5, 6, 7, 8, 9, 10, 11, 12, 13, 14, 15, 16, 17, 18, 19, 20, 21, 22, 23, 24, 25, 26, 27, 28, 29, 30, 31, 32, 33, 34, 35, 36, 37, 38, 39, 40, 41, 42, 43, 44, 45, 46, 47, 48, 49, 50, 51, 52, 53, 54, 55, 56, 57, 58, 59, 60, 61, 62, 63, 64, 65, 66, 67, 68, 69, 70, 71, 72, 73, 74, 75, 76, 77, 78, 79, 80, 81, 82, 83, 84, 85, 86, 87, 88, 89, 90, 91, 92, 93, 94, 95, 96, 97, 98, 99, 100, 101, 102, 103, 104, 105, 106, 107, 108, 109, 110, 111, 112, 113, 114, 115, 116, 117, 118, 119, 120, 121, 122, 123, 124, 125, 126, 127, 128, 129, 130, 131, 132, 133, 134, 135, 136, 137, 138, 139, 140, 141, 142, 143, 144, 145, 146, 147, 148, 149, 150, 151, 152, 153, 154, 155, 156, 157, 158, 159, 160, 161, 162, 163, 164, 165, 166, 167, 168, 169, 170, 171, 172, 173, 174, 175, 176, 177, 178, 179, 180, 181, 182, 183, 184, 185, 186, 187, 188, 189, 190, 191, 192, 193, 194, 195, 196, 197, 198, 199, 200],
      "AcquisitionTime": ["093009.502500", "093011.502500", "093013.502500", "093015.502500", "093017.502500", "093019.502500", "093021.502500", "093023.502500", "093025.502500", "093027.502500", "093029.502500", "093031.502500", "093033.502500", "093035.502500", "093037.502500", "093039.502500", "093041.502500", "093043.502500", "093045.502500", "093047.502500", "093049.502500", "093051.502500", "093053.502500", "093055.502500", "093057.502500", "093059.502500", "093101.502500", "093103.502500", "093105.502500", "093107.502500", "093109.502500", "093111.502500", "093113.502500", "093115.502500", "093117.502500", "093119.502500", "093121.502500", "093123.502500", "093125.502500", "093127.502500", "093129.502500", "093131.502500", "093133.502500", "093135.502500", "093137.502500", "093139.502500", "093141.502500", "093143.502500", "093145.502500", "093147.502500", "093149.502500", "093151.502500", "093153.502500", "093155.502500", "093157.502500", "093159.502500", "093201.502500", "093203.502500", "093205.502500", "093207.502500", "093209.502500", "093211.502500", "093213.502500", "093215.502500", "093217.502500", "093219.502500", "093221.502500", "093223.502500", "093225.502500", "093227.502500", "093229.502500", "093231.502500", "093233.502500", "093235.502500", "093237.502500", "093239.502500", "093241.502500", "093243.502500", "093245.502500", "093247.502500", "093249.502500", "093251.502500", "093253.502500", "093255.502500", "093257.502500", "093259.502500", "093301.502500", "093303.502500", "093305.502500", "093307.502500", "093309.502500", "093311.502500", "093313.502500", "093315.502500", "093317.502500", "093319.502500", "093321.502500", "093323.502500", "093325.502500", "093327.502500", "093329.502500", "093331.502500", "093333.502500", "093335.502500", "093337.502500", "093339.502500", "093341.502500", "093343.502500", "093345.502500", "093347.502500", "093349.502500", "093351.502500", "093353.502500", "093355.502500", "093357.502500", "093359.502500", "093401.502500", "093403.502500", "093405.502500", "093407.502500", "093409.502500", "093411.502500", "093413.502500", "093415.502500", "093417.502500", "093419.502500", "093421.502500", "093423.502500", "093425.502500", "093427.502500", "093429.502500", "093431.502500", "093433.502500", "093435.502500", "093437.502500", "093439.502500", "093441.502500", "093443.502500", "093445.502500", "093447.502500", "093449.502500", "093451.502500", "093453.502500", "093455.502500", "093457.502500", "093459.502500", "093501.502500", "093503.502500", "093505.502500", "093507.502500", "093509.502500", "093511.502500", "093513.502500", "093515.502500", "093517.502500", "093519.502500", "093521.502500", "093523.502500", "093525.502500", "093527.502500", "093529.502500", "093531.502500", "093533.502500", "093535.502500", "093537.502500", "093539.502500", "093541.502500", "093543.502500", "093545.502500", "093547.502500", "093549.502500", "093551.502500", "093553.502500", "093555.502500", "093557.502500", "093559.502500", "093601.502500", "093603.502500", "093605.502500", "093607.502500", "093609.502500", "093611.502500", "093613.502500", "093615.502500", "093617.502500", "093619.502500", "093621.502500", "093623.502500", "093625.502500", "093627.502500", "093629.502500", "093631.502500", "093633.502500", "093635.502500", "093637.502500", "093639.502500", "093641.502500", "093643.502500", "093645.502500", "093647.502500"],
      "ContentTime": ["093048.787000", "093048.790000", "093048.792000", "093048.796000", "093048.798000", "093048.800000", "093048.803000", "093048.805000", "093048.807000", "093048.809000", "093048.812000", "093048.814000", "093048.816000", "093048.818000", "093048.821000", "093048.836000", "093048.838000", "093048.840000", "093048.843000", "093048.845000", "093128.773000", "093128.776000", "093128.778000", "093128.780000", "093128.783000", "093128.787000", "093128.789000", "093128.791000", "093128.793000", "093128.796000", "093128.798000", "093128.801000", "093128.803000", "093128.805000", "093128.807000", "093128.810000", "093128.812000", "093128.814000", "093128.816000", "093128.819000", "093208.774000", "093208.777000", "093208.779000", "093208.781000", "093208.784000", "093208.786000", "093208.788000", "093208.790000", "093208.793000", "093208.795000", "093208.797000", "093208.819000", "093208.821000", "093208.823000", "093208.826000", "093208.828000", "093208.830000", "093208.833000", "093208.835000", "093208.837000", "093248.774000", "093248.777000", "093248.779000", "093248.781000", "093248.784000", "093248.786000", "093248.788000", "093248.791000", "093248.793000", "093248.795000", "093248.797000", "093248.800000", "093248.802000", "093248.804000", "093248.807000", "093248.809000", "093248.811000", "093248.813000", "093248.816000", "093248.818000", "093328.773000", "093328.775000", "093328.778000", "093328.780000", "093328.783000", "093328.785000", "093328.787000", "093328.789000", "093328.792000", "093328.794000", "093328.796000", "093328.799000", "093328.821000", "093328.824000", "093328.826000", "093328.828000", "093328.830000", "093328.833000", "093328.835000", "093328.837000", "093408.774000", "093408.777000", "093408.779000", "093408.781000", "093408.788000", "093408.790000", "093408.793000", "093408.795000", "093408.797000", "093408.969000", "093408.971000", "093408.973000", "093408.975000", "093408.978000", "093408.980000", "093408.982000", "093408.984000", "093408.987000", "093408.989000", "093408.991000", "093448.774000", "093448.777000", "093448.779000", "093448.781000", "093448.784000", "093448.786000", "093448.788000", "093448.790000", "093448.793000", "093448.795000", "093448.797000", "093448.800000", "093448.802000", "093448.804000", "093448.807000", "093448.809000", "093448.811000", "093448.814000", "093448.816000", "093448.818000", "093528.774000", "093528.777000", "093528.779000", "093528.781000", "093528.783000", "093528.786000", "093528.788000", "093528.790000", "093528.793000", "093528.795000", "093528.797000", "093529.002000", "093529.004000", "093529.006000", "093529.009000", "093529.011000", "093529.013000", "093529.016000", "093529.018000", "093529.020000", "093608.773000", "093608.776000", "093608.778000", "093608.780000", "093608.782000", "093608.785000", "093608.787000", "093608.789000", "093608.792000", "093608.794000", "093608.796000", "093608.798000", "093608.808000", "093608.811000", "093608.813000", "093608.815000", "093608.818000", "093608.820000", "093608.822000", "093608.824000", "093648.774000", "093648.777000", "093648.779000", "093648.781000", "093648.784000", "093648.786000", "093648.788000", "093648.791000", "093648.793000", "093648.795000", "093648.797000", "093648.813000", "093648.815000", "093648.818000", "093648.820000", "093648.823000", "093648.827000", "093648.829000", "093648.832000", "093648.834000"],
      "InstanceCreationTime": ["093048.787000", "093048.790000", "093048.792000", "093048.796000", "093048.798000", "093048.800000", "093048.803000", "093048.805000", "093048.807000", "093048.809000", "093048.812000", "093048.814000", "093048.816000", "093048.818000", "093048.821000", "093048.836000", "093048.838000", "093048.840000", "093048.843000", "093048.845000", "093128.773000", "093128.776000", "093128.778000", "093128.780000", "093128.783000", "093128.787000", "093128.789000", "093128.791000", "093128.793000", "093128.796000", "093128.798000", "093128.801000", "093128.803000", "093128.805000", "093128.807000", "093128.810000", "093128.812000", "093128.814000", "093128.816000", "093128.819000", "093208.774000", "093208.777000", "093208.779000", "093208.781000", "093208.784000", "093208.786000", "093208.788000", "093208.790000", "093208.793000", "093208.795000", "093208.797000", "093208.819000", "093208.821000", "093208.823000", "093208.826000", "093208.828000", "093208.830000", "093208.833000", "093208.835000", "093208.837000", "093248.774000", "093248.777000", "093248.779000", "093248.781000", "093248.784000", "093248.786000", "093248.788000", "093248.791000", "093248.793000", "093248.795000", "093248.797000", "093248.800000", "093248.802000", "093248.804000", "093248.807000", "093248.809000", "093248.811000", "093248.813000", "093248.816000", "093248.818000", "093328.773000", "093328.775000", "093328.778000", "093328.780000", "093328.783000", "093328.785000", "093328.787000", "093328.789000", "093328.792000", "093328.794000", "093328.796000", "093328.799000", "093328.821000", "093328.824000", "093328.826000", "093328.828000", "093328.830000", "093328.833000", "093328.835000", "093328.837000", "093408.774000", "093408.777000", "093408.779000", "093408.781000", "093408.788000", "093408.790000", "093408.793000", "093408.795000", "093408.797000", "093408.969000", "093408.971000", "093408.973000", "093408.975000", "093408.978000", "093408.980000", "093408.982000", "093408.984000", "093408.987000", "093408.989000", "093408.991000", "093448.774000", "093448.777000", "093448.779000", "093448.781000", "093448.784000", "093448.786000", "093448.788000", "093448.790000", "093448.793000", "093448.795000", "093448.797000", "093448.800000", "093448.802000", "093448.804000", "093448.807000", "093448.809000", "093448.811000", "093448.814000", "093448.816000", "093448.818000", "093528.774000", "093528.777000", "093528.779000", "093528.781000", "093528.783000", "093528.786000", "093528.788000", "093528.790000", "093528.793000", "093528.795000", "093528.797000", "093529.002000", "093529.004000", "093529.006000", "093529.009000", "093529.011000", "093529.013000", "093529.016000", "093529.018000", "093529.020000", "093608.773000", "093608.776000", "093608.778000", "093608.780000", "093608.782000", "093608.785000", "093608.787000", "093608.789000", "093608.792000", "093608.794000", "093608.796000", "093608.798000", "093608.808000", "093608.811000", "093608.813000", "093608.815000", "093608.818000", "093608.820000", "093608.822000", "093608.824000", "093648.774000", "093648.777000", "093648.779000", "093648.781000", "093648.784000", "093648.786000", "093648.788000", "093648.791000", "093648.793000", "093648.795000", "093648.797000", "093648.813000", "093648.815000", "093648.818000", "093648.820000", "093648.823000", "093648.827000", "093648.829000", "093648.832000", "093648.834000"],
      "InstanceNumber": [1, 2, 3, 4, 5, 6, 7, 8, 9, 10, 11, 12, 13, 14, 15, 16, 17, 18, 19, 20, 21, 22, 23, 24, 25, 26, 27, 28, 29, 30, 31, 32, 33, 34, 35, 36, 37, 38, 39, 40, 41, 42, 43, 44, 45, 46, 47, 48, 49, 50, 51, 52, 53, 54, 55, 56, 57, 58, 59, 60, 61, 62, 63, 64, 65, 66, 67, 68, 69, 70, 71, 72, 73, 74, 75, 76, 77, 78, 79, 80, 81, 82, 83, 84, 85, 86, 87, 88, 89, 90, 91, 92, 93, 94, 95, 96, 97, 98, 99, 100, 101, 102, 103, 104, 105, 106, 107, 108, 109, 110, 111, 112, 113, 114, 115, 116, 117, 118, 119, 120, 121, 122, 123, 124, 125, 126, 127, 128, 129, 130, 131, 132, 133, 134, 135, 136, 137, 138, 139, 140, 141, 142, 143, 144, 145, 146, 147, 148, 149, 150, 151, 152, 153, 154, 155, 156, 157, 158, 159, 160, 161, 162, 163, 164, 165, 166, 167, 168, 169, 170, 171, 172, 173, 174, 175, 176, 177, 178, 179, 180, 181, 182, 183, 184, 185, 186, 187, 188, 189, 190, 191, 192, 193, 194, 195, 196, 197, 198, 199, 200],
      "LargestImagePixelValue": [750, 748, 749, 747, 751, 750, 747, 745, 749, 748, 748, 746, 745, 746, 748, 745, 749, 746, 746, 747, 746, 747, 751, 745, 745, 746, 747, 747, 746, 748, 749, 748, 746, 748, 747, 746, 752, 747, 749, 747, 746, 745, 748, 744, 746, 747, 749, 750, 745, 744, 746, 743, 746, 743, 744, 745, 745, 743, 743, 742, 745, 743, 745, 745, 746, 744, 747, 746, 742, 748, 746, 747, 743, 747, 747, 747, 744, 744, 745, 746, 749, 741, 745, 746, 744, 748, 744, 745, 742, 744, 744, 746, 743, 744, 743, 744, 742, 743, 742, 743, 743, 745, 743, 745, 744, 742, 746, 746, 744, 743, 743, 747, 746, 745, 746, 746, 744, 743, 746, 744, 745, 745, 746, 746, 745, 742, 740, 744, 741, 744, 742, 741, 746, 743, 741, 740, 741, 743, 743, 741, 739, 742, 744, 741, 742, 743, 743, 745, 743, 746, 741, 745, 743, 743, 743, 743, 742, 745, 744, 742, 744, 738, 744, 737, 742, 741, 739, 741, 738, 739, 743, 740, 741, 740, 742, 740, 743, 741, 740, 740, 739, 741, 741, 743, 741, 745, 743, 743, 742, 742, 741, 741, 744, 744, 740, 741, 744, 743, 739, 740],
      "WindowCenter": [479.0, 479.0, 479.0, 479.0, 480.0, 479.0, 478.0, 479.0, 479.0, 478.0, 478.0, 479.0, 478.0, 478.0, 478.0, 479.0, 478.0, 479.0, 478.0, 479.0, 478.0, 479.0, 479.0, 479.0, 478.0, 478.0, 478.0, 478.0, 478.0, 479.0, 478.0, 478.0, 478.0, 478.0, 478.0, 478.0, 479.0, 478.0, 478.0, 478.0, 478.0, 478.0, 478.0, 478.0, 478.0, 478.0, 478.0, 479.0, 478.0, 478.0, 478.0, 478.0, 478.0, 478.0, 478.0, 478.0, 478.0, 478.0, 478.0, 478.0, 478.0, 478.0, 478.0, 478.0, 478.0, 478.0, 478.0, 478.0, 478.0, 478.0, 478.0, 478.0, 478.0, 478.0, 478.0, 478.0, 478.0, 478.0, 478.0, 478.0, 478.0, 478.0, 478.0, 478.0, 478.0, 478.0, 478.0, 478.0, 477.0, 478.0, 478.0, 477.0, 478.0, 478.0, 478.0, 478.0, 478.0, 478.0, 478.0, 477.0, 478.0, 478.0, 478.0, 478.0, 477.0, 478.0, 477.0, 477.0, 477.0, 477.0, 478.0, 478.0, 478.0, 478.0, 478.0, 478.0, 478.0, 478.0, 477.0, 478.0, 477.0, 478.0, 477.0, 478.0, 477.0, 478.0, 478.0, 477.0, 478.0, 477.0, 477.0, 477.0, 477.0, 477.0, 478.0, 477.0, 478.0, 477.0, 477.0, 477.0, 477.0, 477.0, 477.0, 477.0, 477.0, 477.0, 477.0, 477.0, 477.0, 477.0, 477.0, 477.0, 477.0, 477.0, 477.0, 477.0, 477.0, 477.0, 477.0, 477.0, 477.0, 477.0, 477.0, 477.0, 477.0, 477.0, 477.0, 477.0, 477.0, 477.0, 477.0, 477.0, 477.0, 477.0, 477.0, 477.0, 477.0, 477.0, 477.0, 477.0, 477.0, 477.0, 477.0, 477.0, 477.0, 477.0, 477.0, 477.0, 477.0, 477.0, 477.0, 477.0, 477.0, 477.0, 477.0, 477.0, 477.0, 477.0, 477.0, 477.0],
      "WindowWidth": [992.0, 991.0, 991.0, 991.0, 993.0, 992.0, 991.0, 991.0, 991.0, 991.0, 990.0, 991.0, 990.0, 990.0, 990.0, 991.0, 990.0, 991.0, 990.0, 991.0, 990.0, 991.0, 992.0, 991.0, 990.0, 990.0, 990.0, 990.0, 990.0, 991.0, 990.0, 990.0, 990.0, 990.0, 990.0, 990.0, 992.0, 990.0, 990.0, 990.0, 990.0, 990.0, 990.0, 990.0, 990.0, 990.0, 990.0, 991.0, 990.0, 990.0, 990.0, 990.0, 990.0, 990.0, 990.0, 990.0, 990.0, 990.0, 990.0, 990.0, 990.0, 990.0, 990.0, 990.0, 990.0, 990.0, 990.0, 990.0, 990.0, 990.0, 990.0, 990.0, 990.0, 990.0, 990.0, 990.0, 990.0, 990.0, 990.0, 990.0, 990.0, 990.0, 990.0, 990.0, 990.0, 990.0, 990.0, 990.0, 989.0, 990.0, 990.0, 989.0, 990.0, 990.0, 990.0, 990.0, 990.0, 990.0, 990.0, 989.0, 989.0, 989.0, 989.0, 989.0, 989.0, 989.0, 989.0, 989.0, 989.0, 989.0, 989.0, 989.0, 990.0, 990.0, 990.0, 990.0, 990.0, 989.0, 989.0, 990.0, 989.0, 989.0, 989.0, 989.0, 989.0, 989.0, 989.0, 989.0, 989.0, 989.0, 989.0, 989.0, 989.0, 989.0, 989.0, 989.0, 989.0, 988.0, 988.0, 988.0, 988.0, 988.0, 989.0, 988.0, 988.0, 988.0, 988.0, 988.0, 988.0, 988.0, 988.0, 988.0, 988.0, 988.0, 988.0, 989.0, 988.0, 988.0, 988.0, 988.0, 988.0, 988.0, 988.0, 988.0, 988.0, 988.0, 988.0, 988.0, 988.0, 988.0, 988.0, 988.0, 988.0, 988.0, 988.0, 988.0, 988.0, 988.0, 988.0, 988.0, 988.0, 988.0, 988.0, 988.0, 988.0, 988.0, 988.0, 988.0, 988.0, 988.0, 988.0, 988.0, 988.0, 988.0, 988.0, 988.0, 988.0, 988.0, 988.0, 988.0]
    },
    "slices": {}
  }
}