{
  "AcquisitionMatrixPE": 122,
  "AcquisitionNumber": 1,
  "AcquisitionTime": "09:22:48.485000",
  "BandwidthPerPixelPhaseEncode": 27.785,
  "BaseResolution": 122,
  "BodyPartExamined": "BRAIN",
  "CoilCombinationMethod": "Adaptive Combine",
  "ConsistencyInfo": "N4_VE11C_LATEST_20160120",
  "ConversionSoftware": "dcm2niix",
  "ConversionSoftwareVersion": "v1.0.20220720",
  "DerivedVendorReportedEchoSpacing": 0.000590011,
  "DeviceSerialNumber": "66112",
  "DiffusionScheme": "Monopolar",
  "DwellTime": 2e-06,
  "EchoTime": 0.068,
  "EchoTrainLength": 61,
  "EffectiveEchoSpacing": 0.000295005,
  "FlipAngle": 90,
  "HeudiconvVersion": "0.13.1",
  "ImageOrientationPatientDICOM": [0.988097, -0.15371, 0.00605951, 0.138165, 0.904105, 0.404357],
  "ImageOrientationText": "Tra>Cor(23.6)>Sag(3.9)",
  "ImageType": [
    "ORIGINAL",
    "PRIMARY",
    "DIFFUSION",
    "NONE",
    "ND",
    "NORM"
],
  "ImagingFrequency": 123.253,
  "InPlanePhaseEncodingDirectionDICOM": "COL",
  "InstitutionAddress": "Maynard 3,Hanover,NH,US,03755",
  "InstitutionName": "Dartmouth College - PBS",
  "InstitutionalDepartmentName": "Department",
  "MRAcquisitionType": "2D",
  "MagneticFieldStrength": 3,
  "Manufacturer": "Siemens",
  "ManufacturersModelName": "Prisma",
  "Modality": "MR",
  "MultibandAccelerationFactor": 4,
  "NonlinearGradientCorrection": false,
  "ParallelReductionFactorInPlane": 2,
  "PartialFourier": 1,
  "PatientPosition": "HFS",
  "PercentPhaseFOV": 100,
  "PercentSampling": 100,
  "PhaseEncodingDirection": "j-",
  "PhaseEncodingSteps": 122,
  "PhaseResolution": 1,
  "PixelBandwidth": 2050,
  "ProcedureStepDescription": "dbic^QA",
  "ProtocolName": "dwi_acq-DTI-30-p2-s4",
  "PulseSequenceDetails": "%SiemensSeq%\\ep2d_diff",
  "ReceiveCoilActiveElements": "HEA;HEP",
  "ReceiveCoilName": "Head_32",
  "ReconMatrixPE": 122,
  "RefLinesPE": 38,
  "RepetitionTime": 3.6,
  "SAR": 0.161363,
  "ScanOptions": "FS",
  "ScanningSequence": "EP",
  "SequenceName": "*ep_b0",
  "SequenceVariant": "SK\\SP",
  "SeriesDescription": "dwi_acq-DTI-30-p2-s4",
  "SeriesNumber": 13,
  "ShimSetting": [4152, -7700, -7509, 277, -58, -187, -45, 106],
  "SliceThickness": 2,
  "SliceTiming": [2.58594, 0, 1.78906, 0.20312, 1.99219, 0.39844, 2.1875, 0.60156, 2.39062, 1, 2.78906, 1.19531, 2.98438, 1.39062, 3.1875, 1.59375, 3.38281, 0.79688, 2.58594, 0, 1.78906, 0.20312, 1.99219, 0.39844, 2.1875, 0.60156, 2.39062, 1, 2.78906, 1.19531, 2.98438, 1.39062, 3.1875, 1.59375, 3.38281, 0.79688, 2.58594, 0, 1.78906, 0.20312, 1.99219, 0.39844, 2.1875, 0.60156, 2.39062, 1, 2.78906, 1.19531, 2.98438, 1.39062, 3.1875, 1.59375, 3.38281, 0.79688, 2.58594, 0, 1.78906, 0.20312, 1.99219, 0.39844, 2.1875, 0.60156, 2.39062, 1, 2.78906, 1.19531, 2.98438, 1.39062, 3.1875, 1.59375, 3.38281, 0.79688],
  "SoftwareVersions": "syngo MR E11",
  "SpacingBetweenSlices": 2,
  "SpoilingState": true,
  "StationName": "AWP66112",
  "TotalReadoutTime": 0.0356956,
  "TxRefAmp": 229.967,
  "dcmmeta_affine": [
    [-1.9437981843948364, 0.2717992961406708, 0.13526487350463867, 97.54256439208984],
    [0.30238106846809387, 1.7785671949386597, 0.7974166870117188, -139.4477081298828],
    [0.011920340359210968, -0.7954567074775696, 1.8291587829589844, -22.79561424255371],
    [0.0, 0.0, 0.0, 1.0]
],
  "dcmmeta_reorient_transform": [
    [0.0, -1.0, 0.0, 121.0],
    [1.0, 0.0, 0.0, 0.0],
    [0.0, 0.0, -1.0, 71.0],
    [0.0, 0.0, 0.0, 1.0]
],
  "dcmmeta_shape": [122, 122, 72, 31],
  "dcmmeta_slice_dim": 2,
  "dcmmeta_version": 0.6,
  "global": {
    "const": {
      "AccessionNumber": "qa",
      "AcquisitionMatrix": [122, 0, 0, 122],
      "AngioFlag": "N",
      "BitsAllocated": 16,
      "BitsStored": 12,
      "BodyPartExamined": "BRAIN",
      "Columns": 122,
      "EchoNumbers": 1,
      "EchoTime": 68.0,
      "EchoTrainLength": 61,
      "FlipAngle": 90.0,
      "HighBit": 11,
      "ImageOrientationPatient": [0.98809736472997, -0.153710377657, 0.00605950610611, 0.13816463801058, 0.90410498907605, 0.40435714601228],
      "ImageType": [
        "ORIGINAL",
        "PRIMARY",
        "DIFFUSION",
        "NONE",
        "ND",
        "NORM"
],
      "ImagedNucleus": "1H",
      "ImagingFrequency": 123.252549,
      "InPlanePhaseEncodingDirection": "COL",
      "MRAcquisitionType": "2D",
      "MagneticFieldStrength": 3.0,
      "Manufacturer": "SIEMENS",
      "ManufacturerModelName": "Prisma",
      "Modality": "MR",
      "NumberOfAverages": 1.0,
      "NumberOfPhaseEncodingSteps": 122,
      "PercentPhaseFieldOfView": 100.0,
      "PercentSampling": 100.0,
      "PerformedProcedureStepStartTime": "084908.123000",
      "PhotometricInterpretation": "MONOCHROME2",
      "PixelBandwidth": 2050.0,
      "PixelRepresentation": 0,
      "PixelSpacing": [1.9672131538391, 1.9672131538391],
      "ProtocolName": "dwi_acq-DTI-30-p2-s4",
      "RepetitionTime": 3600.0,
      "Rows": 122,
      "SAR": 0.16136348265097,
      "SamplesPerPixel": 1,
      "ScanOptions": "FS",
      "ScanningSequence": "EP",
      "SequenceVariant": [
        "SK",
        "SP"
],
      "SeriesDescription": "dwi_acq-DTI-30-p2-s4",
      "SeriesNumber": 13,
      "SeriesTime": "092257.193000",
      "SliceThickness": 2.0,
      "SmallestImagePixelValue": 0,
      "SoftwareVersions": "syngo MR E11",
      "SpacingBetweenSlices": 2.0,
      "SpecificCharacterSet": "ISO_IR 100",
      "StudyID": "2",
      "StudyTime": "084908.049000",
      "TransmitCoilName": "Body",
      "VariableFlipAngleFlag": "N",
      "WindowCenterWidthExplanation": "Algo1",
      "dBdt": 0.0},
    "slices": {
      "AcquisitionTime": ["092248.485000", "092245.900000", "092247.690000", "092246.100000", "092247.890000", "092246.297500", "092248.087500", "092246.497500", "092248.287500", "092246.895000", "092248.685000", "092247.092500", "092248.882500", "092247.292500", "092249.082500", "092247.492500", "092249.282500", "092246.695000", "092248.485000", "092245.900000", "092247.690000", "092246.100000", "092247.890000", "092246.297500", "092248.087500", "092246.497500", "092248.287500", "092246.895000", "092248.685000", "092247.092500", "092248.882500", "092247.292500", "092249.082500", "092247.492500", "092249.282500", "092246.695000", "092248.485000", "092245.900000", "092247.690000", "092246.100000", "092247.890000", "092246.297500", "092248.087500", "092246.497500", "092248.287500", "092246.895000", "092248.685000", "092247.092500", "092248.882500", "092247.292500", "092249.082500", "092247.492500", "092249.282500", "092246.695000", "092248.485000", "092245.900000", "092247.690000", "092246.100000", "092247.890000", "092246.297500", "092248.087500", "092246.497500", "092248.287500", "092246.895000", "092248.685000", "092247.092500", "092248.882500", "092247.292500", "092249.082500", "092247.492500", "092249.282500", "092246.695000", "092252.085000", "092249.500000", "092251.290000", "092249.700000", "092251.490000", "092249.897500", "092251.687500", "092250.097500", "092251.887500", "092250.495000", "092252.285000", "092250.692500", "092252.482500", "092250.892500", "092252.682500", "092251.092500", "092252.882500", "092250.295000", "092252.085000", "092249.500000", "092251.290000", "092249.700000", "092251.490000", "092249.897500", "092251.687500", "092250.097500", "092251.887500", "092250.495000", "092252.285000", "092250.692500", "092252.482500", "092250.892500", "092252.682500", "092251.092500", "092252.882500", "092250.295000", "092252.085000", "092249.500000", "092251.290000", "092249.700000", "092251.490000", "092249.897500", "092251.687500", "092250.097500", "092251.887500", "092250.495000", "092252.285000", "092250.692500", "092252.482500", "092250.892500", "092252.682500", "092251.092500", "092252.882500", "092250.295000", "092252.085000", "092249.500000", "092251.290000", "092249.700000", "092251.490000", "092249.897500", "092251.687500", "092250.097500", "092251.887500", "092250.495000", "092252.285000", "092250.692500", "092252.482500", "092250.892500", "092252.682500", "092251.092500", "092252.882500", "092250.295000", "092255.685000", "092253.100000", "092254.890000", "092253.300000", "092255.090000", "092253.497500", "092255.287500", "092253.697500", "092255.487500", "092254.095000", "092255.885000", "092254.292500", "092256.082500", "092254.492500", "092256.282500", "092254.692500", "092256.482500", "092253.895000", "092255.685000", "092253.100000", "092254.890000", "092253.300000", "092255.090000", "092253.497500", "092255.287500", "092253.697500", "092255.487500", "092254.095000", "092255.885000", "092254.292500", "092256.082500", "092254.492500", "092256.282500", "092254.692500", "092256.482500", "092253.895000", "092255.685000", "092253.100000", "092254.890000", "092253.300000", "092255.090000", "092253.497500", "092255.287500", "092253.697500", "092255.487500", "092254.095000", "092255.885000", "092254.292500", "092256.082500", "092254.492500", "092256.282500", "092254.692500", "092256.482500", "092253.895000", "092255.685000", "092253.100000", "092254.890000", "092253.300000", "092255.090000", "092253.497500", "092255.287500", "092253.697500", "092255.487500", "092254.095000", "092255.885000", "092254.292500", "092256.082500", "092254.492500", "092256.282500", "092254.692500", "092256.482500", "092253.895000", "092259.285000", "092256.700000", "092258.490000", "092256.900000", "092258.690000", "092257.097500", "092258.887500", "092257.297500", "092259.087500", "092257.695000", "092259.485000", "092257.892500", "092259.682500", "092258.092500", "092259.882500", "092258.292500", "092300.082500", "092257.495000", "092259.285000", "092256.700000", "092258.490000", "092256.900000", "092258.690000", "092257.097500", "092258.887500", "092257.297500", "092259.087500", "092257.695000", "092259.485000", "092257.892500", "092259.682500", "092258.092500", "092259.882500", "092258.292500", "092300.082500", "092257.495000", "092259.285000", "092256.700000", "092258.490000", "092256.900000", "092258.690000", "092257.097500", "092258.887500", "092257.297500", "092259.087500", "092257.695000", "092259.485000", "092257.892500", "092259.682500", "092258.092500", "092259.882500", "092258.292500", "092300.082500", "092257.495000", "092259.285000", "092256.700000", "092258.490000", "092256.900000", "092258.690000", "092257.097500", "092258.887500", "092257.297500", "092259.087500", "092257.695000", "092259.485000", "092257.892500", "092259.682500", "092258.092500", "092259.882500", "092258.292500", "092300.082500", "092257.495000", "092302.885000", "092300.300000", "092302.090000", "092300.500000", "092302.290000", "092300.697500", "092302.487500", "092300.897500", "092302.687500", "092301.295000", "092303.085000", "092301.492500", "092303.282500", "092301.692500", "092303.482500", "092301.892500", "092303.682500", "092301.095000", "092302.885000", "092300.300000", "092302.090000", "092300.500000", "092302.290000", "092300.697500", "092302.487500", "092300.897500", "092302.687500", "092301.295000", "092303.085000", "092301.492500", "092303.282500", "092301.692500", "092303.482500", "092301.892500", "092303.682500", "092301.095000", "092302.885000", "092300.300000", "092302.090000", "092300.500000", "092302.290000", "092300.697500", "092302.487500", "092300.897500", "092302.687500", "092301.295000", "092303.085000", "092301.492500", "092303.282500", "092301.692500", "092303.482500", "092301.892500", "092303.682500", "092301.095000", "092302.885000", "092300.300000", "092302.090000", "092300.500000", "092302.290000", "092300.697500", "092302.487500", "092300.897500", "092302.687500", "092301.295000", "092303.085000", "092301.492500", "092303.282500", "092301.692500", "092303.482500", "092301.892500", "092303.682500", "092301.095000", "092306.485000", "092303.900000", "092305.690000", "092304.100000", "092305.890000", "092304.297500", "092306.087500", "092304.497500", "092306.287500", "092304.895000", "092306.685000", "092305.092500", "092306.882500", "092305.292500", "092307.082500", "092305.492500", "092307.282500", "092304.695000", "092306.485000", "092303.900000", "092305.690000", "092304.100000", "092305.890000", "092304.297500", "092306.087500", "092304.497500", "092306.287500", "092304.895000", "092306.685000", "092305.092500", "092306.882500", "092305.292500", "092307.082500", "092305.492500", "092307.282500", "092304.695000", "092306.485000", "092303.900000", "092305.690000", "092304.100000", "092305.890000", "092304.297500", "092306.087500", "092304.497500", "092306.287500", "092304.895000", "092306.685000", "092305.092500", "092306.882500", "092305.292500", "092307.082500", "092305.492500", "092307.282500", "092304.695000", "092306.485000", "092303.900000", "092305.690000", "092304.100000", "092305.890000", "092304.297500", "092306.087500", "092304.497500", "092306.287500", "092304.895000", "092306.685000", "092305.092500", "092306.882500", "092305.292500", "092307.082500", "092305.492500", "092307.282500", "092304.695000", "092310.085000", "092307.500000", "092309.290000", "092307.700000", "092309.490000", "092307.897500", "092309.687500", "092308.097500", "092309.887500", "092308.495000", "092310.285000", "092308.692500", "092310.482500", "092308.892500", "092310.682500", "092309.092500", "092310.882500", "092308.295000", "092310.085000", "092307.500000", "092309.290000", "092307.700000", "092309.490000", "092307.897500", "092309.687500", "092308.097500", "092309.887500", "092308.495000", "092310.285000", "092308.692500", "092310.482500", "092308.892500", "092310.682500", "092309.092500", "092310.882500", "092308.295000", "092310.085000", "092307.500000", "092309.290000", "092307.700000", "092309.490000", "092307.897500", "092309.687500", "092308.097500", "092309.887500", "092308.495000", "092310.285000", "092308.692500", "092310.482500", "092308.892500", "092310.682500", "092309.092500", "092310.882500", "092308.295000", "092310.085000", "092307.500000", "092309.290000", "092307.700000", "092309.490000", "092307.897500", "092309.687500", "092308.097500", "092309.887500", "092308.495000", "092310.285000", "092308.692500", "092310.482500", "092308.892500", "092310.682500", "092309.092500", "092310.882500", "092308.295000", "092313.685000", "092311.100000", "092312.890000", "092311.300000", "092313.090000", "092311.497500", "092313.287500", "092311.697500", "092313.487500", "092312.095000", "092313.885000", "092312.292500", "092314.082500", "092312.492500", "092314.282500", "092312.692500", "092314.482500", "092311.895000", "092313.685000", "092311.100000", "092312.890000", "092311.300000", "092313.090000", "092311.497500", "092313.287500", "092311.697500", "092313.487500", "092312.095000", "092313.885000", "092312.292500", "092314.082500", "092312.492500", "092314.282500", "092312.692500", "092314.482500", "092311.895000", "092313.685000", "092311.100000", "092312.890000", "092311.300000", "092313.090000", "092311.497500", "092313.287500", "092311.697500", "092313.487500", "092312.095000", "092313.885000", "092312.292500", "092314.082500", "092312.492500", "092314.282500", "092312.692500", "092314.482500", "092311.895000", "092313.685000", "092311.100000", "092312.890000", "092311.300000", "092313.090000", "092311.497500", "092313.287500", "092311.697500", "092313.487500", "092312.095000", "092313.885000", "092312.292500", "092314.082500", "092312.492500", "092314.282500", "092312.692500", "092314.482500", "092311.895000", "092317.285000", "092314.700000", "092316.490000", "092314.900000", "092316.690000", "092315.097500", "092316.887500", "092315.297500", "092317.087500", "092315.695000", "092317.485000", "092315.892500", "092317.682500", "092316.092500", "092317.882500", "092316.292500", "092318.082500", "092315.495000", "092317.285000", "092314.700000", "092316.490000", "092314.900000", "092316.690000", "092315.097500", "092316.887500", "092315.297500", "092317.087500", "092315.695000", "092317.485000", "092315.892500", "092317.682500", "092316.092500", "092317.882500", "092316.292500", "092318.082500", "092315.495000", "092317.285000", "092314.700000", "092316.490000", "092314.900000", "092316.690000", "092315.097500", "092316.887500", "092315.297500", "092317.087500", "092315.695000", "092317.485000", "092315.892500", "092317.682500", "092316.092500", "092317.882500", "092316.292500", "092318.082500", "092315.495000", "092317.285000", "092314.700000", "092316.490000", "092314.900000", "092316.690000", "092315.097500", "092316.887500", "092315.297500", "092317.087500", "092315.695000", "092317.485000", "092315.892500", "092317.682500", "092316.092500", "092317.882500", "092316.292500", "092318.082500", "092315.495000", "092320.885000", "092318.300000", "092320.090000", "092318.500000", "092320.290000", "092318.697500", "092320.487500", "092318.897500", "092320.687500", "092319.295000", "092321.085000", "092319.492500", "092321.282500", "092319.692500", "092321.482500", "092319.892500", "092321.682500", "092319.095000", "092320.885000", "092318.300000", "092320.090000", "092318.500000", "092320.290000", "092318.697500", "092320.487500", "092318.897500", "092320.687500", "092319.295000", "092321.085000", "092319.492500", "092321.282500", "092319.692500", "092321.482500", "092319.892500", "092321.682500", "092319.095000", "092320.885000", "092318.300000", "092320.090000", "092318.500000", "092320.290000", "092318.697500", "092320.487500", "092318.897500", "092320.687500", "092319.295000", "092321.085000", "092319.492500", "092321.282500", "092319.692500", "092321.482500", "092319.892500", "092321.682500", "092319.095000", "092320.885000", "092318.300000", "092320.090000", "092318.500000", "092320.290000", "092318.697500", "092320.487500", "092318.897500", "092320.687500", "092319.295000", "092321.085000", "092319.492500", "092321.282500", "092319.692500", "092321.482500", "092319.892500", "092321.682500", "092319.095000", "092324.485000", "092321.900000", "092323.690000", "092322.100000", "092323.890000", "092322.297500", "092324.087500", "092322.497500", "092324.287500", "092322.895000", "092324.685000", "092323.092500", "092324.882500", "092323.292500", "092325.082500", "092323.492500", "092325.282500", "092322.695000", "092324.485000", "092321.900000", "092323.690000", "092322.100000", "092323.890000", "092322.297500", "092324.087500", "092322.497500", "092324.287500", "092322.895000", "092324.685000", "092323.092500", "092324.882500", "092323.292500", "092325.082500", "092323.492500", "092325.282500", "092322.695000", "092324.485000", "092321.900000", "092323.690000", "092322.100000", "092323.890000", "092322.297500", "092324.087500", "092322.497500", "092324.287500", "092322.895000", "092324.685000", "092323.092500", "092324.882500", "092323.292500", "092325.082500", "092323.492500", "092325.282500", "092322.695000", "092324.485000", "092321.900000", "092323.690000", "092322.100000", "092323.890000", "092322.297500", "092324.087500", "092322.497500", "092324.287500", "092322.895000", "092324.685000", "092323.092500", "092324.882500", "092323.292500", "092325.082500", "092323.492500", "092325.282500", "092322.695000", "092328.085000", "092325.500000", "092327.290000", "092325.700000", "092327.490000", "092325.897500", "092327.687500", "092326.097500", "092327.887500", "092326.495000", "092328.285000", "092326.692500", "092328.482500", "092326.892500", "092328.682500", "092327.092500", "092328.882500", "092326.295000", "092328.085000", "092325.500000", "092327.290000", "092325.700000", "092327.490000", "092325.897500", "092327.687500", "092326.097500", "092327.887500", "092326.495000", "092328.285000", "092326.692500", "092328.482500", "092326.892500", "092328.682500", "092327.092500", "092328.882500", "092326.295000", "092328.085000", "092325.500000", "092327.290000", "092325.700000", "092327.490000", "092325.897500", "092327.687500", "092326.097500", "092327.887500", "092326.495000", "092328.285000", "092326.692500", "092328.482500", "092326.892500", "092328.682500", "092327.092500", "092328.882500", "092326.295000", "092328.085000", "092325.500000", "092327.290000", "092325.700000", "092327.490000", "092325.897500", "092327.687500", "092326.097500", "092327.887500", "092326.495000", "092328.285000", "092326.692500", "092328.482500", "092326.892500", "092328.682500", "092327.092500", "092328.882500", "092326.295000", "092331.685000", "092329.100000", "092330.890000", "092329.300000", "092331.090000", "092329.497500", "092331.287500", "092329.697500", "092331.487500", "092330.095000", "092331.885000", "092330.292500", "092332.082500", "092330.492500", "092332.282500", "092330.692500", "092332.482500", "092329.895000", "092331.685000", "092329.100000", "092330.890000", "092329.300000", "092331.090000", "092329.497500", "092331.287500", "092329.697500", "092331.487500", "092330.095000", "092331.885000", "092330.292500", "092332.082500", "092330.492500", "092332.282500", "092330.692500", "092332.482500", "092329.895000", "092331.685000", "092329.100000", "092330.890000", "092329.300000", "092331.090000", "092329.497500", "092331.287500", "092329.697500", "092331.487500", "092330.095000", "092331.885000", "092330.292500", "092332.082500", "092330.492500", "092332.282500", "092330.692500", "092332.482500", "092329.895000", "092331.685000", "092329.100000", "092330.890000", "092329.300000", "092331.090000", "092329.497500", "092331.287500", "092329.697500", "092331.487500", "092330.095000", "092331.885000", "092330.292500", "092332.082500", "092330.492500", "092332.282500", "092330.692500", "092332.482500", "092329.895000", "092335.285000", "092332.700000", "092334.490000", "092332.900000", "092334.690000", "092333.097500", "092334.887500", "092333.297500", "092335.087500", "092333.695000", "092335.485000", "092333.892500", "092335.682500", "092334.092500", "092335.882500", "092334.292500", "092336.082500", "092333.495000", "092335.285000", "092332.700000", "092334.490000", "092332.900000", "092334.690000", "092333.097500", "092334.887500", "092333.297500", "092335.087500", "092333.695000", "092335.485000", "092333.892500", "092335.682500", "092334.092500", "092335.882500", "092334.292500", "092336.082500", "092333.495000", "092335.285000", "092332.700000", "092334.490000", "092332.900000", "092334.690000", "092333.097500", "092334.887500", "092333.297500", "092335.087500", "092333.695000", "092335.485000", "092333.892500", "092335.682500", "092334.092500", "092335.882500", "092334.292500", "092336.082500", "092333.495000", "092335.285000", "092332.700000", "092334.490000", "092332.900000", "092334.690000", "092333.097500", "092334.887500", "092333.297500", "092335.087500", "092333.695000", "092335.485000", "092333.892500", "092335.682500", "092334.092500", "092335.882500", "092334.292500", "092336.082500", "092333.495000", "092338.885000", "092336.300000", "092338.090000", "092336.500000", "092338.290000", "092336.697500", "092338.487500", "092336.897500", "092338.687500", "092337.295000", "092339.085000", "092337.492500", "092339.282500", "092337.692500", "092339.482500", "092337.892500", "092339.682500", "092337.095000", "092338.885000", "092336.300000", "092338.090000", "092336.500000", "092338.290000", "092336.697500", "092338.487500", "092336.897500", "092338.687500", "092337.295000", "092339.085000", "092337.492500", "092339.282500", "092337.692500", "092339.482500", "092337.892500", "092339.682500", "092337.095000", "092338.885000", "092336.300000", "092338.090000", "092336.500000", "092338.290000", "092336.697500", "092338.487500", "092336.897500", "092338.687500", "092337.295000", "092339.085000", "092337.492500", "092339.282500", "092337.692500", "092339.482500", "092337.892500", "092339.682500", "092337.095000", "092338.885000", "092336.300000", "092338.090000", "092336.500000", "092338.290000", "092336.697500", "092338.487500", "092336.897500", "092338.687500", "092337.295000", "092339.085000", "092337.492500", "092339.282500", "092337.692500", "092339.482500", "092337.892500", "092339.682500", "092337.095000", "092342.485000", "092339.900000", "092341.690000", "092340.100000", "092341.890000", "092340.297500", "092342.087500", "092340.497500", "092342.287500", "092340.895000", "092342.685000", "092341.092500", "092342.882500", "092341.292500", "092343.082500", "092341.492500", "092343.282500", "092340.695000", "092342.485000", "092339.900000", "092341.690000", "092340.100000", "092341.890000", "092340.297500", "092342.087500", "092340.497500", "092342.287500", "092340.895000", "092342.685000", "092341.092500", "092342.882500", "092341.292500", "092343.082500", "092341.492500", "092343.282500", "092340.695000", "092342.485000", "092339.900000", "092341.690000", "092340.100000", "092341.890000", "092340.297500", "092342.087500", "092340.497500", "092342.287500", "092340.895000", "092342.685000", "092341.092500", "092342.882500", "092341.292500", "092343.082500", "092341.492500", "092343.282500", "092340.695000", "092342.485000", "092339.900000", "092341.690000", "092340.100000", "092341.890000", "092340.297500", "092342.087500", "092340.497500", "092342.287500", "092340.895000", "092342.685000", "092341.092500", "092342.882500", "092341.292500", "092343.082500", "092341.492500", "092343.282500", "092340.695000", "092346.085000", "092343.500000", "092345.290000", "092343.700000", "092345.490000", "092343.897500", "092345.687500", "092344.097500", "092345.887500", "092344.495000", "092346.285000", "092344.692500", "092346.482500", "092344.892500", "092346.682500", "092345.092500", "092346.882500", "092344.295000", "092346.085000", "092343.500000", "092345.290000", "092343.700000", "092345.490000", "092343.897500", "092345.687500", "092344.097500", "092345.887500", "092344.495000", "092346.285000", "092344.692500", "092346.482500", "092344.892500", "092346.682500", "092345.092500", "092346.882500", "092344.295000", "092346.085000", "092343.500000", "092345.290000", "092343.700000", "092345.490000", "092343.897500", "092345.687500", "092344.097500", "092345.887500", "092344.495000", "092346.285000", "092344.692500", "092346.482500", "092344.892500", "092346.682500", "092345.092500", "092346.882500", "092344.295000", "092346.085000", "092343.500000", "092345.290000", "092343.700000", "092345.490000", "092343.897500", "092345.687500", "092344.097500", "092345.887500", "092344.495000", "092346.285000", "092344.692500", "092346.482500", "092344.892500", "092346.682500", "092345.092500", "092346.882500", "092344.295000", "092349.685000", "092347.100000", "092348.890000", "092347.300000", "092349.090000", "092347.497500", "092349.287500", "092347.697500", "092349.487500", "092348.095000", "092349.885000", "092348.292500", "092350.082500", "092348.492500", "092350.282500", "092348.692500", "092350.482500", "092347.895000", "092349.685000", "092347.100000", "092348.890000", "092347.300000", "092349.090000", "092347.497500", "092349.287500", "092347.697500", "092349.487500", "092348.095000", "092349.885000", "092348.292500", "092350.082500", "092348.492500", "092350.282500", "092348.692500", "092350.482500", "092347.895000", "092349.685000", "092347.100000", "092348.890000", "092347.300000", "092349.090000", "092347.497500", "092349.287500", "092347.697500", "092349.487500", "092348.095000", "092349.885000", "092348.292500", "092350.082500", "092348.492500", "092350.282500", "092348.692500", "092350.482500", "092347.895000", "092349.685000", "092347.100000", "092348.890000", "092347.300000", "092349.090000", "092347.497500", "092349.287500", "092347.697500", "092349.487500", "092348.095000", "092349.885000", "092348.292500", "092350.082500", "092348.492500", "092350.282500", "092348.692500", "092350.482500", "092347.895000", "092353.285000", "092350.700000", "092352.490000", "092350.900000", "092352.690000", "092351.097500", "092352.887500", "092351.297500", "092353.087500", "092351.695000", "092353.485000", "092351.892500", "092353.682500", "092352.092500", "092353.882500", "092352.292500", "092354.082500", "092351.495000", "092353.285000", "092350.700000", "092352.490000", "092350.900000", "092352.690000", "092351.097500", "092352.887500", "092351.297500", "092353.087500", "092351.695000", "092353.485000", "092351.892500", "092353.682500", "092352.092500", "092353.882500", "092352.292500", "092354.082500", "092351.495000", "092353.285000", "092350.700000", "092352.490000", "092350.900000", "092352.690000", "092351.097500", "092352.887500", "092351.297500", "092353.087500", "092351.695000", "092353.485000", "092351.892500", "092353.682500", "092352.092500", "092353.882500", "092352.292500", "092354.082500", "092351.495000", "092353.285000", "092350.700000", "092352.490000", "092350.900000", "092352.690000", "092351.097500", "092352.887500", "092351.297500", "092353.087500", "092351.695000", "092353.485000", "092351.892500", "092353.682500", "092352.092500", "092353.882500", "092352.292500", "092354.082500", "092351.495000", "092356.885000", "092354.300000", "092356.090000", "092354.500000", "092356.290000", "092354.697500", "092356.487500", "092354.897500", "092356.687500", "092355.295000", "092357.085000", "092355.492500", "092357.282500", "092355.692500", "092357.482500", "092355.892500", "092357.682500", "092355.095000", "092356.885000", "092354.300000", "092356.090000", "092354.500000", "092356.290000", "092354.697500", "092356.487500", "092354.897500", "092356.687500", "092355.295000", "092357.085000", "092355.492500", "092357.282500", "092355.692500", "092357.482500", "092355.892500", "092357.682500", "092355.095000", "092356.885000", "092354.300000", "092356.090000", "092354.500000", "092356.290000", "092354.697500", "092356.487500", "092354.897500", "092356.687500", "092355.295000", "092357.085000", "092355.492500", "092357.282500", "092355.692500", "092357.482500", "092355.892500", "092357.682500", "092355.095000", "092356.885000", "092354.300000", "092356.090000", "092354.500000", "092356.290000", "092354.697500", "092356.487500", "092354.897500", "092356.687500", "092355.295000", "092357.085000", "092355.492500", "092357.282500",