{
  "AcquisitionMatrixPE": 122,
  "AcquisitionNumber": 1,
  "AcquisitionTime": "09:18:26.207500",
  "BandwidthPerPixelPhaseEncode": 28.76,
  "BaseResolution": 122,
  "BodyPartExamined": "BRAIN",
  "CoilCombinationMethod": "Adaptive Combine",
  "ConsistencyInfo": "N4_VE11C_LATEST_20160120",
  "ConversionSoftware": "dcm2niix",
  "ConversionSoftwareVersion": "v1.0.20220720",
  "DerivedVendorReportedEchoSpacing": 0.000570008,
  "DeviceSerialNumber": "66112",
  "DiffusionScheme": "Monopolar",
  "DwellTime": 2e-06,
  "EchoTime": 0.075,
  "EchoTrainLength": 61,
  "EffectiveEchoSpacing": 0.000285004,
  "FlipAngle": 90,
  "HeudiconvVersion": "0.13.1",
  "ImageOrientationPatientDICOM": [0.988097, -0.15371, 0.00605951, 0.138165, 0.904105, 0.404357],
  "ImageOrientationText": "Tra>Cor(23.6)>Sag(3.9)",
  "ImageType": [
    "ORIGINAL",
    "PRIMARY",
    "DIFFUSION",
    "NONE",
    "ND",
    "NORM"
],
  "ImagingFrequency": 123.253,
  "InPlanePhaseEncodingDirectionDICOM": "COL",
  "InstitutionAddress": "Maynard 3,Hanover,NH,US,03755",
  "InstitutionName": "Dartmouth College - PBS",
  "InstitutionalDepartmentName": "Department",
  "MRAcquisitionType": "2D",
  "MagneticFieldStrength": 3,
  "Manufacturer": "Siemens",
  "ManufacturersModelName": "Prisma",
  "MatrixCoilMode": "GRAPPA",
  "Modality": "MR",
  "NonlinearGradientCorrection": false,
  "ParallelReductionFactorInPlane": 2,
  "PartialFourier": 1,
  "PatientPosition": "HFS",
  "PercentPhaseFOV": 100,
  "PercentSampling": 100,
  "PhaseEncodingDirection": "j-",
  "PhaseEncodingSteps": 122,
  "PhaseResolution": 1,
  "PixelBandwidth": 2050,
  "ProcedureStepDescription": "dbic^QA",
  "ProtocolName": "dwi_acq-DTI-30-p2",
  "PulseSequenceDetails": "%SiemensSeq%\\ep2d_diff",
  "ReceiveCoilActiveElements": "HEA;HEP",
  "ReceiveCoilName": "Head_32",
  "ReconMatrixPE": 122,
  "RefLinesPE": 38,
  "RepetitionTime": 7.7,
  "SAR": 0.101739,
  "ScanOptions": "FS",
  "ScanningSequence": "EP",
  "SequenceName": "*ep_b0",
  "SequenceVariant": "SK\\SP",
  "SeriesDescription": "dwi_acq-DTI-30-p2",
  "SeriesNumber": 12,
  "ShimSetting": [4152, -7700, -7509, 275, -60, -189, -45, 107],
  "SliceThickness": 2,
  "SliceTiming": [3.84375, 0, 3.94531, 0.10938, 4.05469, 0.21875, 4.16406, 0.32812, 4.28125, 0.4375, 4.39062, 0.54688, 4.5, 0.65625, 4.60938, 0.76562, 4.71875, 0.875, 4.82812, 0.98438, 4.9375, 1.09375, 5.04688, 1.20312, 5.15625, 1.3125, 5.26562, 1.42188, 5.375, 1.53906, 5.48438, 1.64844, 5.59375, 1.75781, 5.70312, 1.86719, 5.8125, 1.97656, 5.92188, 2.08594, 6.03125, 2.19531, 6.14062, 2.30469, 6.25, 2.41406, 6.35938, 2.52344, 6.47656, 2.63281, 6.58594, 2.74219, 6.69531, 2.85156, 6.79688, 2.96094, 6.91406, 3.07031, 7.02344, 3.17969, 7.13281, 3.28906, 7.24219, 3.39844, 7.35156, 3.50781, 7.46094, 3.61719, 7.57031, 3.72656],
  "SoftwareVersions": "syngo MR E11",
  "SpacingBetweenSlices": 2,
  "SpoilingState": true,
  "StationName": "AWP66112",
  "TotalReadoutTime": 0.0344855,
  "TxRefAmp": 229.967,
  "dcmmeta_affine": [
    [-1.9437981843948364, 0.2717992961406708, 0.13526439666748047, 97.67786407470703],
    [0.30238106846809387, 1.7785671949386597, 0.7974128723144531, -138.65003967285156],
    [0.011920340359210968, -0.7954567074775696, 1.82916259765625, -20.966718673706055],
    [0.0, 0.0, 0.0, 1.0]
],
  "dcmmeta_reorient_transform": [
    [0.0, -1.0, 0.0, 121.0],
    [1.0, 0.0, 0.0, 0.0],
    [0.0, 0.0, -1.0, 69.0],
    [0.0, 0.0, 0.0, 1.0]
],
  "dcmmeta_shape": [122, 122, 70, 31],
  "dcmmeta_slice_dim": 2,
  "dcmmeta_version": 0.6,
  "global": {
    "const": {
      "AccessionNumber": "qa",
      "AcquisitionMatrix": [122, 0, 0, 122],
      "AngioFlag": "N",
      "BitsAllocated": 16,
      "BitsStored": 12,
      "BodyPartExamined": "BRAIN",
      "Columns": 122,
      "EchoNumbers": 1,
      "EchoTime": 75.0,
      "EchoTrainLength": 61,
      "FlipAngle": 90.0,
      "HighBit": 11,
      "ImageOrientationPatient": [0.98809736472997, -0.153710377657, 0.00605950610611, 0.13816463801058, 0.90410498907605, 0.40435714601228],
      "ImageType": [
        "ORIGINAL",
        "PRIMARY",
        "DIFFUSION",
        "NONE",
        "ND",
        "NORM"
],
      "ImagedNucleus": "1H",
      "ImagingFrequency": 123.252547,
      "InPlanePhaseEncodingDirection": "COL",
      "MRAcquisitionType": "2D",
      "MagneticFieldStrength": 3.0,
      "Manufacturer": "SIEMENS",
      "ManufacturerModelName": "Prisma",
      "Modality": "MR",
      "NumberOfAverages": 1.0,
      "NumberOfPhaseEncodingSteps": 122,
      "PercentPhaseFieldOfView": 100.0,
      "PercentSampling": 100.0,
      "PerformedProcedureStepStartTime": "084908.123000",
      "PhotometricInterpretation": "MONOCHROME2",
      "PixelBandwidth": 2050.0,
      "PixelRepresentation": 0,
      "PixelSpacing": [1.9672131538391, 1.9672131538391],
      "ProtocolName": "dwi_acq-DTI-30-p2",
      "RepetitionTime": 7700.0,
      "Rows": 122,
      "SAR": 0.10173946983691,
      "SamplesPerPixel": 1,
      "ScanOptions": "FS",
      "ScanningSequence": "EP",
      "SequenceVariant": [
        "SK",
        "SP"
],
      "SeriesDescription": "dwi_acq-DTI-30-p2",
      "SeriesNumber": 12,
      "SeriesTime": "091827.307000",
      "SliceThickness": 2.0,
      "SmallestImagePixelValue": 0,
      "SoftwareVersions": "syngo MR E11",
      "SpacingBetweenSlices": 2.0,
      "SpecificCharacterSet": "ISO_IR 100",
      "StudyID": "2",
      "StudyTime": "084908.049000",
      "TransmitCoilName": "Body",
      "VariableFlipAngleFlag": "N",
      "WindowCenterWidthExplanation": "Algo1",
      "dBdt": 0.0},
    "slices": {
      "AcquisitionTime": ["091826.207500", "091822.367500", "091826.315000", "091822.477500", "091826.425000", "091822.585000", "091826.535000", "091822.695000", "091826.645000", "091822.805000", "091826.755000", "091822.915000", "091826.865000", "091823.025000", "091826.975000", "091823.135000", "091827.085000", "091823.245000", "091827.195000", "091823.355000", "091827.302500", "091823.462500", "091827.412500", "091823.572500", "091827.522500", "091823.682500", "091827.632500", "091823.792500", "091827.742500", "091823.902500", "091827.852500", "091824.012500", "091827.962500", "091824.122500", "091828.072500", "091824.232500", "091828.182500", "091824.342500", "091828.290000", "091824.450000", "091828.400000", "091824.560000", "091828.510000", "091824.670000", "091828.620000", "091824.780000", "091828.730000", "091824.890000", "091828.840000", "091825.000000", "091828.950000", "091825.110000", "091829.060000", "091825.220000", "091829.167500", "091825.330000", "091829.277500", "091825.437500", "091829.387500", "091825.547500", "091829.497500", "091825.657500", "091829.607500", "091825.767500", "091829.717500", "091825.877500", "091829.827500", "091825.987500", "091829.937500", "091826.097500", "091833.907500", "091830.067500", "091834.015000", "091830.177500", "091834.125000", "091830.285000", "091834.235000", "091830.395000", "091834.345000", "091830.505000", "091834.455000", "091830.615000", "091834.565000", "091830.725000", "091834.675000", "091830.835000", "091834.785000", "091830.945000", "091834.895000", "091831.055000", "091835.002500", "091831.162500", "091835.112500", "091831.272500", "091835.222500", "091831.382500", "091835.332500", "091831.492500", "091835.442500", "091831.602500", "091835.552500", "091831.712500", "091835.662500", "091831.822500", "091835.772500", "091831.932500", "091835.882500", "091832.042500", "091835.990000", "091832.150000", "091836.100000", "091832.260000", "091836.210000", "091832.370000", "091836.320000", "091832.480000", "091836.430000", "091832.590000", "091836.540000", "091832.700000", "091836.650000", "091832.810000", "091836.760000", "091832.920000", "091836.867500", "091833.030000", "091836.977500", "091833.137500", "091837.087500", "091833.247500", "091837.197500", "091833.357500", "091837.307500", "091833.467500", "091837.417500", "091833.577500", "091837.527500", "091833.687500", "091837.637500", "091833.797500", "091841.607500", "091837.767500", "091841.715000", "091837.877500", "091841.825000", "091837.985000", "091841.935000", "091838.095000", "091842.045000", "091838.205000", "091842.155000", "091838.315000", "091842.265000", "091838.425000", "091842.375000", "091838.535000", "091842.485000", "091838.645000", "091842.595000", "091838.755000", "091842.702500", "091838.862500", "091842.812500", "091838.972500", "091842.922500", "091839.082500", "091843.032500", "091839.192500", "091843.142500", "091839.302500", "091843.252500", "091839.412500", "091843.362500", "091839.522500", "091843.472500", "091839.632500", "091843.582500", "091839.742500", "091843.690000", "091839.850000", "091843.800000", "091839.960000", "091843.910000", "091840.070000", "091844.020000", "091840.180000", "091844.130000", "091840.290000", "091844.240000", "091840.400000", "091844.350000", "091840.510000", "091844.460000", "091840.620000", "091844.567500", "091840.730000", "091844.677500", "091840.837500", "091844.787500", "091840.947500", "091844.897500", "091841.057500", "091845.007500", "091841.167500", "091845.117500", "091841.277500", "091845.227500", "091841.387500", "091845.337500", "091841.497500", "091849.307500", "091845.467500", "091849.415000", "091845.577500", "091849.525000", "091845.685000", "091849.635000", "091845.795000", "091849.745000", "091845.905000", "091849.855000", "091846.015000", "091849.965000", "091846.125000", "091850.075000", "091846.235000", "091850.185000", "091846.345000", "091850.295000", "091846.455000", "091850.402500", "091846.562500", "091850.512500", "091846.672500", "091850.622500", "091846.782500", "091850.732500", "091846.892500", "091850.842500", "091847.002500", "091850.952500", "091847.112500", "091851.062500", "091847.222500", "091851.172500", "091847.332500", "091851.282500", "091847.442500", "091851.390000", "091847.550000", "091851.500000", "091847.660000", "091851.610000", "091847.770000", "091851.720000", "091847.880000", "091851.830000", "091847.990000", "091851.940000", "091848.100000", "091852.050000", "091848.210000", "091852.160000", "091848.320000", "091852.267500", "091848.430000", "091852.377500", "091848.537500", "091852.487500", "091848.647500", "091852.597500", "091848.757500", "091852.707500", "091848.867500", "091852.817500", "091848.977500", "091852.927500", "091849.087500", "091853.037500", "091849.197500", "091857.007500", "091853.167500", "091857.115000", "091853.277500", "091857.225000", "091853.385000", "091857.335000", "091853.495000", "091857.445000", "091853.605000", "091857.555000", "091853.715000", "091857.665000", "091853.825000", "091857.775000", "091853.935000", "091857.885000", "091854.045000", "091857.995000", "091854.155000", "091858.102500", "091854.262500", "091858.212500", "091854.372500", "091858.322500", "091854.482500", "091858.432500", "091854.592500", "091858.542500", "091854.702500", "091858.652500", "091854.812500", "091858.762500", "091854.922500", "091858.872500", "091855.032500", "091858.982500", "091855.142500", "091859.090000", "091855.250000", "091859.200000", "091855.360000", "091859.310000", "091855.470000", "091859.420000", "091855.580000", "091859.530000", "091855.690000", "091859.640000", "091855.800000", "091859.750000", "091855.910000", "091859.860000", "091856.020000", "091859.967500", "091856.130000", "091900.077500", "091856.237500", "091900.187500", "091856.347500", "091900.297500", "091856.457500", "091900.407500", "091856.567500", "091900.517500", "091856.677500", "091900.627500", "091856.787500", "091900.737500", "091856.897500", "091904.707500", "091900.867500", "091904.815000", "091900.977500", "091904.925000", "091901.085000", "091905.035000", "091901.195000", "091905.145000", "091901.305000", "091905.255000", "091901.415000", "091905.365000", "091901.525000", "091905.475000", "091901.635000", "091905.585000", "091901.745000", "091905.695000", "091901.855000", "091905.802500", "091901.962500", "091905.912500", "091902.072500", "091906.022500", "091902.182500", "091906.132500", "091902.292500", "091906.242500", "091902.402500", "091906.352500", "091902.512500", "091906.462500", "091902.622500", "091906.572500", "091902.732500", "091906.682500", "091902.842500", "091906.790000", "091902.950000", "091906.900000", "091903.060000", "091907.010000", "091903.170000", "091907.120000", "091903.280000", "091907.230000", "091903.390000", "091907.340000", "091903.500000", "091907.450000", "091903.610000", "091907.560000", "091903.720000", "091907.667500", "091903.830000", "091907.777500", "091903.937500", "091907.887500", "091904.047500", "091907.997500", "091904.157500", "091908.107500", "091904.267500", "091908.217500", "091904.377500", "091908.327500", "091904.487500", "091908.437500", "091904.597500", "091912.407500", "091908.567500", "091912.515000", "091908.677500", "091912.625000", "091908.785000", "091912.735000", "091908.895000", "091912.845000", "091909.005000", "091912.955000", "091909.115000", "091913.065000", "091909.225000", "091913.175000", "091909.335000", "091913.285000", "091909.445000", "091913.395000", "091909.555000", "091913.502500", "091909.662500", "091913.612500", "091909.772500", "091913.722500", "091909.882500", "091913.832500", "091909.992500", "091913.942500", "091910.102500", "091914.052500", "091910.212500", "091914.162500", "091910.322500", "091914.272500", "091910.432500", "091914.382500", "091910.542500", "091914.490000", "091910.650000", "091914.600000", "091910.760000", "091914.710000", "091910.870000", "091914.820000", "091910.980000", "091914.930000", "091911.090000", "091915.040000", "091911.200000", "091915.150000", "091911.310000", "091915.260000", "091911.420000", "091915.367500", "091911.530000", "091915.477500", "091911.637500", "091915.587500", "091911.747500", "091915.697500", "091911.857500", "091915.807500", "091911.967500", "091915.917500", "091912.077500", "091916.027500", "091912.187500", "091916.137500", "091912.297500", "091920.107500", "091916.267500", "091920.215000", "091916.377500", "091920.325000", "091916.485000", "091920.435000", "091916.595000", "091920.545000", "091916.705000", "091920.655000", "091916.815000", "091920.765000", "091916.925000", "091920.875000", "091917.035000", "091920.985000", "091917.145000", "091921.095000", "091917.255000", "091921.202500", "091917.362500", "091921.312500", "091917.472500", "091921.422500", "091917.582500", "091921.532500", "091917.692500", "091921.642500", "091917.802500", "091921.752500", "091917.912500", "091921.862500", "091918.022500", "091921.972500", "091918.132500", "091922.082500", "091918.242500", "091922.190000", "091918.350000", "091922.300000", "091918.460000", "091922.410000", "091918.570000", "091922.520000", "091918.680000", "091922.630000", "091918.790000", "091922.740000", "091918.900000", "091922.850000", "091919.010000", "091922.960000", "091919.120000", "091923.067500", "091919.230000", "091923.177500", "091919.337500", "091923.287500", "091919.447500", "091923.397500", "091919.557500", "091923.507500", "091919.667500", "091923.617500", "091919.777500", "091923.727500", "091919.887500", "091923.837500", "091919.997500", "091927.807500", "091923.967500", "091927.915000", "091924.077500", "091928.025000", "091924.185000", "091928.135000", "091924.295000", "091928.245000", "091924.405000", "091928.355000", "091924.515000", "091928.465000", "091924.625000", "091928.575000", "091924.735000", "091928.685000", "091924.845000", "091928.795000", "091924.955000", "091928.902500", "091925.062500", "091929.012500", "091925.172500", "091929.122500", "091925.282500", "091929.232500", "091925.392500", "091929.342500", "091925.502500", "091929.452500", "091925.612500", "091929.562500", "091925.722500", "091929.672500", "091925.832500", "091929.782500", "091925.942500", "091929.890000", "091926.050000", "091930.000000", "091926.160000", "091930.110000", "091926.270000", "091930.220000", "091926.380000", "091930.330000", "091926.490000", "091930.440000", "091926.600000", "091930.550000", "091926.710000", "091930.660000", "091926.820000", "091930.767500", "091926.930000", "091930.877500", "091927.037500", "091930.987500", "091927.147500", "091931.097500", "091927.257500", "091931.207500", "091927.367500", "091931.317500", "091927.477500", "091931.427500", "091927.587500", "091931.537500", "091927.697500", "091935.507500", "091931.667500", "091935.615000", "091931.777500", "091935.725000", "091931.885000", "091935.835000", "091931.995000", "091935.945000", "091932.105000", "091936.055000", "091932.215000", "091936.165000", "091932.325000", "091936.275000", "091932.435000", "091936.385000", "091932.545000", "091936.495000", "091932.655000", "091936.602500", "091932.762500", "091936.712500", "091932.872500", "091936.822500", "091932.982500", "091936.932500", "091933.092500", "091937.042500", "091933.202500", "091937.152500", "091933.312500", "091937.262500", "091933.422500", "091937.372500", "091933.532500", "091937.482500", "091933.642500", "091937.590000", "091933.750000", "091937.700000", "091933.860000", "091937.810000", "091933.970000", "091937.920000", "091934.080000", "091938.030000", "091934.190000", "091938.140000", "091934.300000", "091938.250000", "091934.410000", "091938.360000", "091934.520000", "091938.467500", "091934.630000", "091938.577500", "091934.737500", "091938.687500", "091934.847500", "091938.797500", "091934.957500", "091938.907500", "091935.067500", "091939.017500", "091935.177500", "091939.127500", "091935.287500", "091939.237500", "091935.397500", "091943.207500", "091939.367500", "091943.315000", "091939.477500", "091943.425000", "091939.585000", "091943.535000", "091939.695000", "091943.645000", "091939.805000", "091943.755000", "091939.915000", "091943.865000", "091940.025000", "091943.975000", "091940.135000", "091944.085000", "091940.245000", "091944.195000", "091940.355000", "091944.302500", "091940.462500", "091944.412500", "091940.572500", "091944.522500", "091940.682500", "091944.632500", "091940.792500", "091944.742500", "091940.902500", "091944.852500", "091941.012500", "091944.962500", "091941.122500", "091945.072500", "091941.232500", "091945.182500", "091941.342500", "091945.290000", "091941.450000", "091945.400000", "091941.560000", "091945.510000", "091941.670000", "091945.620000", "091941.780000", "091945.730000", "091941.890000", "091945.840000", "091942.000000", "091945.950000", "091942.110000", "091946.060000", "091942.220000", "091946.167500", "091942.330000", "091946.277500", "091942.437500", "091946.387500", "091942.547500", "091946.497500", "091942.657500", "091946.607500", "091942.767500", "091946.717500", "091942.877500", "091946.827500", "091942.987500", "091946.937500", "091943.097500", "091950.907500", "091947.067500", "091951.015000", "091947.177500", "091951.125000", "091947.285000", "091951.235000", "091947.395000", "091951.345000", "091947.505000", "091951.455000", "091947.615000", "091951.565000", "091947.725000", "091951.675000", "091947.835000", "091951.785000", "091947.945000", "091951.895000", "091948.055000", "091952.002500", "091948.162500", "091952.112500", "091948.272500", "091952.222500", "091948.382500", "091952.332500", "091948.492500", "091952.442500", "091948.602500", "091952.552500", "091948.712500", "091952.662500", "091948.822500", "091952.772500", "091948.932500", "091952.882500", "091949.042500", "091952.990000", "091949.150000", "091953.100000", "091949.260000", "091953.210000", "091949.370000", "091953.320000", "091949.480000", "091953.430000", "091949.590000", "091953.540000", "091949.700000", "091953.650000", "091949.810000", "091953.760000", "091949.920000", "091953.867500", "091950.030000", "091953.977500", "091950.137500", "091954.087500", "091950.247500", "091954.197500", "091950.357500", "091954.307500", "091950.467500", "091954.417500", "091950.577500", "091954.527500", "091950.687500", "091954.637500", "091950.797500", "091958.607500", "091954.767500", "091958.715000", "091954.877500", "091958.825000", "091954.985000", "091958.935000", "091955.095000", "091959.045000", "091955.205000", "091959.155000", "091955.315000", "091959.265000", "091955.425000", "091959.375000", "091955.535000", "091959.485000", "091955.645000", "091959.595000", "091955.755000", "091959.702500", "091955.862500", "091959.812500", "091955.972500", "091959.922500", "091956.082500", "092000.032500", "091956.192500", "092000.142500", "091956.302500", "092000.252500", "091956.412500", "092000.362500", "091956.522500", "092000.472500", "091956.632500", "092000.582500", "091956.742500", "092000.690000", "091956.850000", "092000.800000", "091956.960000", "092000.910000", "091957.070000", "092001.020000", "091957.180000", "092001.130000", "091957.290000", "092001.240000", "091957.400000", "092001.350000", "091957.510000", "092001.460000", "091957.620000", "092001.567500", "091957.730000", "092001.677500", "091957.837500", "092001.787500", "091957.947500", "092001.897500", "091958.057500", "092002.007500", "091958.167500", "092002.117500", "091958.277500", "092002.227500", "091958.387500", "092002.337500", "091958.497500", "092006.307500", "092002.467500", "092006.415000", "092002.577500", "092006.525000", "092002.685000", "092006.635000", "092002.795000", "092006.745000", "092002.905000", "092006.855000", "092003.015000", "092006.965000", "092003.125000", "092007.075000", "092003.235000", "092007.185000", "092003.345000", "092007.295000", "092003.455000", "092007.402500", "092003.562500", "092007.512500", "092003.672500", "092007.622500", "092003.782500", "092007.732500", "092003.892500", "092007.842500", "092004.002500", "092007.952500", "092004.112500", "092008.062500", "092004.222500", "092008.172500", "092004.332500", "092008.282500", "092004.442500", "092008.390000", "092004.550000", "092008.500000", "092004.660000", "092008.610000", "092004.770000", "092008.720000", "092004.880000", "092008.830000", "092004.990000", "092008.940000", "092005.100000", "092009.050000", "092005.210000", "092009.160000", "092005.320000", "092009.267500", "092005.430000", "092009.377500", "092005.537500", "092009.487500", "092005.647500", "092009.597500", "092005.757500", "092009.707500", "092005.867500", "092009.817500", "092005.977500", "092009.927500", "092006.087500", "092010.037500", "092006.197500", "092014.007500", "092010.167500", "092014.115000", "092010.277500", "092014.225000", "092010.385000", "092014.335000", "092010.495000", "092014.445000", "092010.605000", "092014.555000", "092010.715000", "092014.665000", "092010.825000", "092014.775000", "092010.935000", "092014.885000", "092011.045000", "092014.995000", "092011.155000", "092015.102500", "092011.262500", "092015.212500", "092011.372500", "092015.322500", "092011.482500", "092015.432500", "092011.592500", "092015.542500", "092011.702500", "092015.652500", "092011.812500", "092015.762500", "092011.922500", "092015.872500", "092012.032500", "092015.982500", "092012.142500", "092016.090000", "092012.250000", "092016.200000", "092012.360000", "092016.310000", "092012.470000", "092016.420000", "092012.580000", "092016.530000", "092012.690000", "092016.640000", "092012.800000", "092016.750000", "092012.910000", "092016.860000", "092013.020000", "092016.967500", "092013.130000", "092017.077500", "092013.237500", "092017.187500", "092013.347500", "092017.297500", "092013.457500", "092017.407500", "092013.567500", "092017.517500", "092013.677500", "092017.627500", "092013.787500", "092017.737500", "092013.897500", "092021.707500", "092017.867500", "092021.815000", "092017.977500", "092021.925000", "092018.085000", "092022.035000", "092018.195000", "092022.145000", "092018.305000", "092022.255000", "092018.415000", "092022.365000", "092018.525000", "092022.475000", "092018.635000", "092022.585000", "092018.745000", "092022.695000", "092018.855000", "092022.802500", "092018.962500", "092022.912500", "092019.072500", "092023.022500", "092019.182500", "092023.132500", "092019.292500", "092023.242500", "092019.402500", "092023.352500", "092019.512500", "092023.462500", "092019.622500", "092023.572500", "092019.732500", "092023.682500", "092019.842500", "092023.790000", "092019.950000", "092023.900000", "092020.060000", "092024.010000", "092020.170000", "092024.120000", "092020.280000", "092024.230000", "092020.390000", "092024.340000", "092020.500000", "092024.450000", "092020.610000", "092024.560000", "092020.720000", "092024.667500", "092020.830000", "092024.777500", "092020.937500", "092024.887500", "092021.047500", "092024.997500", "092021.157500", "092025.107500", "092021.267500", "092025.217500", "092021.377500", "092025.327500", "092021.487500", "092025.437500", "092021.597500", "092029.407500", "092025.567500", "092029.515000", "092025.677500", "092029.625000", "092025.785000", "092029.735000", "092025.895000", "092029.845000", "092026.005000", "092029.955000", "092026.115000", "092030.065000", "092026.225000", "092030.175000", "092026.335000", "092030.285000", "092026.445000", "092030.395000", "092026.555000", "092030.502500", "092026.662500", "092030.612500", "092026.772500", "092030.722500", "092026.882500", "092030.832500", "092026.992500", "092030.942500", "092027.102500", "092031.052500", "092027.212500", "092031.162500", "092027.322500", "092031.272500", "092027.432500", "092031.382500", "092027.542500", "092031.490000", "092027.650000", "092031.600000", "092027.760000", "092031.710000", "092027.870000", "092031.820000", "092027.980000", "092031.930000", "092028.090000", "092032.040000", "092028.200000", "092032.150000", "092028.310000", "092032.260000", "092028.420000", "092032.367500", "092028.530000", "092032.477500", "092028.637500", "092032.587500", "092028.747500", "092032.697500", "092028.857500", "092032.807500", "092028.967500", "092032.917500", "092029.077500", "092033.027500", "092029.187500", "092033.137500", "092029.297500", "092037.107500", "092033.267500", "092037.215000", "092033.377500", "092037.325000", "092033.485000", "092037.435000", "092033.595000", "092037.545000", "092033.705000", "092037.655000", "092033.815000", "092037.765000", "092033.925000", "092037.875000", "092034.035000", "092037.985000", "092034.145000", "092038.095000", "092034.255000", "092038.202500", "092034.362500", "092038.312500", "092034.472500", "092038.422500", "092034.582500", "092038.532500", "092034.692500", "092038.642500", "092034.802500", "092038.752500", "092034.912500", "092038.862500", "092035.022500", "092038.972500", "092035.132500", "092039.082500", "092035.242500", "092039.190000", "092035.350000", "092039.300000", "092035.460000", "092039.410000", "092035.570000", "092039.520000", "092035.680000", "092039.630000", "092035.790000", "092039.740000", "092035.900000", "092039.850000", "092036.010000", "092039.960000", "092036.120000", "092040.067500", "092036.230000", "092040.177500", "092036.337500", "092040.287500", "092036.447500", "092040.397500", "092036.557500", "092040.507500", "092036.667500", "092040.617500", "092036.777500", "092040.727500", "092036.887500", "092040.837500", "092036.997500", "092044.807500", "092040.967500", "092044.915000", "092041.077500", "092045.025000", "092041.185000", "092045.135000", "092041.295000", "092045.245000", "092041.405000", "092045.355000", "092041.515000", "092045.465000", "092041.625000", "092045.575000", "092041.735000", "092045.685000", "092041.845000", "092045.795000", "092041.955000", "092045.902500", "092042.062500", "092046.012500", "092042.172500", "092046.122500", "092042.282500", "092046.232500", "092042.392500", "092046.342500", "092042.502500", "092046.452500", "092042.612500", "092046.562500", "092042.722500", "092046.672500", "092042.832500", "092046.782500", "092042.942500", "092046.890000", "092043.050000", "092047.000000", "092043.160000", "092047.110000", "092043.270000", "092047.220000", "092043.380000", "092047.330000", "092043.490000", "092047.440000", "092043.600000", "092047.550000", "092043.710000", "092047.660000", "092043.820000", "092047.767500", "092043.930000", "092047.877500", "092044.037500", "092047.987500", "092044.147500", "092048.097500", "092044.257500", "092048.207500", "092044.367500", "092048.317500", "092044.477500", "092048.427500", "092044.587500", "092048.537500", "092044.697500", "092052.507500", "092048.667500", "092052.615000", "092048.777500", "092052.725000", "092048.885000", "092052.835000", "092048.995000", "092052.945000", "092049.105000", "092053.055000", "092049.215000", "092053.165000", "092049.325000", "092053.275000", "092049.435000", "092053.385000", "092049.545000", "092053.495000", "092049.655000", "092053.602500", "092049.762500", "092053.712500", "092049.872500", "092053.822500", "092049.982500", "092053.932500", "092050.092500", "092054.042500", "092050.202500", "092054.152500", "092050.312500", "092054.262500", "092050.422500", "092054.372500", "092050.532500", "092054.482500", "092050.642500", "092054.590000", "092050.750000", "092054.700000", "092050.860000", "092054.810000", "092050.970000", "092054.920000", "092051.080000", "092055.030000", "092051.190000", "092055.140000", "092051.300000", "092055.250000", "092051.410000", "092055.360000", "092051.520000", "092055.467500", "092051.630000", "092055.577500", "092051.737500", "092055.687500", "092051.847500", "092055.797500", "092051.957500", "092055.907500", "092052.067500", "092056.017500", "092052.177500", "092056.127500", "092052.287500", "092056.237500", "092052.397500", "092100.207500", "092056.367500", "092100.315000", "092056.477500", "092100.425000", "092056.585000", "092100.535000", "092056.695000", "092100.645000", "092056.805000", "092100.755000", "092056.915000", "092100.865000", "092057.025000", "092100.975000", "092057.135000", "092101.085000", "092057.245000", "092101.195000", "092057.355000", "092101.302500", "092057.462500", "092101.412500", "092057.572500", "092101.522500", "092057.682500", "092101.632500", "092057.792500", "092101.742500", "092057.902500", "092101.852500", "092058.012500", "092101.962500", "092058.122500", "092102.072500", "