{
  "AcquisitionMatrixPE": 80,
  "AcquisitionNumber": 1,
  "AcquisitionTime": "08:50:46.507500",
  "BandwidthPerPixelPhaseEncode": 25,
  "BaseResolution": 80,
  "BodyPartExamined": "BRAIN",
  "CoilCombinationMethod": "Sum of Squares",
  "ConsistencyInfo": "N4_VE11E_LATEST_20181129",
  "ConversionSoftware": "dcm2niix",
  "ConversionSoftwareVersion": "v1.0.20220720",
  "DerivedVendorReportedEchoSpacing": 0.0005,
  "DeviceSerialNumber": "66112",
  "DwellTime": 2.7e-06,
  "EchoTime": 0.03,
  "EchoTrainLength": 80,
  "EffectiveEchoSpacing": 0.0005,
  "FlipAngle": 77,
  "HeudiconvVersion": "0.13.1",
  "ImageOrientationPatientDICOM": [0.987024, 0.160403, 0.00734263, -0.154387, 0.935454, 0.317946],
  "ImageOrientationText": "Tra>Cor(18.4)>Sag(-2.5)",
  "ImageType": [
    "ORIGINAL",
    "PRIMARY",
    "M",
    "ND",
    "NORM",
    "MOSAIC"
],
  "ImagingFrequency": 123.252,
  "InPlanePhaseEncodingDirectionDICOM": "COL",
  "InstitutionAddress": "Maynard 3,Hanover,NH,US,03755",
  "InstitutionName": "Dartmouth College - PBS",
  "InstitutionalDepartmentName": "Department",
  "MRAcquisitionType": "2D",
  "MagneticFieldStrength": 3,
  "Manufacturer": "Siemens",
  "ManufacturersModelName": "Prisma",
  "MatrixCoilMode": "SENSE",
  "Modality": "MR",
  "NonlinearGradientCorrection": false,
  "PartialFourier": 1,
  "PatientPosition": "HFS",
  "PercentPhaseFOV": 100,
  "PercentSampling": 100,
  "PhaseEncodingDirection": "j-",
  "PhaseEncodingSteps": 80,
  "PhaseResolution": 1,
  "PixelBandwidth": 2315,
  "ProcedureStepDescription": "dbic^QA",
  "ProtocolName": "func-bold_fa-77",
  "PulseSequenceDetails": "%SiemensSeq%\\ep2d_bold",
  "ReceiveCoilActiveElements": "HC1-7;NC1,2",
  "ReceiveCoilName": "HeadNeck_64",
  "ReconMatrixPE": 80,
  "RepetitionTime": 2,
  "SAR": 0.0282879,
  "ScanOptions": "FS",
  "ScanningSequence": "EP",
  "SequenceName": "*epfid2d1_80",
  "SequenceVariant": "SK",
  "SeriesDescription": "func-bold_fa-77",
  "SeriesNumber": 7,
  "ShimSetting": [4139, -7703, -7508, 227, -82, -338, -44, 85],
  "SliceThickness": 3.5,
  "SliceTiming": [0.99, 0, 1.055, 0.0675, 1.1225, 0.1325, 1.1875, 0.1975, 1.255, 0.265, 1.32, 0.33, 1.385, 0.3975, 1.4525, 0.4625, 1.5175, 0.5275, 1.585, 0.595, 1.65, 0.66, 1.715, 0.7275, 1.7825, 0.7925, 1.8475, 0.8575, 1.915, 0.925],
  "SoftwareVersions": "syngo MR E11",
  "SpacingBetweenSlices": 3.99,
  "StationName": "AWP66112",
  "TotalReadoutTime": 0.0395,
  "TxRefAmp": 213.136,
  "dcmmeta_affine": [
    [-2.9610729217529297, -0.46316206455230713, -0.1760817915201187, 139.9440460205078],
    [-0.481208473443985, 2.8063628673553467, 1.2566676139831543, -95.03495025634766],
    [0.02202790230512619, -0.9538387060165405, 3.7828404903411865, -13.789396286010742],
    [0.0, 0.0, 0.0, 1.0]
],
  "dcmmeta_reorient_transform": [
    [0.0, -1.0, 0.0, 79.0],
    [1.0, 0.0, 0.0, 0.0],
    [0.0, 0.0, 1.0, 0.0],
    [0.0, 0.0, 0.0, 1.0]
],
  "dcmmeta_shape": [80, 80, 30, 200],
  "dcmmeta_slice_dim": 2,
  "dcmmeta_version": 0.6,
  "global": {
    "const": {
      "AccessionNumber": "qa64",
      "AcquisitionMatrix": [80, 0, 0, 80],
      "AngioFlag": "N",
      "BitsAllocated": 16,
      "BitsStored": 12,
      "BodyPartExamined": "BRAIN",
      "Columns": 480,
      "EchoNumbers": 1,
      "EchoTime": 30.0,
      "EchoTrainLength": 80,
      "FlipAngle": 77.0,
      "HighBit": 11,
      "ImageOrientationPatient": [0.98702432574239, 0.16040282453542, 0.00734263398516, -0.1543873536831, 0.9354542929506, 0.31794623888803],
      "ImagePositionPatient": [-602.93642434324, -784.1819886532, -284.31597873359],
      "ImageType": [
        "ORIGINAL",
        "PRIMARY",
        "M",
        "ND",
        "NORM",
        "MOSAIC"
],
      "ImagedNucleus": "1H",
      "ImagingFrequency": 123.252373,
      "InPlanePhaseEncodingDirection": "COL",
      "MRAcquisitionType": "2D",
      "MagneticFieldStrength": 3.0,
      "Manufacturer": "SIEMENS",
      "ManufacturerModelName": "Prisma",
      "Modality": "MR",
      "NumberOfAverages": 1.0,
      "NumberOfPhaseEncodingSteps": 80,
      "PercentPhaseFieldOfView": 100.0,
      "PercentSampling": 100.0,
      "PerformedProcedureStepStartTime": "083938.973000",
      "PhotometricInterpretation": "MONOCHROME2",
      "PixelBandwidth": 2315.0,
      "PixelRepresentation": 0,
      "PixelSpacing": [3.0, 3.0],
      "ProtocolName": "func-bold_fa-77",
      "RepetitionTime": 2000.0,
      "Rows": 480,
      "SAR": 0.02828787961039,
      "SamplesPerPixel": 1,
      "ScanOptions": "FS",
      "ScanningSequence": "EP",
      "SequenceName": "*epfid2d1_80",
      "SequenceVariant": "SK",
      "SeriesDescription": "func-bold_fa-77",
      "SeriesNumber": 7,
      "SeriesTime": "085136.628000",
      "SliceLocation": -49.180958708499,
      "SliceThickness": 3.5,
      "SmallestImagePixelValue": 0,
      "SoftwareVersions": "syngo MR E11",
      "SpacingBetweenSlices": 3.9900000152918,
      "SpecificCharacterSet": "ISO_IR 100",
      "StudyID": "5",
      "StudyTime": "083938.896000",
      "TransmitCoilName": "Body",
      "VariableFlipAngleFlag": "N",
      "WindowCenterWidthExplanation": "Algo1"
    },
    "slices": {}
  },
  "time": {
    "samples": {
      "AcquisitionNumber": [1, 2, 3, 4, 5, 6, 7, 8, 9, 10, 11, 12, 13, 14, 15, 16, 17, 18, 19, 20, 21, 22, 23, 24, 25, 26, 27, 28, 29, 30, 31, 32, 33, 34, 35, 36, 37, 38, 39, 40, 41, 42, 43, 44, 45, 46, 47, 48, 49, 50, 51, 52, 53, 54, 55, 56, 57, 58, 59, 60, 61, 62, 63, 64, 65, 66, 67, 68, 69, 70, 71, 72, 73, 74, 75, 76, 77, 78, 79, 80, 81, 82, 83, 84, 85, 86, 87, 88, 89, 90, 91, 92, 93, 94, 95, 96, 97, 98, 99, 100, 101, 102, 103, 104, 105, 106, 107, 108, 109, 110, 111, 112, 113, 114, 115, 116, 117, 118, 119, 120, 121, 122, 123, 124, 125, 126, 127, 128, 129, 130, 131, 132, 133, 134, 135, 136, 137, 138, 139, 140, 141, 142, 143, 144, 145, 146, 147, 148, 149, 150, 151, 152, 153, 154, 155, 156, 157, 158, 159, 160, 161, 162, 163, 164, 165, 166, 167, 168, 169, 170, 171, 172, 173, 174, 175, 176, 177, 178, 179, 180, 181, 182, 183, 184, 185, 186, 187, 188, 189, 190, 191, 192, 193, 194, 195, 196, 197, 198, 199, 200],
      "AcquisitionTime": ["085046.507500", "085048.507500", "085050.507500", "085052.507500", "085054.507500", "085056.507500", "085058.507500", "085100.507500", "085102.507500", "085104.507500", "085106.507500", "085108.507500", "085110.507500", "085112.507500", "085114.507500", "085116.507500", "085118.507500", "085120.507500", "085122.507500", "085124.507500", "085126.507500", "085128.507500", "085130.507500", "085132.507500", "085134.507500", "085136.507500", "085138.507500", "085140.507500", "085142.507500", "085144.507500", "085146.507500", "085148.507500", "085150.507500", "085152.507500", "085154.507500", "085156.507500", "085158.507500", "085200.507500", "085202.507500", "085204.507500", "085206.507500", "085208.507500", "085210.507500", "085212.507500", "085214.507500", "085216.507500", "085218.507500", "085220.507500", "085222.507500", "085224.507500", "085226.507500", "085228.507500", "085230.507500", "085232.507500", "085234.507500", "085236.507500", "085238.507500", "085240.507500", "085242.507500", "085244.507500", "085246.507500", "085248.507500", "085250.507500", "085252.507500", "085254.507500", "085256.507500", "085258.507500", "085300.507500", "085302.507500", "085304.507500", "085306.507500", "085308.507500", "085310.507500", "085312.507500", "085314.507500", "085316.507500", "085318.507500", "085320.507500", "085322.507500", "085324.507500", "085326.507500", "085328.507500", "085330.507500", "085332.507500", "085334.507500", "085336.507500", "085338.507500", "085340.507500", "085342.507500", "085344.507500", "085346.507500", "085348.507500", "085350.507500", "085352.507500", "085354.507500", "085356.507500", "085358.507500", "085400.507500", "085402.507500", "085404.507500", "085406.507500", "085408.507500", "085410.507500", "085412.507500", "085414.507500", "085416.507500", "085418.507500", "085420.507500", "085422.507500", "085424.507500", "085426.507500", "085428.507500", "085430.507500", "085432.507500", "085434.507500", "085436.507500", "085438.507500", "085440.507500", "085442.507500", "085444.507500", "085446.507500", "085448.507500", "085450.507500", "085452.507500", "085454.507500", "085456.507500", "085458.507500", "085500.507500", "085502.507500", "085504.507500", "085506.507500", "085508.507500", "085510.507500", "085512.507500", "085514.507500", "085516.507500", "085518.507500", "085520.507500", "085522.507500", "085524.507500", "085526.507500", "085528.507500", "085530.507500", "085532.507500", "085534.507500", "085536.507500", "085538.507500", "085540.507500", "085542.507500", "085544.507500", "085546.507500", "085548.507500", "085550.507500", "085552.507500", "085554.507500", "085556.507500", "085558.507500", "085600.507500", "085602.507500", "085604.507500", "085606.507500", "085608.507500", "085610.507500", "085612.507500", "085614.507500", "085616.507500", "085618.507500", "085620.507500", "085622.507500", "085624.507500", "085626.507500", "085628.507500", "085630.507500", "085632.507500", "085634.507500", "085636.507500", "085638.507500", "085640.507500", "085642.507500", "085644.507500", "085646.507500", "085648.507500", "085650.507500", "085652.507500", "085654.507500", "085656.507500", "085658.507500", "085700.507500", "085702.507500", "085704.507500", "085706.507500", "085708.507500", "085710.507500", "085712.507500", "085714.507500", "085716.507500", "085718.507500", "085720.507500", "085722.507500", "085724.507500"],
      "ContentTime": ["085136.631000", "085136.634000", "085136.640000", "085136.643000", "085136.645000", "085136.647000", "085136.649000", "085136.652000", "085136.654000", "085136.657000", "085136.659000", "085136.661000", "085136.664000", "085136.666000", "085136.668000", "085136.671000", "085136.673000", "085136.675000", "085136.677000", "085136.680000", "085136.682000", "085136.694000", "085136.697000", "085136.699000", "085136.701000", "085216.626000", "085216.629000", "085216.631000", "085216.634000", "085216.636000", "085216.639000", "085216.641000", "085216.643000", "085216.646000", "085216.648000", "085216.650000", "085216.653000", "085216.655000", "085216.657000", "085216.660000", "085216.662000", "085216.664000", "085216.667000", "085216.669000", "085216.672000", "085256.626000", "085256.629000", "085256.631000", "085256.634000", "085256.636000", "085256.638000", "085256.641000", "085256.643000", "085256.645000", "085256.648000", "085256.650000", "085256.653000", "085256.655000", "085256.657000", "085256.660000", "085256.662000", "085256.664000", "085256.667000", "085256.669000", "085256.671000", "085336.626000", "085336.629000", "085336.631000", "085336.634000", "085336.636000", "085336.638000", "085336.641000", "085336.643000", "085336.645000", "085336.648000", "085336.650000", "085336.652000", "085336.655000", "085336.657000", "085336.659000", "085336.662000", "085336.665000", "085336.667000", "085336.669000", "085336.672000", "085416.626000", "085416.629000", "085416.631000", "085416.634000", "085416.636000", "085416.638000", "085416.641000", "085416.643000", "085416.645000", "085416.648000", "085416.650000", "085416.659000", "085416.661000", "085416.664000", "085416.666000", "085416.669000", "085416.671000", "085416.673000", "085416.676000", "085416.678000", "085456.626000", "085456.629000", "085456.631000", "085456.634000", "085456.636000", "085456.638000", "085456.641000", "085456.643000", "085456.645000", "085456.648000", "085456.650000", "085456.653000", "085456.655000", "085456.657000", "085456.659000", "085456.662000", "085456.664000", "085456.667000", "085456.669000", "085456.671000", "085536.626000", "085536.629000", "085536.631000", "085536.634000", "085536.636000", "085536.638000", "085536.641000", "085536.643000", "085536.645000", "085536.648000", "085536.650000", "085536.652000", "085536.655000", "085536.657000", "085536.659000", "085536.662000", "085536.664000", "085536.667000", "085536.669000", "085536.671000", "085616.626000", "085616.629000", "085616.631000", "085616.634000", "085616.636000", "085616.638000", "085616.641000", "085616.643000", "085616.645000", "085616.648000", "085616.650000", "085616.652000", "085616.655000", "085616.657000", "085616.659000", "085616.662000", "085616.664000", "085616.667000", "085616.669000", "085616.671000", "085656.626000", "085656.628000", "085656.631000", "085656.633000", "085656.636000", "085656.638000", "085656.640000", "085656.643000", "085656.645000", "085656.648000", "085656.665000", "085656.668000", "085656.670000", "085656.672000", "085656.675000", "085656.677000", "085656.679000", "085656.682000", "085656.684000", "085656.686000", "085726.496000", "085726.498000", "085726.501000", "085726.504000", "085726.507000", "085726.509000", "085726.512000", "085726.514000", "085726.517000", "085726.519000", "085726.522000", "085726.525000", "085726.530000", "085726.533000", "085726.536000"],
      "InstanceCreationTime": ["085136.631000", "085136.634000", "085136.640000", "085136.643000", "085136.645000", "085136.647000", "085136.649000", "085136.652000", "085136.654000", "085136.657000", "085136.659000", "085136.661000", "085136.664000", "085136.666000", "085136.668000", "085136.671000", "085136.673000", "085136.675000", "085136.677000", "085136.680000", "085136.682000", "085136.694000", "085136.697000", "085136.699000", "085136.701000", "085216.626000", "085216.629000", "085216.631000", "085216.634000", "085216.636000", "085216.639000", "085216.641000", "085216.643000", "085216.646000", "085216.648000", "085216.650000", "085216.653000", "085216.655000", "085216.657000", "085216.660000", "085216.662000", "085216.664000", "085216.667000", "085216.669000", "085216.672000", "085256.626000", "085256.629000", "085256.631000", "085256.634000", "085256.636000", "085256.638000", "085256.641000", "085256.643000", "085256.645000", "085256.648000", "085256.650000", "085256.653000", "085256.655000", "085256.657000", "085256.660000", "085256.662000", "085256.664000", "085256.667000", "085256.669000", "085256.671000", "085336.626000", "085336.629000", "085336.631000", "085336.634000", "085336.636000", "085336.638000", "085336.641000", "085336.643000", "085336.645000", "085336.648000", "085336.650000", "085336.652000", "085336.655000", "085336.657000", "085336.659000", "085336.662000", "085336.665000", "085336.667000", "085336.669000", "085336.672000", "085416.626000", "085416.629000", "085416.631000", "085416.634000", "085416.636000", "085416.638000", "085416.641000", "085416.643000", "085416.645000", "085416.648000", "085416.650000", "085416.659000", "085416.661000", "085416.664000", "085416.666000", "085416.669000", "085416.671000", "085416.673000", "085416.676000", "085416.678000", "085456.626000", "085456.629000", "085456.631000", "085456.634000", "085456.636000", "085456.638000", "085456.641000", "085456.643000", "085456.645000", "085456.648000", "085456.650000", "085456.653000", "085456.655000", "085456.657000", "085456.659000", "085456.662000", "085456.664000", "085456.667000", "085456.669000", "085456.671000", "085536.626000", "085536.629000", "085536.631000", "085536.634000", "085536.636000", "085536.638000", "085536.641000", "085536.643000", "085536.645000", "085536.648000", "085536.650000", "085536.652000", "085536.655000", "085536.657000", "085536.659000", "085536.662000", "085536.664000", "085536.667000", "085536.669000", "085536.671000", "085616.626000", "085616.629000", "085616.631000", "085616.634000", "085616.636000", "085616.638000", "085616.641000", "085616.643000", "085616.645000", "085616.648000", "085616.650000", "085616.652000", "085616.655000", "085616.657000", "085616.659000", "085616.662000", "085616.664000", "085616.667000", "085616.669000", "085616.671000", "085656.626000", "085656.628000", "085656.631000", "085656.633000", "085656.636000", "085656.638000", "085656.640000", "085656.643000", "085656.645000", "085656.648000", "085656.665000", "085656.668000", "085656.670000", "085656.672000", "085656.675000", "085656.677000", "085656.679000", "085656.682000", "085656.684000", "085656.686000", "085726.496000", "085726.498000", "085726.501000", "085726.504000", "085726.507000", "085726.509000", "085726.512000", "085726.514000", "085726.517000", "085726.519000", "085726.522000", "085726.525000", "085726.530000", "085726.533000", "085726.536000"],
      "InstanceNumber": [1, 2, 3, 4, 5, 6, 7, 8, 9, 10, 11, 12, 13, 14, 15, 16, 17, 18, 19, 20, 21, 22, 23, 24, 25, 26, 27, 28, 29, 30, 31, 32, 33, 34, 35, 36, 37, 38, 39, 40, 41, 42, 43, 44, 45, 46, 47, 48, 49, 50, 51, 52, 53, 54, 55, 56, 57, 58, 59, 60, 61, 62, 63, 64, 65, 66, 67, 68, 69, 70, 71, 72, 73, 74, 75, 76, 77, 78, 79, 80, 81, 82, 83, 84, 85, 86, 87, 88, 89, 90, 91, 92, 93, 94, 95, 96, 97, 98, 99, 100, 101, 102, 103, 104, 105, 106, 107, 108, 109, 110, 111, 112, 113, 114, 115, 116, 117, 118, 119, 120, 121, 122, 123, 124, 125, 126, 127, 128, 129, 130, 131, 132, 133, 134, 135, 136, 137, 138, 139, 140, 141, 142, 143, 144, 145, 146, 147, 148, 149, 150, 151, 152, 153, 154, 155, 156, 157, 158, 159, 160, 161, 162, 163, 164, 165, 166, 167, 168, 169, 170, 171, 172, 173, 174, 175, 176, 177, 178, 179, 180, 181, 182, 183, 184, 185, 186, 187, 188, 189, 190, 191, 192, 193, 194, 195, 196, 197, 198, 199, 200],
      "LargestImagePixelValue": [4005, 4006, 4004, 4006, 4009, 4009, 4007, 4006, 4008, 4007, 4007, 4003, 4006, 4002, 4005, 4004, 4002, 4005, 4007, 4004, 4000, 4002, 3999, 4002, 4001, 4000, 3998, 4002, 3998, 3999, 4001, 3999, 4000, 4001, 4002, 3997, 4000, 3999, 4004, 3996, 3999, 3999, 3995, 3995, 4000, 3999, 3995, 3996, 3998, 4001, 4000, 3997, 3995, 3997, 3996, 3998, 3995, 3996, 3995, 3999, 3996, 3996, 3994, 3995, 3992, 3993, 3999, 3995, 3997, 3992, 3995, 3995, 3992, 3991, 3992, 3997, 3992, 3994, 3994, 3991, 3993, 3999, 3994, 3990, 3993, 3993, 3998, 3993, 3991, 3995, 3993, 3988, 3995, 3992, 3991, 3996, 3995, 3991, 3990, 3994, 3993, 3991, 3990, 3994, 3996, 3992, 3997, 3993, 3992, 3992, 3991, 3995, 3986, 3992, 3992, 3996, 3990, 3985, 3991, 3990, 3989, 3991, 3990, 3993, 3986, 3988, 3987, 3989, 3992, 3988, 3986, 3987, 3989, 3991, 3992, 3991, 3988, 3986, 3992, 3989, 3988, 3988, 3991, 3991, 3987, 3991, 3990, 3987, 3986, 3985, 3983, 3985, 3987, 3982, 3989, 3984, 3984, 3986, 3984, 3990, 3986, 3982, 3986, 3983, 3984, 3981, 3985, 3985, 3983, 3981, 3984, 3983, 3981, 3985, 3986, 3980, 3980, 3987, 3976, 3983, 3986, 3983, 3980, 3982, 3985, 3977, 3978, 3982, 3982, 3976, 3981, 3980, 3980, 3979, 3983, 3986, 3980, 3983, 3978, 3980],
      "WindowCenter": [1430.0, 1430.0, 1430.0, 1430.0, 1430.0, 1430.0, 1430.0, 1430.0, 1430.0, 1430.0, 1430.0, 1429.0, 1430.0, 1429.0, 1430.0, 1429.0, 1429.0, 1430.0, 1429.0, 1429.0, 1430.0, 1429.0, 1430.0, 1430.0, 1430.0, 1430.0, 1429.0, 1429.0, 1429.0, 1429.0, 1429.0, 1429.0, 1429.0, 1429.0, 1429.0, 1429.0, 1429.0, 1429.0, 1429.0, 1429.0, 1429.0, 1429.0, 1429.0, 1428.0, 1428.0, 1429.0, 1428.0, 1428.0, 1429.0, 1429.0, 1428.0, 1429.0, 1429.0, 1428.0, 1428.0, 1429.0, 1428.0, 1429.0, 1428.0, 1429.0, 1429.0, 1429.0, 1428.0, 1429.0, 1428.0, 1428.0, 1428.0, 1428.0, 1428.0, 1428.0, 1427.0, 1428.0, 1428.0, 1428.0, 1427.0, 1428.0, 1428.0, 1428.0, 1428.0, 1427.0, 1428.0, 1428.0, 1428.0, 1428.0, 1427.0, 1427.0, 1428.0, 1428.0, 1428.0, 1427.0, 1427.0, 1428.0, 1428.0, 1428.0, 1427.0, 1427.0, 1427.0, 1427.0, 1427.0, 1427.0, 1427.0, 1426.0, 1427.0, 1427.0, 1427.0, 1427.0, 1427.0, 1427.0, 1428.0, 1427.0, 1428.0, 1428.0, 1427.0, 1427.0, 1426.0, 1426.0, 1426.0, 1426.0, 1426.0, 1427.0, 1427.0, 1426.0, 1426.0, 1426.0, 1426.0, 1426.0, 1426.0, 1427.0, 1427.0, 1427.0, 1427.0, 1427.0, 1426.0, 1427.0, 1427.0, 1426.0, 1426.0, 1426.0, 1426.0, 1426.0, 1426.0, 1425.0, 1426.0, 1426.0, 1426.0, 1426.0, 1426.0, 1426.0, 1426.0, 1426.0, 1426.0, 1426.0, 1426.0, 1426.0, 1425.0, 1425.0, 1426.0, 1426.0, 1425.0, 1426.0, 1426.0, 1425.0, 1426.0, 1425.0, 1425.0, 1425.0, 1425.0, 1426.0, 1425.0, 1426.0, 1426.0, 1426.0, 1426.0, 1426.0, 1426.0, 1426.0, 1425.0, 1425.0, 1425.0, 1425.0, 1425.0, 1425.0, 1425.0, 1425.0, 1425.0, 1425.0, 1425.0, 1425.0, 1425.0, 1425.0, 1425.0, 1425.0, 1425.0, 1425.0, 1425.0, 1425.0, 1425.0, 1426.0, 1425.0, 1425.0],
      "WindowWidth": [3360.0, 3360.0, 3361.0, 3361.0, 3360.0, 3360.0, 3360.0, 3360.0, 3360.0, 3360.0, 3360.0, 3360.0, 3360.0, 3360.0, 3360.0, 3360.0, 3360.0, 3360.0, 3360.0, 3360.0, 3360.0, 3360.0, 3360.0, 3360.0, 3360.0, 3360.0, 3360.0, 3360.0, 3360.0, 3360.0, 3360.0, 3360.0, 3360.0, 3360.0, 3360.0, 3360.0, 3360.0, 3360.0, 3360.0, 3360.0, 3360.0, 3359.0, 3359.0, 3359.0, 3359.0, 3360.0, 3359.0, 3359.0, 3360.0, 3360.0, 3359.0, 3360.0, 3359.0, 3359.0, 3359.0, 3359.0, 3359.0, 3359.0, 3359.0, 3359.0, 3359.0, 3359.0, 3359.0, 3359.0, 3359.0, 3359.0, 3359.0, 3359.0, 3359.0, 3359.0, 3359.0, 3359.0, 3359.0, 3359.0, 3359.0, 3359.0, 3359.0, 3359.0, 3359.0, 3359.0, 3359.0, 3359.0, 3359.0, 3359.0, 3359.0, 3359.0, 3359.0, 3359.0, 3359.0, 3359.0, 3358.0, 3358.0, 3359.0, 3359.0, 3359.0, 3359.0, 3358.0, 3359.0, 3358.0, 3359.0, 3358.0, 3358.0, 3358.0, 3358.0, 3358.0, 3358.0, 3358.0, 3358.0, 3358.0, 3358.0, 3358.0, 3358.0, 3358.0, 3358.0, 3358.0, 3358.0, 3358.0, 3358.0, 3358.0, 3358.0, 3358.0, 3358.0, 3358.0, 3358.0, 3358.0, 3358.0, 3358.0, 3358.0, 3358.0, 3358.0, 3358.0, 3358.0, 3358.0, 3358.0, 3357.0, 3357.0, 3358.0, 3358.0, 3357.0, 3357.0, 3357.0, 3357.0, 3358.0, 3357.0, 3357.0, 3357.0, 3358.0, 3358.0, 3357.0, 3357.0, 3357.0, 3357.0, 3357.0, 3357.0, 3357.0, 3357.0, 3357.0, 3357.0, 3357.0, 3357.0, 3357.0, 3357.0, 3357.0, 3357.0, 3357.0, 3357.0, 3357.0, 3356.0, 3357.0, 3357.0, 3357.0, 3356.0, 3357.0, 3357.0, 3356.0, 3357.0, 3357.0, 3357.0, 3357.0, 3357.0, 3357.0, 3357.0, 3357.0, 3357.0, 3357.0, 3357.0, 3357.0, 3357.0, 3357.0, 3357.0, 3357.0, 3357.0, 3357.0, 3357.0, 3356.0, 3356.0, 3356.0, 3356.0, 3357.0, 3356.0]
    },
    "slices": {}
  }
}