{
  "AcquisitionMatrixPE": 80,
  "AcquisitionNumber": 1,
  "AcquisitionTime": "08:43:56.742500",
  "BandwidthPerPixelPhaseEncode": 48.077,
  "BaseResolution": 80,
  "BodyPartExamined": "BRAIN",
  "CoilCombinationMethod": "Sum of Squares",
  "ConsistencyInfo": "N4_VE11E_LATEST_20181129",
  "ConversionSoftware": "dcm2niix",
  "ConversionSoftwareVersion": "v1.0.20220720",
  "DerivedVendorReportedEchoSpacing": 0.000519999,
  "DeviceSerialNumber": "66112",
  "DwellTime": 2.7e-06,
  "EchoTime": 0.035,
  "EchoTrainLength": 39,
  "EffectiveEchoSpacing": 0.00026,
  "FlipAngle": 90,
  "HeudiconvVersion": "0.13.1",
  "ImageOrientationPatientDICOM": [0.987024, 0.160403, 0.00734263, -0.154387, 0.935454, 0.317946],
  "ImageOrientationText": "Tra>Cor(18.4)>Sag(-2.5)",
  "ImageType": [
    "ORIGINAL",
    "PRIMARY",
    "M",
    "ND",
    "NORM",
    "MOSAIC"
],
  "ImagingFrequency": 123.252,
  "InPlanePhaseEncodingDirectionDICOM": "COL",
  "InstitutionAddress": "Maynard 3,Hanover,NH,US,03755",
  "InstitutionName": "Dartmouth College - PBS",
  "InstitutionalDepartmentName": "Department",
  "MRAcquisitionType": "2D",
  "MagneticFieldStrength": 3,
  "Manufacturer": "Siemens",
  "ManufacturersModelName": "Prisma",
  "MatrixCoilMode": "GRAPPA",
  "Modality": "MR",
  "NonlinearGradientCorrection": false,
  "ParallelReductionFactorInPlane": 2,
  "PartialFourier": 1,
  "PatientPosition": "HFS",
  "PercentPhaseFOV": 100,
  "PercentSampling": 100,
  "PhaseEncodingDirection": "j-",
  "PhaseEncodingSteps": 79,
  "PhaseResolution": 1,
  "PixelBandwidth": 2315,
  "ProcedureStepDescription": "dbic^QA",
  "ProtocolName": "func-bold_task-rest_acq-p2",
  "PulseSequenceDetails": "%SiemensSeq%\\ep2d_bold",
  "ReceiveCoilActiveElements": "HC1-7;NC1,2",
  "ReceiveCoilName": "HeadNeck_64",
  "ReconMatrixPE": 80,
  "RefLinesPE": 24,
  "RepetitionTime": 2,
  "SAR": 0.0359965,
  "ScanOptions": "FS",
  "ScanningSequence": "EP",
  "SequenceName": "*epfid2d1_80",
  "SequenceVariant": "SK",
  "SeriesDescription": "func-bold_task-rest_acq-p2",
  "SeriesNumber": 5,
  "ShimSetting": [4139, -7703, -7508, 226, -81, -341, -45, 85],
  "SliceThickness": 3.5,
  "SliceTiming": [0.99, 0, 1.0575, 0.0675, 1.1225, 0.1325, 1.19, 0.2, 1.255, 0.265, 1.32, 0.33, 1.3875, 0.3975, 1.4525, 0.4625, 1.52, 0.53, 1.585, 0.595, 1.65, 0.66, 1.7175, 0.7275, 1.7825, 0.7925, 1.8475, 0.86, 1.915, 0.925],
  "SoftwareVersions": "syngo MR E11",
  "SpacingBetweenSlices": 3.99,
  "StationName": "AWP66112",
  "TaskName": "rest",
  "TotalReadoutTime": 0.02054,
  "TxRefAmp": 213.136,
  "dcmmeta_affine": [
    [-2.9610729217529297, -0.46316206455230713, -0.1760817915201187, 142.1920928955078],
    [-0.481208473443985, 2.8063628673553467, 1.2566676139831543, -96.92626190185547],
    [0.02202790230512619, -0.9538387060165405, 3.7828402519226074, -14.404584884643555],
    [0.0, 0.0, 0.0, 1.0]
],
  "dcmmeta_reorient_transform": [
    [0.0, -1.0, 0.0, 79.0],
    [1.0, 0.0, 0.0, 0.0],
    [0.0, 0.0, 1.0, 0.0],
    [0.0, 0.0, 0.0, 1.0]
],
  "dcmmeta_shape": [80, 80, 30, 200],
  "dcmmeta_slice_dim": 2,
  "dcmmeta_version": 0.6,
  "global": {
    "const": {
      "AccessionNumber": "qa64",
      "AcquisitionMatrix": [80, 0, 0, 80],
      "AngioFlag": "N",
      "BitsAllocated": 16,
      "BitsStored": 12,
      "BodyPartExamined": "BRAIN",
      "Columns": 480,
      "EchoNumbers": 1,
      "EchoTime": 35.0,
      "EchoTrainLength": 39,
      "FlipAngle": 90.0,
      "HighBit": 11,
      "ImageOrientationPatient": [0.98702432574239, 0.16040282453542, 0.00734263398516, -0.1543873536831, 0.9354542929506, 0.31794623888803],
      "ImagePositionPatient": [-605.18446954931, -782.29067939188, -284.93116733223],
      "ImageType": [
        "ORIGINAL",
        "PRIMARY",
        "M",
        "ND",
        "NORM",
        "MOSAIC"
],
      "ImagedNucleus": "1H",
      "ImagingFrequency": 123.252374,
      "InPlanePhaseEncodingDirection": "COL",
      "MRAcquisitionType": "2D",
      "MagneticFieldStrength": 3.0,
      "Manufacturer": "SIEMENS",
      "ManufacturerModelName": "Prisma",
      "Modality": "MR",
      "NumberOfAverages": 1.0,
      "NumberOfPhaseEncodingSteps": 79,
      "PercentPhaseFieldOfView": 100.0,
      "PercentSampling": 100.0,
      "PerformedProcedureStepStartTime": "083938.973000",
      "PhotometricInterpretation": "MONOCHROME2",
      "PixelBandwidth": 2315.0,
      "PixelRepresentation": 0,
      "PixelSpacing": [3.0, 3.0],
      "ProtocolName": "func-bold_task-rest_acq-p2",
      "RepetitionTime": 2000.0,
      "Rows": 480,
      "SAR": 0.03599654304773,
      "SamplesPerPixel": 1,
      "ScanOptions": "FS",
      "ScanningSequence": "EP",
      "SequenceName": "*epfid2d1_80",
      "SequenceVariant": "SK",
      "SeriesDescription": "func-bold_task-rest_acq-p2",
      "SeriesNumber": 5,
      "SeriesTime": "084456.543000",
      "SliceLocation": -50.459090836326,
      "SliceThickness": 3.5,
      "SmallestImagePixelValue": 0,
      "SoftwareVersions": "syngo MR E11",
      "SpacingBetweenSlices": 3.9899999058441,
      "SpecificCharacterSet": "ISO_IR 100",
      "StudyID": "5",
      "StudyTime": "083938.896000",
      "TransmitCoilName": "Body",
      "VariableFlipAngleFlag": "N",
      "WindowCenterWidthExplanation": "Algo1"
    },
    "slices": {}
  },
  "time": {
    "samples": {
      "AcquisitionNumber": [1, 2, 3, 4, 5, 6, 7, 8, 9, 10, 11, 12, 13, 14, 15, 16, 17, 18, 19, 20, 21, 22, 23, 24, 25, 26, 27, 28, 29, 30, 31, 32, 33, 34, 35, 36, 37, 38, 39, 40, 41, 42, 43, 44, 45, 46, 47, 48, 49, 50, 51, 52, 53, 54, 55, 56, 57, 58, 59, 60, 61, 62, 63, 64, 65, 66, 67, 68, 69, 70, 71, 72, 73, 74, 75, 76, 77, 78, 79, 80, 81, 82, 83, 84, 85, 86, 87, 88, 89, 90, 91, 92, 93, 94, 95, 96, 97, 98, 99, 100, 101, 102, 103, 104, 105, 106, 107, 108, 109, 110, 111, 112, 113, 114, 115, 116, 117, 118, 119, 120, 121, 122, 123, 124, 125, 126, 127, 128, 129, 130, 131, 132, 133, 134, 135, 136, 137, 138, 139, 140, 141, 142, 143, 144, 145, 146, 147, 148, 149, 150, 151, 152, 153, 154, 155, 156, 157, 158, 159, 160, 161, 162, 163, 164, 165, 166, 167, 168, 169, 170, 171, 172, 173, 174, 175, 176, 177, 178, 179, 180, 181, 182, 183, 184, 185, 186, 187, 188, 189, 190, 191, 192, 193, 194, 195, 196, 197, 198, 199, 200],
      "AcquisitionTime": ["084356.742500", "084358.742500", "084400.742500", "084402.742500", "084404.742500", "084406.742500", "084408.742500", "084410.742500", "084412.742500", "084414.742500", "084416.742500", "084418.742500", "084420.742500", "084422.742500", "084424.742500", "084426.742500", "084428.742500", "084430.742500", "084432.742500", "084434.742500", "084436.742500", "084438.742500", "084440.742500", "084442.742500", "084444.742500", "084446.742500", "084448.742500", "084450.742500", "084452.742500", "084454.742500", "084456.742500", "084458.742500", "084500.742500", "084502.742500", "084504.742500", "084506.742500", "084508.742500", "084510.742500", "084512.742500", "084514.742500", "084516.742500", "084518.742500", "084520.742500", "084522.742500", "084524.742500", "084526.742500", "084528.742500", "084530.742500", "084532.742500", "084534.742500", "084536.742500", "084538.742500", "084540.742500", "084542.742500", "084544.742500", "084546.742500", "084548.742500", "084550.742500", "084552.742500", "084554.742500", "084556.742500", "084558.742500", "084600.742500", "084602.742500", "084604.742500", "084606.742500", "084608.742500", "084610.742500", "084612.742500", "084614.742500", "084616.742500", "084618.742500", "084620.742500", "084622.742500", "084624.742500", "084626.742500", "084628.742500", "084630.742500", "084632.742500", "084634.742500", "084636.742500", "084638.742500", "084640.742500", "084642.742500", "084644.742500", "084646.742500", "084648.742500", "084650.742500", "084652.742500", "084654.742500", "084656.742500", "084658.742500", "084700.742500", "084702.742500", "084704.742500", "084706.742500", "084708.742500", "084710.742500", "084712.742500", "084714.742500", "084716.742500", "084718.742500", "084720.742500", "084722.742500", "084724.742500", "084726.742500", "084728.742500", "084730.742500", "084732.742500", "084734.742500", "084736.742500", "084738.742500", "084740.742500", "084742.742500", "084744.742500", "084746.742500", "084748.742500", "084750.742500", "084752.742500", "084754.742500", "084756.742500", "084758.742500", "084800.742500", "084802.742500", "084804.742500", "084806.742500", "084808.742500", "084810.742500", "084812.742500", "084814.742500", "084816.742500", "084818.742500", "084820.742500", "084822.742500", "084824.742500", "084826.742500", "084828.742500", "084830.742500", "084832.742500", "084834.742500", "084836.742500", "084838.742500", "084840.742500", "084842.742500", "084844.742500", "084846.742500", "084848.742500", "084850.742500", "084852.742500", "084854.742500", "084856.742500", "084858.742500", "084900.742500", "084902.742500", "084904.742500", "084906.742500", "084908.742500", "084910.742500", "084912.742500", "084914.742500", "084916.742500", "084918.742500", "084920.742500", "084922.742500", "084924.742500", "084926.742500", "084928.742500", "084930.742500", "084932.742500", "084934.742500", "084936.742500", "084938.742500", "084940.742500", "084942.742500", "084944.742500", "084946.742500", "084948.742500", "084950.742500", "084952.742500", "084954.742500", "084956.742500", "084958.742500", "085000.742500", "085002.742500", "085004.742500", "085006.742500", "085008.742500", "085010.742500", "085012.742500", "085014.742500", "085016.742500", "085018.742500", "085020.742500", "085022.742500", "085024.742500", "085026.742500", "085028.742500", "085030.742500", "085032.742500", "085034.742500"],
      "ContentTime": ["084456.547000", "084456.550000", "084456.552000", "084456.555000", "084456.557000", "084456.560000", "084456.563000", "084456.565000", "084456.567000", "084456.570000", "084456.590000", "084456.592000", "084456.595000", "084456.597000", "084456.599000", "084456.602000", "084456.604000", "084456.606000", "084456.609000", "084456.611000", "084456.614000", "084456.616000", "084456.618000", "084456.621000", "084456.623000", "084456.625000", "084456.628000", "084456.630000", "084456.632000", "084536.542000", "084536.545000", "084536.547000", "084536.549000", "084536.552000", "084536.554000", "084536.557000", "084536.559000", "084536.561000", "084536.564000", "084536.566000", "084536.569000", "084536.572000", "084536.574000", "084536.577000", "084536.579000", "084536.582000", "084536.584000", "084536.586000", "084536.589000", "084616.542000", "084616.545000", "084616.547000", "084616.550000", "084616.552000", "084616.554000", "084616.557000", "084616.559000", "084616.562000", "084616.564000", "084616.567000", "084616.569000", "084616.572000", "084616.574000", "084616.576000", "084616.579000", "084616.581000", "084616.583000", "084616.586000", "084616.588000", "084656.542000", "084656.545000", "084656.547000", "084656.550000", "084656.552000", "084656.554000", "084656.557000", "084656.559000", "084656.562000", "084656.564000", "084656.567000", "084656.569000", "084656.572000", "084656.575000", "084656.577000", "084656.580000", "084656.582000", "084656.584000", "084656.587000", "084656.589000", "084736.542000", "084736.545000", "084736.547000", "084736.550000", "084736.552000", "084736.554000", "084736.557000", "084736.559000", "084736.562000", "084736.564000", "084736.566000", "084736.569000", "084736.571000", "084736.587000", "084736.590000", "084736.592000", "084736.596000", "084736.598000", "084736.601000", "084736.603000", "084816.542000", "084816.545000", "084816.547000", "084816.550000", "084816.552000", "084816.554000", "084816.557000", "084816.559000", "084816.562000", "084816.564000", "084816.567000", "084816.569000", "084816.571000", "084816.574000", "084816.576000", "084816.579000", "084816.591000", "084816.594000", "084816.596000", "084816.599000", "084856.542000", "084856.545000", "084856.547000", "084856.549000", "084856.552000", "084856.554000", "084856.557000", "084856.559000", "084856.562000", "084856.564000", "084856.567000", "084856.569000", "084856.571000", "084856.574000", "084856.576000", "084856.579000", "084856.581000", "084856.583000", "084856.586000", "084856.588000", "084936.542000", "084936.545000", "084936.547000", "084936.549000", "084936.552000", "084936.554000", "084936.557000", "084936.559000", "084936.562000", "084936.564000", "084936.566000", "084936.569000", "084936.571000", "084936.573000", "084936.576000", "084936.578000", "084936.581000", "084936.583000", "084936.585000", "084936.588000", "085016.542000", "085016.545000", "085016.547000", "085016.549000", "085016.552000", "085016.554000", "085016.557000", "085016.559000", "085016.562000", "085016.564000", "085016.566000", "085016.569000", "085016.571000", "085016.574000", "085016.576000", "085016.578000", "085016.589000", "085016.591000", "085016.593000", "085016.596000", "085036.580000", "085036.583000", "085036.586000", "085036.589000", "085036.592000", "085036.597000", "085036.600000", "085036.603000", "085036.605000", "085036.607000", "085036.610000"],
      "InstanceCreationTime": ["084456.547000", "084456.550000", "084456.552000", "084456.555000", "084456.557000", "084456.560000", "084456.563000", "084456.565000", "084456.567000", "084456.570000", "084456.590000", "084456.592000", "084456.595000", "084456.597000", "084456.599000", "084456.602000", "084456.604000", "084456.606000", "084456.609000", "084456.611000", "084456.614000", "084456.616000", "084456.618000", "084456.621000", "084456.623000", "084456.625000", "084456.628000", "084456.630000", "084456.632000", "084536.542000", "084536.545000", "084536.547000", "084536.549000", "084536.552000", "084536.554000", "084536.557000", "084536.559000", "084536.561000", "084536.564000", "084536.566000", "084536.569000", "084536.572000", "084536.574000", "084536.577000", "084536.579000", "084536.582000", "084536.584000", "084536.586000", "084536.589000", "084616.542000", "084616.545000", "084616.547000", "084616.550000", "084616.552000", "084616.554000", "084616.557000", "084616.559000", "084616.562000", "084616.564000", "084616.567000", "084616.569000", "084616.572000", "084616.574000", "084616.576000", "084616.579000", "084616.581000", "084616.583000", "084616.586000", "084616.588000", "084656.542000", "084656.545000", "084656.547000", "084656.550000", "084656.552000", "084656.554000", "084656.557000", "084656.559000", "084656.562000", "084656.564000", "084656.567000", "084656.569000", "084656.572000", "084656.575000", "084656.577000", "084656.580000", "084656.582000", "084656.584000", "084656.587000", "084656.589000", "084736.542000", "084736.545000", "084736.547000", "084736.550000", "084736.552000", "084736.554000", "084736.557000", "084736.559000", "084736.562000", "084736.564000", "084736.566000", "084736.569000", "084736.571000", "084736.587000", "084736.590000", "084736.592000", "084736.596000", "084736.598000", "084736.601000", "084736.603000", "084816.542000", "084816.545000", "084816.547000", "084816.550000", "084816.552000", "084816.554000", "084816.557000", "084816.559000", "084816.562000", "084816.564000", "084816.567000", "084816.569000", "084816.571000", "084816.574000", "084816.576000", "084816.579000", "084816.591000", "084816.594000", "084816.596000", "084816.599000", "084856.542000", "084856.545000", "084856.547000", "084856.549000", "084856.552000", "084856.554000", "084856.557000", "084856.559000", "084856.562000", "084856.564000", "084856.567000", "084856.569000", "084856.571000", "084856.574000", "084856.576000", "084856.579000", "084856.581000", "084856.583000", "084856.586000", "084856.588000", "084936.542000", "084936.545000", "084936.547000", "084936.549000", "084936.552000", "084936.554000", "084936.557000", "084936.559000", "084936.562000", "084936.564000", "084936.566000", "084936.569000", "084936.571000", "084936.573000", "084936.576000", "084936.578000", "084936.581000", "084936.583000", "084936.585000", "084936.588000", "085016.542000", "085016.545000", "085016.547000", "085016.549000", "085016.552000", "085016.554000", "085016.557000", "085016.559000", "085016.562000", "085016.564000", "085016.566000", "085016.569000", "085016.571000", "085016.574000", "085016.576000", "085016.578000", "085016.589000", "085016.591000", "085016.593000", "085016.596000", "085036.580000", "085036.583000", "085036.586000", "085036.589000", "085036.592000", "085036.597000", "085036.600000", "085036.603000", "085036.605000", "085036.607000", "085036.610000"],
      "InstanceNumber": [1, 2, 3, 4, 5, 6, 7, 8, 9, 10, 11, 12, 13, 14, 15, 16, 17, 18, 19, 20, 21, 22, 23, 24, 25, 26, 27, 28, 29, 30, 31, 32, 33, 34, 35, 36, 37, 38, 39, 40, 41, 42, 43, 44, 45, 46, 47, 48, 49, 50, 51, 52, 53, 54, 55, 56, 57, 58, 59, 60, 61, 62, 63, 64, 65, 66, 67, 68, 69, 70, 71, 72, 73, 74, 75, 76, 77, 78, 79, 80, 81, 82, 83, 84, 85, 86, 87, 88, 89, 90, 91, 92, 93, 94, 95, 96, 97, 98, 99, 100, 101, 102, 103, 104, 105, 106, 107, 108, 109, 110, 111, 112, 113, 114, 115, 116, 117, 118, 119, 120, 121, 122, 123, 124, 125, 126, 127, 128, 129, 130, 131, 132, 133, 134, 135, 136, 137, 138, 139, 140, 141, 142, 143, 144, 145, 146, 147, 148, 149, 150, 151, 152, 153, 154, 155, 156, 157, 158, 159, 160, 161, 162, 163, 164, 165, 166, 167, 168, 169, 170, 171, 172, 173, 174, 175, 176, 177, 178, 179, 180, 181, 182, 183, 184, 185, 186, 187, 188, 189, 190, 191, 192, 193, 194, 195, 196, 197, 198, 199, 200],
      "LargestImagePixelValue": [4082, 4068, 4068, 4088, 4082, 4075, 4070, 4075, 4089, 4084, 4075, 4079, 4067, 4087, 4084, 4090, 4083, 4060, 4078, 4071, 4082, 4073, 4086, 4072, 4080, 4064, 4070, 4080, 4068, 4057, 4058, 4069, 4085, 4070, 4072, 4075, 4077, 4074, 4076, 4074, 4079, 4071, 4081, 4061, 4069, 4076, 4077, 4077, 4076, 4072, 4065, 4075, 4078, 4074, 4079, 4074, 4068, 4072, 4069, 4067, 4068, 4083, 4061, 4061, 4075, 4064, 4065, 4070, 4076, 4071, 4072, 4068, 4081, 4062, 4067, 4070, 4068, 4064, 4070, 4076, 4060, 4059, 4069, 4058, 4077, 4058, 4063, 4072, 4072, 4066, 4075, 4093, 4064, 4069, 4077, 4071, 4063, 4077, 4089, 4065, 4064, 4075, 4069, 4066, 4062, 4087, 4060, 4063, 4056, 4075, 4072, 4072, 4068, 4061, 4070, 4073, 4055, 4066, 4080, 4059, 4071, 4074, 4065, 4065, 4071, 4077, 4067, 4070, 4076, 4070, 4065, 4071, 4070, 4073, 4074, 4060, 4070, 4059, 4063, 4078, 4067, 4081, 4064, 4068, 4055, 4079, 4066, 4066, 4072, 4073, 4077, 4070, 4072, 4076, 4071, 4061, 4068, 4069, 4067, 4059, 4073, 4068, 4072, 4067, 4075, 4084, 4071, 4072, 4062, 4065, 4057, 4074, 4062, 4066, 4068, 4060, 4065, 4063, 4078, 4067, 4062, 4069, 4067, 4070, 4074, 4075, 4070, 4054, 4070, 4082, 4064, 4067, 4061, 4065, 4074, 4070, 4065, 4062, 4067, 4071],
      "WindowCenter": [1520.0, 1519.0, 1518.0, 1518.0, 1519.0, 1518.0, 1518.0, 1518.0, 1518.0, 1518.0, 1518.0, 1518.0, 1517.0, 1517.0, 1518.0, 1518.0, 1517.0, 1517.0, 1517.0, 1517.0, 1518.0, 1517.0, 1518.0, 1516.0, 1517.0, 1517.0, 1517.0, 1517.0, 1517.0, 1517.0, 1517.0, 1517.0, 1517.0, 1518.0, 1516.0, 1517.0, 1517.0, 1517.0, 1517.0, 1517.0, 1517.0, 1516.0, 1516.0, 1517.0, 1516.0, 1516.0, 1517.0, 1516.0, 1516.0, 1516.0, 1516.0, 1516.0, 1516.0, 1515.0, 1516.0, 1516.0, 1516.0, 1516.0, 1516.0, 1516.0, 1516.0, 1516.0, 1516.0, 1516.0, 1515.0, 1515.0, 1515.0, 1515.0, 1515.0, 1516.0, 1515.0, 1515.0, 1515.0, 1515.0, 1516.0, 1516.0, 1515.0, 1515.0, 1516.0, 1515.0, 1515.0, 1514.0, 1515.0, 1515.0, 1515.0, 1515.0, 1515.0, 1515.0, 1514.0, 1515.0, 1514.0, 1515.0, 1515.0, 1515.0, 1514.0, 1515.0, 1515.0, 1514.0, 1515.0, 1514.0, 1514.0, 1514.0, 1514.0, 1514.0, 1513.0, 1514.0, 1514.0, 1514.0, 1514.0, 1515.0, 1514.0, 1514.0, 1514.0, 1514.0, 1514.0, 1514.0, 1514.0, 1514.0, 1514.0, 1514.0, 1514.0, 1514.0, 1513.0, 1513.0, 1514.0, 1514.0, 1514.0, 1513.0, 1512.0, 1514.0, 1513.0, 1513.0, 1514.0, 1513.0, 1513.0, 1514.0, 1513.0, 1514.0, 1513.0, 1513.0, 1514.0, 1513.0, 1513.0, 1514.0, 1514.0, 1514.0, 1513.0, 1513.0, 1513.0, 1514.0, 1513.0, 1513.0, 1512.0, 1513.0, 1514.0, 1513.0, 1513.0, 1513.0, 1513.0, 1512.0, 1512.0, 1514.0, 1512.0, 1513.0, 1512.0, 1513.0, 1513.0, 1513.0, 1513.0, 1513.0, 1513.0, 1512.0, 1512.0, 1512.0, 1512.0, 1513.0, 1512.0, 1513.0, 1513.0, 1513.0, 1513.0, 1512.0, 1513.0, 1512.0, 1512.0, 1512.0, 1512.0, 1512.0, 1512.0, 1512.0, 1512.0, 1512.0, 1512.0, 1512.0, 1511.0, 1512.0, 1512.0, 1511.0, 1512.0, 1512.0],
      "WindowWidth": [3409.0, 3407.0, 3407.0, 3407.0, 3407.0, 3407.0, 3407.0, 3407.0, 3406.0, 3407.0, 3407.0, 3406.0, 3407.0, 3406.0, 3406.0, 3406.0, 3406.0, 3406.0, 3406.0, 3406.0, 3406.0, 3406.0, 3406.0, 3406.0, 3406.0, 3406.0, 3406.0, 3406.0, 3406.0, 3406.0, 3406.0, 3406.0, 3406.0, 3405.0, 3406.0, 3406.0, 3406.0, 3406.0, 3406.0, 3406.0, 3406.0, 3406.0, 3406.0, 3406.0, 3406.0, 3406.0, 3405.0, 3406.0, 3406.0, 3406.0, 3406.0, 3406.0, 3406.0, 3406.0, 3406.0, 3406.0, 3406.0, 3406.0, 3406.0, 3405.0, 3406.0, 3406.0, 3406.0, 3406.0, 3405.0, 3406.0, 3405.0, 3405.0, 3405.0, 3405.0, 3405.0, 3405.0, 3405.0, 3405.0, 3405.0, 3405.0, 3405.0, 3405.0, 3405.0, 3405.0, 3405.0, 3405.0, 3405.0, 3405.0, 3405.0, 3405.0, 3405.0, 3405.0, 3405.0, 3405.0, 3405.0, 3405.0, 3405.0, 3405.0, 3405.0, 3405.0, 3405.0, 3405.0, 3405.0, 3405.0, 3405.0, 3405.0, 3405.0, 3405.0, 3405.0, 3405.0, 3405.0, 3405.0, 3405.0, 3404.0, 3404.0, 3405.0, 3405.0, 3404.0, 3404.0, 3404.0, 3404.0, 3404.0, 3404.0, 3404.0, 3404.0, 3404.0, 3404.0, 3404.0, 3404.0, 3405.0, 3404.0, 3404.0, 3405.0, 3404.0, 3404.0, 3404.0, 3404.0, 3404.0, 3404.0, 3404.0, 3404.0, 3404.0, 3404.0, 3404.0, 3404.0, 3404.0, 3404.0, 3404.0, 3404.0, 3404.0, 3404.0, 3404.0, 3404.0, 3404.0, 3404.0, 3404.0, 3404.0, 3404.0, 3404.0, 3404.0, 3404.0, 3404.0, 3404.0, 3404.0, 3404.0, 3404.0, 3404.0, 3404.0, 3404.0, 3404.0, 3404.0, 3404.0, 3404.0, 3404.0, 3404.0, 3404.0, 3404.0, 3404.0, 3404.0, 3404.0, 3404.0, 3404.0, 3404.0, 3404.0, 3404.0, 3404.0, 3404.0, 3404.0, 3404.0, 3404.0, 3404.0, 3403.0, 3404.0, 3404.0, 3403.0, 3403.0, 3403.0, 3404.0, 3404.0, 3403.0, 3404.0, 3404.0, 3403.0, 3403.0]
    },
    "slices": {}
  }
}