{
  "AcquisitionMatrixPE": 122,
  "AcquisitionNumber": 1,
  "AcquisitionTime": "12:44:47.190000",
  "BandwidthPerPixelPhaseEncode": 28.76,
  "BaseResolution": 122,
  "BodyPartExamined": "BRAIN",
  "CoilCombinationMethod": "Adaptive Combine",
  "ConsistencyInfo": "N4_VE11C_LATEST_20160120",
  "ConversionSoftware": "dcm2niix",
  "ConversionSoftwareVersion": "v1.0.20220720",
  "DerivedVendorReportedEchoSpacing": 0.000570008,
  "DeviceSerialNumber": "66112",
  "DiffusionScheme": "Monopolar",
  "DwellTime": 2e-06,
  "EchoTime": 0.075,
  "EchoTrainLength": 61,
  "EffectiveEchoSpacing": 0.000285004,
  "FlipAngle": 90,
  "HeudiconvVersion": "0.13.1",
  "ImageOrientationPatientDICOM": [0.999971, 0.00668461, 0.00377668, -0.00750485, 0.954818, 0.297095],
  "ImageOrientationText": "Tra>Cor(17.3)>Sag(0.1)",
  "ImageType": [
    "ORIGINAL",
    "PRIMARY",
    "DIFFUSION",
    "NONE",
    "ND",
    "NORM"
],
  "ImagingFrequency": 123.252,
  "InPlanePhaseEncodingDirectionDICOM": "COL",
  "InstitutionAddress": "Maynard 3,Hanover,NH,US,03755",
  "InstitutionName": "Dartmouth College - PBS",
  "InstitutionalDepartmentName": "Department",
  "MRAcquisitionType": "2D",
  "MagneticFieldStrength": 3,
  "Manufacturer": "Siemens",
  "ManufacturersModelName": "Prisma",
  "MatrixCoilMode": "GRAPPA",
  "Modality": "MR",
  "NonlinearGradientCorrection": false,
  "ParallelReductionFactorInPlane": 2,
  "PartialFourier": 1,
  "PatientPosition": "HFS",
  "PercentPhaseFOV": 100,
  "PercentSampling": 100,
  "PhaseEncodingDirection": "j-",
  "PhaseEncodingSteps": 122,
  "PhaseResolution": 1,
  "PixelBandwidth": 2050,
  "ProcedureStepDescription": "dbic^QA",
  "ProtocolName": "dwi_acq-DTI-30-p2",
  "PulseSequenceDetails": "%SiemensSeq%\\ep2d_diff",
  "ReceiveCoilActiveElements": "HEA;HEP",
  "ReceiveCoilName": "Head_32",
  "ReconMatrixPE": 122,
  "RefLinesPE": 38,
  "RepetitionTime": 7.7,
  "SAR": 0.101441,
  "ScanOptions": "FS",
  "ScanningSequence": "EP",
  "SequenceName": "*ep_b0",
  "SequenceVariant": "SK\\SP",
  "SeriesDescription": "dwi_acq-DTI-30-p2",
  "SeriesNumber": 12,
  "ShimSetting": [4147, -7702, -7518, 259, -91, -103, -13, 67],
  "SliceThickness": 2,
  "SliceTiming": [3.83594, 0, 3.94531, 0.10938, 4.05469, 0.21875, 4.17188, 0.32812, 4.27344, 0.4375, 4.38281, 0.54688, 4.49219, 0.65625, 4.60938, 0.76562, 4.71875, 0.875, 4.82812, 0.98438, 4.9375, 1.09375, 5.04688, 1.20312, 5.15625, 1.3125, 5.26562, 1.42969, 5.375, 1.53125, 5.48438, 1.64062, 5.59375, 1.75, 5.70312, 1.86719, 5.8125, 1.97656, 5.92188, 2.08594, 6.03125, 2.19531, 6.14062, 2.30469, 6.25, 2.41406, 6.35938, 2.52344, 6.46875, 2.63281, 6.57812, 2.74219, 6.6875, 2.85156, 6.80469, 2.96094, 6.91406, 3.07031, 7.02344, 3.17969, 7.125, 3.28906, 7.24219, 3.39844, 7.35156, 3.50781, 7.46094, 3.61719, 7.57031, 3.72656],
  "SoftwareVersions": "syngo MR E11",
  "SpacingBetweenSlices": 2,
  "SpoilingState": true,
  "StationName": "AWP66112",
  "TotalReadoutTime": 0.0344855,
  "TxRefAmp": 221.08,
  "dcmmeta_affine": [
    [-1.9671552181243896, -0.014763634651899338, 0.0032401420176029205, 120.605712890625],
    [-0.013150060549378395, 1.878331184387207, 0.5942306518554688, -118.67991638183594],
    [0.007429537829011679, -0.584449827671051, 1.9096832275390625, -33.13191223144531],
    [0.0, 0.0, 0.0, 1.0]
],
  "dcmmeta_reorient_transform": [
    [0.0, -1.0, 0.0, 121.0],
    [1.0, 0.0, 0.0, 0.0],
    [0.0, 0.0, -1.0, 69.0],
    [0.0, 0.0, 0.0, 1.0]
],
  "dcmmeta_shape": [122, 122, 70, 31],
  "dcmmeta_slice_dim": 2,
  "dcmmeta_version": 0.6,
  "global": {
    "const": {
      "AccessionNumber": "qa",
      "AcquisitionMatrix": [122, 0, 0, 122],
      "AngioFlag": "N",
      "BitsAllocated": 16,
      "BitsStored": 12,
      "BodyPartExamined": "BRAIN",
      "Columns": 122,
      "EchoNumbers": 1,
      "EchoTime": 75.0,
      "EchoTrainLength": 61,
      "FlipAngle": 90.0,
      "HighBit": 11,
      "ImageOrientationPatient": [0.99997052587109, 0.00668461406197, 0.00377668160436, -0.0075048476672, 0.95481833500233, 0.29709531198737],
      "ImageType": [
        "ORIGINAL",
        "PRIMARY",
        "DIFFUSION",
        "NONE",
        "ND",
        "NORM"
],
      "ImagedNucleus": "1H",
      "ImagingFrequency": 123.252343,
      "InPlanePhaseEncodingDirection": "COL",
      "MRAcquisitionType": "2D",
      "MagneticFieldStrength": 3.0,
      "Manufacturer": "SIEMENS",
      "ManufacturerModelName": "Prisma",
      "Modality": "MR",
      "NumberOfAverages": 1.0,
      "NumberOfPhaseEncodingSteps": 122,
      "PercentPhaseFieldOfView": 100.0,
      "PercentSampling": 100.0,
      "PerformedProcedureStepStartTime": "120615.775000",
      "PhotometricInterpretation": "MONOCHROME2",
      "PixelBandwidth": 2050.0,
      "PixelRepresentation": 0,
      "PixelSpacing": [1.9672131538391, 1.9672131538391],
      "ProtocolName": "dwi_acq-DTI-30-p2",
      "RepetitionTime": 7700.0,
      "Rows": 122,
      "SAR": 0.1014409735755,
      "SamplesPerPixel": 1,
      "ScanOptions": "FS",
      "ScanningSequence": "EP",
      "SequenceVariant": [
        "SK",
        "SP"
],
      "SeriesDescription": "dwi_acq-DTI-30-p2",
      "SeriesNumber": 12,
      "SeriesTime": "124447.218000",
      "SliceThickness": 2.0,
      "SmallestImagePixelValue": 0,
      "SoftwareVersions": "syngo MR E11",
      "SpacingBetweenSlices": 2.0,
      "SpecificCharacterSet": "ISO_IR 100",
      "StudyID": "49",
      "StudyTime": "120615.717000",
      "TransmitCoilName": "Body",
      "VariableFlipAngleFlag": "N",
      "WindowCenterWidthExplanation": "Algo1",
      "dBdt": 0.0},
    "slices": {
      "AcquisitionTime": ["124447.190000", "124443.350000", "124447.300000", "124443.460000", "124447.410000", "124443.570000", "124447.520000", "124443.680000", "124447.627500", "124443.790000", "124447.737500", "124443.897500", "124447.847500", "124444.007500", "124447.957500", "124444.117500", "124448.067500", "124444.227500", "124448.177500", "124444.337500", "124448.287500", "124444.447500", "124448.397500", "124444.557500", "124448.507500", "124444.667500", "124448.615000", "124444.777500", "124448.725000", "124444.885000", "124448.835000", "124444.995000", "124448.945000", "124445.105000", "124449.055000", "124445.215000", "124449.165000", "124445.325000", "124449.275000", "124445.435000", "124449.385000", "124445.545000", "124449.495000", "124445.655000", "124449.602500", "124445.762500", "124449.712500", "124445.872500", "124449.822500", "124445.982500", "124449.932500", "124446.092500", "124450.042500", "124446.202500", "124450.152500", "124446.312500", "124450.262500", "124446.422500", "124450.372500", "124446.532500", "124450.480000", "124446.642500", "124450.590000", "124446.750000", "124450.700000", "124446.860000", "124450.810000", "124446.970000", "124450.920000", "124447.080000", "124454.890000", "124451.050000", "124455.000000", "124451.160000", "124455.110000", "124451.270000", "124455.220000", "124451.380000", "124455.327500", "124451.490000", "124455.437500", "124451.597500", "124455.547500", "124451.707500", "124455.657500", "124451.817500", "124455.767500", "124451.927500", "124455.877500", "124452.037500", "124455.987500", "124452.147500", "124456.097500", "124452.257500", "124456.207500", "124452.367500", "124456.315000", "124452.477500", "124456.425000", "124452.585000", "124456.535000", "124452.695000", "124456.645000", "124452.805000", "124456.755000", "124452.915000", "124456.865000", "124453.025000", "124456.975000", "124453.135000", "124457.085000", "124453.245000", "124457.195000", "124453.355000", "124457.302500", "124453.462500", "124457.412500", "124453.572500", "124457.522500", "124453.682500", "124457.632500", "124453.792500", "124457.742500", "124453.902500", "124457.852500", "124454.012500", "124457.962500", "124454.122500", "124458.072500", "124454.232500", "124458.180000", "124454.342500", "124458.290000", "124454.450000", "124458.400000", "124454.560000", "124458.510000", "124454.670000", "124458.620000", "124454.780000", "124502.590000", "124458.750000", "124502.700000", "124458.860000", "124502.810000", "124458.970000", "124502.920000", "124459.080000", "124503.027500", "124459.190000", "124503.137500", "124459.297500", "124503.247500", "124459.407500", "124503.357500", "124459.517500", "124503.467500", "124459.627500", "124503.577500", "124459.737500", "124503.687500", "124459.847500", "124503.797500", "124459.957500", "124503.907500", "124500.067500", "124504.015000", "124500.177500", "124504.125000", "124500.285000", "124504.235000", "124500.395000", "124504.345000", "124500.505000", "124504.455000", "124500.615000", "124504.565000", "124500.725000", "124504.675000", "124500.835000", "124504.785000", "124500.945000", "124504.895000", "124501.055000", "124505.002500", "124501.162500", "124505.112500", "124501.272500", "124505.222500", "124501.382500", "124505.332500", "124501.492500", "124505.442500", "124501.602500", "124505.552500", "124501.712500", "124505.662500", "124501.822500", "124505.772500", "124501.932500", "124505.880000", "124502.042500", "124505.990000", "124502.150000", "124506.100000", "124502.260000", "124506.210000", "124502.370000", "124506.320000", "124502.480000", "124510.290000", "124506.450000", "124510.400000", "124506.560000", "124510.510000", "124506.670000", "124510.620000", "124506.780000", "124510.727500", "124506.890000", "124510.837500", "124506.997500", "124510.947500", "124507.107500", "124511.057500", "124507.217500", "124511.167500", "124507.327500", "124511.277500", "124507.437500", "124511.387500", "124507.547500", "124511.497500", "124507.657500", "124511.607500", "124507.767500", "124511.715000", "124507.877500", "124511.825000", "124507.985000", "124511.935000", "124508.095000", "124512.045000", "124508.205000", "124512.155000", "124508.315000", "124512.265000", "124508.425000", "124512.375000", "124508.535000", "124512.485000", "124508.645000", "124512.595000", "124508.755000", "124512.702500", "124508.862500", "124512.812500", "124508.972500", "124512.922500", "124509.082500", "124513.032500", "124509.192500", "124513.142500", "124509.302500", "124513.252500", "124509.412500", "124513.362500", "124509.522500", "124513.472500", "124509.632500", "124513.580000", "124509.742500", "124513.690000", "124509.850000", "124513.800000", "124509.960000", "124513.910000", "124510.070000", "124514.020000", "124510.180000", "124517.990000", "124514.150000", "124518.100000", "124514.260000", "124518.210000", "124514.370000", "124518.320000", "124514.480000", "124518.427500", "124514.590000", "124518.537500", "124514.697500", "124518.647500", "124514.807500", "124518.757500", "124514.917500", "124518.867500", "124515.027500", "124518.977500", "124515.137500", "124519.087500", "124515.247500", "124519.197500", "124515.357500", "124519.307500", "124515.467500", "124519.415000", "124515.577500", "124519.525000", "124515.685000", "124519.635000", "124515.795000", "124519.745000", "124515.905000", "124519.855000", "124516.015000", "124519.965000", "124516.125000", "124520.075000", "124516.235000", "124520.185000", "124516.345000", "124520.295000", "124516.455000", "124520.402500", "124516.562500", "124520.512500", "124516.672500", "124520.622500", "124516.782500", "124520.732500", "124516.892500", "124520.842500", "124517.002500", "124520.952500", "124517.112500", "124521.062500", "124517.222500", "124521.172500", "124517.332500", "124521.280000", "124517.442500", "124521.390000", "124517.550000", "124521.500000", "124517.660000", "124521.610000", "124517.770000", "124521.720000", "124517.880000", "124525.690000", "124521.850000", "124525.800000", "124521.960000", "124525.910000", "124522.070000", "124526.020000", "124522.180000", "124526.127500", "124522.290000", "124526.237500", "124522.397500", "124526.347500", "124522.507500", "124526.457500", "124522.617500", "124526.567500", "124522.727500", "124526.677500", "124522.837500", "124526.787500", "124522.947500", "124526.897500", "124523.057500", "124527.007500", "124523.167500", "124527.115000", "124523.277500", "124527.225000", "124523.385000", "124527.335000", "124523.495000", "124527.445000", "124523.605000", "124527.555000", "124523.715000", "124527.665000", "124523.825000", "124527.775000", "124523.935000", "124527.885000", "124524.045000", "124527.995000", "124524.155000", "124528.102500", "124524.262500", "124528.212500", "124524.372500", "124528.322500", "124524.482500", "124528.432500", "124524.592500", "124528.542500", "124524.702500", "124528.652500", "124524.812500", "124528.762500", "124524.922500", "124528.872500", "124525.032500", "124528.980000", "124525.142500", "124529.090000", "124525.250000", "124529.200000", "124525.360000", "124529.310000", "124525.470000", "124529.420000", "124525.580000", "124533.390000", "124529.550000", "124533.500000", "124529.660000", "124533.610000", "124529.770000", "124533.720000", "124529.880000", "124533.827500", "124529.990000", "124533.937500", "124530.097500", "124534.047500", "124530.207500", "124534.157500", "124530.317500", "124534.267500", "124530.427500", "124534.377500", "124530.537500", "124534.487500", "124530.647500", "124534.597500", "124530.757500", "124534.707500", "124530.867500", "124534.815000", "124530.977500", "124534.925000", "124531.085000", "124535.035000", "124531.195000", "124535.145000", "124531.305000", "124535.255000", "124531.415000", "124535.365000", "124531.525000", "124535.475000", "124531.635000", "124535.585000", "124531.745000", "124535.695000", "124531.855000", "124535.802500", "124531.962500", "124535.912500", "124532.072500", "124536.022500", "124532.182500", "124536.132500", "124532.292500", "124536.242500", "124532.402500", "124536.352500", "124532.512500", "124536.462500", "124532.622500", "124536.572500", "124532.732500", "124536.680000", "124532.842500", "124536.790000", "124532.950000", "124536.900000", "124533.060000", "124537.010000", "124533.170000", "124537.120000", "124533.280000", "124541.090000", "124537.250000", "124541.200000", "124537.360000", "124541.310000", "124537.470000", "124541.420000", "124537.580000", "124541.527500", "124537.690000", "124541.637500", "124537.797500", "124541.747500", "124537.907500", "124541.857500", "124538.017500", "124541.967500", "124538.127500", "124542.077500", "124538.237500", "124542.187500", "124538.347500", "124542.297500", "124538.457500", "124542.407500", "124538.567500", "124542.515000", "124538.677500", "124542.625000", "124538.785000", "124542.735000", "124538.895000", "124542.845000", "124539.005000", "124542.955000", "124539.115000", "124543.065000", "124539.225000", "124543.175000", "124539.335000", "124543.285000", "124539.445000", "124543.395000", "124539.555000", "124543.502500", "124539.662500", "124543.612500", "124539.772500", "124543.722500", "124539.882500", "124543.832500", "124539.992500", "124543.942500", "124540.102500", "124544.052500", "124540.212500", "124544.162500", "124540.322500", "124544.272500", "124540.432500", "124544.380000", "124540.542500", "124544.490000", "124540.650000", "124544.600000", "124540.760000", "124544.710000", "124540.870000", "124544.820000", "124540.980000", "124548.790000", "124544.950000", "124548.900000", "124545.060000", "124549.010000", "124545.170000", "124549.120000", "124545.280000", "124549.227500", "124545.390000", "124549.337500", "124545.497500", "124549.447500", "124545.607500", "124549.557500", "124545.717500", "124549.667500", "124545.827500", "124549.777500", "124545.937500", "124549.887500", "124546.047500", "124549.997500", "124546.157500", "124550.107500", "124546.267500", "124550.215000", "124546.377500", "124550.325000", "124546.485000", "124550.435000", "124546.595000", "124550.545000", "124546.705000", "124550.655000", "124546.815000", "124550.765000", "124546.925000", "124550.875000", "124547.035000", "124550.985000", "124547.145000", "124551.095000", "124547.255000", "124551.202500", "124547.362500", "124551.312500", "124547.472500", "124551.422500", "124547.582500", "124551.532500", "124547.692500", "124551.642500", "124547.802500", "124551.752500", "124547.912500", "124551.862500", "124548.022500", "124551.972500", "124548.132500", "124552.080000", "124548.242500", "124552.190000", "124548.350000", "124552.300000", "124548.460000", "124552.410000", "124548.570000", "124552.520000", "124548.680000", "124556.490000", "124552.650000", "124556.600000", "124552.760000", "124556.710000", "124552.870000", "124556.820000", "124552.980000", "124556.927500", "124553.090000", "124557.037500", "124553.197500", "124557.147500", "124553.307500", "124557.257500", "124553.417500", "124557.367500", "124553.527500", "124557.477500", "124553.637500", "124557.587500", "124553.747500", "124557.697500", "124553.857500", "124557.807500", "124553.967500", "124557.915000", "124554.077500", "124558.025000", "124554.185000", "124558.135000", "124554.295000", "124558.245000", "124554.405000", "124558.355000", "124554.515000", "124558.465000", "124554.625000", "124558.575000", "124554.735000", "124558.685000", "124554.845000", "124558.795000", "124554.955000", "124558.902500", "124555.062500", "124559.012500", "124555.172500", "124559.122500", "124555.282500", "124559.232500", "124555.392500", "124559.342500", "124555.502500", "124559.452500", "124555.612500", "124559.562500", "124555.722500", "124559.672500", "124555.832500", "124559.780000", "124555.942500", "124559.890000", "124556.050000", "124600.000000", "124556.160000", "124600.110000", "124556.270000", "124600.220000", "124556.380000", "124604.190000", "124600.350000", "124604.300000", "124600.460000", "124604.410000", "124600.570000", "124604.520000", "124600.680000", "124604.627500", "124600.790000", "124604.737500", "124600.897500", "124604.847500", "124601.007500", "124604.957500", "124601.117500", "124605.067500", "124601.227500", "124605.177500", "124601.337500", "124605.287500", "124601.447500", "124605.397500", "124601.557500", "124605.507500", "124601.667500", "124605.615000", "124601.777500", "124605.725000", "124601.885000", "124605.835000", "124601.995000", "124605.945000", "124602.105000", "124606.055000", "124602.215000", "124606.165000", "124602.325000", "124606.275000", "124602.435000", "124606.385000", "124602.545000", "124606.495000", "124602.655000", "124606.602500", "124602.762500", "124606.712500", "124602.872500", "124606.822500", "124602.982500", "124606.932500", "124603.092500", "124607.042500", "124603.202500", "124607.152500", "124603.312500", "124607.262500", "124603.422500", "124607.372500", "124603.532500", "124607.480000", "124603.642500", "124607.590000", "124603.750000", "124607.700000", "124603.860000", "124607.810000", "124603.970000", "124607.920000", "124604.080000", "124611.890000", "124608.050000", "124612.000000", "124608.160000", "124612.110000", "124608.270000", "124612.220000", "124608.380000", "124612.327500", "124608.490000", "124612.437500", "124608.597500", "124612.547500", "124608.707500", "124612.657500", "124608.817500", "124612.767500", "124608.927500", "124612.877500", "124609.037500", "124612.987500", "124609.147500", "124613.097500", "124609.257500", "124613.207500", "124609.367500", "124613.315000", "124609.477500", "124613.425000", "124609.585000", "124613.535000", "124609.695000", "124613.645000", "124609.805000", "124613.755000", "124609.915000", "124613.865000", "124610.025000", "124613.975000", "124610.135000", "124614.085000", "124610.245000", "124614.195000", "124610.355000", "124614.302500", "124610.462500", "124614.412500", "124610.572500", "124614.522500", "124610.682500", "124614.632500", "124610.792500", "124614.742500", "124610.902500", "124614.852500", "124611.012500", "124614.962500", "124611.122500", "124615.072500", "124611.232500", "124615.180000", "124611.342500", "124615.290000", "124611.450000", "124615.400000", "124611.560000", "124615.510000", "124611.670000", "124615.620000", "124611.780000", "124619.590000", "124615.750000", "124619.700000", "124615.860000", "124619.810000", "124615.970000", "124619.920000", "124616.080000", "124620.027500", "124616.190000", "124620.137500", "124616.297500", "124620.247500", "124616.407500", "124620.357500", "124616.517500", "124620.467500", "124616.627500", "124620.577500", "124616.737500", "124620.687500", "124616.847500", "124620.797500", "124616.957500", "124620.907500", "124617.067500", "124621.015000", "124617.177500", "124621.125000", "124617.285000", "124621.235000", "124617.395000", "124621.345000", "124617.505000", "124621.455000", "124617.615000", "124621.565000", "124617.725000", "124621.675000", "124617.835000", "124621.785000", "124617.945000", "124621.895000", "124618.055000", "124622.002500", "124618.162500", "124622.112500", "124618.272500", "124622.222500", "124618.382500", "124622.332500", "124618.492500", "124622.442500", "124618.602500", "124622.552500", "124618.712500", "124622.662500", "124618.822500", "124622.772500", "124618.932500", "124622.880000", "124619.042500", "124622.990000", "124619.150000", "124623.100000", "124619.260000", "124623.210000", "124619.370000", "124623.320000", "124619.480000", "124627.290000", "124623.450000", "124627.400000", "124623.560000", "124627.510000", "124623.670000", "124627.620000", "124623.780000", "124627.727500", "124623.890000", "124627.837500", "124623.997500", "124627.947500", "124624.107500", "124628.057500", "124624.217500", "124628.167500", "124624.327500", "124628.277500", "124624.437500", "124628.387500", "124624.547500", "124628.497500", "124624.657500", "124628.607500", "124624.767500", "124628.715000", "124624.877500", "124628.825000", "124624.985000", "124628.935000", "124625.095000", "124629.045000", "124625.205000", "124629.155000", "124625.315000", "124629.265000", "124625.425000", "124629.375000", "124625.535000", "124629.485000", "124625.645000", "124629.595000", "124625.755000", "124629.702500", "124625.862500", "124629.812500", "124625.972500", "124629.922500", "124626.082500", "124630.032500", "124626.192500", "124630.142500", "124626.302500", "124630.252500", "124626.412500", "124630.362500", "124626.522500", "124630.472500", "124626.632500", "124630.580000", "124626.742500", "124630.690000", "124626.850000", "124630.800000", "124626.960000", "124630.910000", "124627.070000", "124631.020000", "124627.180000", "124634.990000", "124631.150000", "124635.100000", "124631.260000", "124635.210000", "124631.370000", "124635.320000", "124631.480000", "124635.427500", "124631.590000", "124635.537500", "124631.697500", "124635.647500", "124631.807500", "124635.757500", "124631.917500", "124635.867500", "124632.027500", "124635.977500", "124632.137500", "124636.087500", "124632.247500", "124636.197500", "124632.357500", "124636.307500", "124632.467500", "124636.415000", "124632.577500", "124636.525000", "124632.685000", "124636.635000", "124632.795000", "124636.745000", "124632.905000", "124636.855000", "124633.015000", "124636.965000", "124633.125000", "124637.075000", "124633.235000", "124637.185000", "124633.345000", "124637.295000", "124633.455000", "124637.402500", "124633.562500", "124637.512500", "124633.672500", "124637.622500", "124633.782500", "124637.732500", "124633.892500", "124637.842500", "124634.002500", "124637.952500", "124634.112500", "124638.062500", "124634.222500", "124638.172500", "124634.332500", "124638.280000", "124634.442500", "124638.390000", "124634.550000", "124638.500000", "124634.660000", "124638.610000", "124634.770000", "124638.720000", "124634.880000", "124642.690000", "124638.850000", "124642.800000", "124638.960000", "124642.910000", "124639.070000", "124643.020000", "124639.180000", "124643.127500", "124639.290000", "124643.237500", "124639.397500", "124643.347500", "124639.507500", "124643.457500", "124639.617500", "124643.567500", "124639.727500", "124643.677500", "124639.837500", "124643.787500", "124639.947500", "124643.897500", "124640.057500", "124644.007500", "124640.167500", "124644.115000", "124640.277500", "124644.225000", "124640.385000", "124644.335000", "124640.495000", "124644.445000", "124640.605000", "124644.555000", "124640.715000", "124644.665000", "124640.825000", "124644.775000", "124640.935000", "124644.885000", "124641.045000", "124644.995000", "124641.155000", "124645.102500", "124641.262500", "124645.212500", "124641.372500", "124645.322500", "124641.482500", "124645.432500", "124641.592500", "124645.542500", "124641.702500", "124645.652500", "124641.812500", "124645.762500", "124641.922500", "124645.872500", "124642.032500", "124645.980000", "124642.142500", "124646.090000", "124642.250000", "124646.200000", "124642.360000", "124646.310000", "124642.470000", "124646.420000", "124642.580000", "124650.390000", "124646.550000", "124650.500000", "124646.660000", "124650.610000", "124646.770000", "124650.720000", "124646.880000", "124650.827500", "124646.990000", "124650.937500", "124647.097500", "124651.047500", "124647.207500", "124651.157500", "124647.317500", "124651.267500", "124647.427500", "124651.377500", "124647.537500", "124651.487500", "124647.647500", "124651.597500", "124647.757500", "124651.707500", "124647.867500", "124651.815000", "124647.977500", "124651.925000", "124648.085000", "124652.035000", "124648.195000", "124652.145000", "124648.305000", "124652.255000", "124648.415000", "124652.365000", "124648.525000", "124652.475000", "124648.635000", "124652.585000", "124648.745000", "124652.695000", "124648.855000", "124652.802500", "124648.962500", "124652.912500", "124649.072500", "124653.022500", "124649.182500", "124653.132500", "124649.292500", "124653.242500", "124649.402500", "124653.352500", "124649.512500", "124653.462500", "124649.622500", "124653.572500", "124649.732500", "124653.680000", "124649.842500", "124653.790000", "124649.950000", "124653.900000", "124650.060000", "124654.010000", "124650.170000", "124654.120000", "124650.280000", "124658.090000", "124654.250000", "124658.200000", "124654.360000", "124658.310000", "124654.470000", "124658.420000", "124654.580000", "124658.527500", "124654.690000", "124658.637500", "124654.797500", "124658.747500", "124654.907500", "124658.857500", "124655.017500", "124658.967500", "124655.127500", "124659.077500", "124655.237500", "124659.187500", "124655.347500", "124659.297500", "124655.457500", "124659.407500", "124655.567500", "124659.515000", "124655.677500", "124659.625000", "124655.785000", "124659.735000", "124655.895000", "124659.845000", "124656.005000", "124659.955000", "124656.115000", "124700.065000", "124656.225000", "124700.175000", "124656.335000", "124700.285000", "124656.445000", "124700.395000", "124656.555000", "124700.502500", "124656.662500", "124700.612500", "124656.772500", "124700.722500", "124656.882500", "124700.832500", "124656.992500", "124700.942500", "124657.102500", "124701.052500", "124657.212500", "124701.162500", "124657.322500", "124701.272500", "124657.432500", "124701.380000", "124657.542500", "124701.490000", "124657.650000", "124701.600000", "124657.760000", "124701.710000", "124657.870000", "124701.820000", "124657.980000", "124705.790000", "124701.950000", "124705.900000", "124702.060000", "124706.010000", "124702.170000", "124706.120000", "124702.280000", "124706.227500", "124702.390000", "124706.337500", "124702.497500", "124706.447500", "124702.607500", "124706.557500", "124702.717500", "124706.667500", "124702.827500", "124706.777500", "124702.937500", "124706.887500", "124703.047500", "124706.997500", "124703.157500", "124707.107500", "124703.267500", "124707.215000", "124703.377500", "124707.325000", "124703.485000", "124707.435000", "124703.595000", "124707.545000", "124703.705000", "124707.655000", "124703.815000", "124707.765000", "124703.925000", "124707.875000", "124704.035000", "124707.985000", "124704.145000", "124708.095000", "124704.255000", "124708.202500", "124704.362500", "124708.312500", "124704.472500", "124708.422500", "124704.582500", "124708.532500", "124704.692500", "124708.642500", "124704.802500", "124708.752500", "124704.912500", "124708.862500", "124705.022500", "124708.972500", "124705.132500", "124709.080000", "124705.242500", "124709.190000", "124705.350000", "124709.300000", "124705.460000", "124709.410000", "124705.570000", "124709.520000", "124705.680000", "124713.490000", "124709.650000", "124713.600000", "124709.760000", "124713.710000", "124709.870000", "124713.820000", "124709.980000", "124713.927500", "124710.090000", "124714.037500", "124710.197500", "124714.147500", "124710.307500", "124714.257500", "124710.417500", "124714.367500", "124710.527500", "124714.477500", "124710.637500", "124714.587500", "124710.747500", "124714.697500", "124710.857500", "124714.807500", "124710.967500", "124714.915000", "124711.077500", "124715.025000", "124711.185000", "124715.135000", "124711.295000", "124715.245000", "124711.405000", "124715.355000", "124711.515000", "124715.465000", "124711.625000", "124715.575000", "124711.735000", "124715.685000", "124711.845000", "124715.795000", "124711.955000", "124715.902500", "124712.062500", "124716.012500", "124712.172500", "124716.122500", "124712.282500", "124716.232500", "124712.392500", "124716.342500", "124712.502500", "124716.452500", "124712.612500", "124716.562500", "124712.722500", "124716.672500", "124712.832500", "124716.780000", "124712.942500", "124716.890000", "124713.050000", "124717.000000", "124713.160000", "124717.110000", "124713.270000", "124717.220000", "124713.380000", "124721.190000", "124717.350000", "124721.300000", "124717.460000", "124721.410000", "124717.570000", "124721.520000", "124717.680000", "124721.627500", "124717.790000", "124721.737500", "124717.897500", "124721.847500", "124718.007500", "124721.957500", "124718.117500", "124722.067500", "124718.227500", "124722.177500", "124718.337500", "124722.287500", "124718.447500", "124722.397500", "124718.557500", "124722.507500", "124718.667500", "124722.615000", "124718.777500", "124722.725000", "124718.885000", "124722.835000", "124718.995000", "124722.945000", "124719.105000", "124723.055