{
  "AcquisitionMatrixPE": 122,
  "AcquisitionNumber": 1,
  "AcquisitionTime": "09:03:44.180000",
  "BandwidthPerPixelPhaseEncode": 28.76,
  "BaseResolution": 122,
  "BodyPartExamined": "BRAIN",
  "CoilCombinationMethod": "Adaptive Combine",
  "ConsistencyInfo": "N4_VE11C_LATEST_20160120",
  "ConversionSoftware": "dcm2niix",
  "ConversionSoftwareVersion": "v1.0.20220720",
  "DerivedVendorReportedEchoSpacing": 0.000570008,
  "DeviceSerialNumber": "66112",
  "DiffusionScheme": "Monopolar",
  "DwellTime": 2e-06,
  "EchoTime": 0.075,
  "EchoTrainLength": 61,
  "EffectiveEchoSpacing": 0.000285004,
  "FlipAngle": 90,
  "HeudiconvVersion": "0.13.1",
  "ImageOrientationPatientDICOM": [0.999952, 0.00906297, 0.00375726, -0.00977363, 0.953571, 0.30101],
  "ImageOrientationText": "Tra>Cor(17.5)>Sag(0.0)",
  "ImageType": [
    "ORIGINAL",
    "PRIMARY",
    "DIFFUSION",
    "NONE",
    "ND",
    "NORM"
],
  "ImagingFrequency": 123.252,
  "InPlanePhaseEncodingDirectionDICOM": "COL",
  "InstitutionAddress": "Maynard 3,Hanover,NH,US,03755",
  "InstitutionName": "Dartmouth College - PBS",
  "InstitutionalDepartmentName": "Department",
  "MRAcquisitionType": "2D",
  "MagneticFieldStrength": 3,
  "Manufacturer": "Siemens",
  "ManufacturersModelName": "Prisma",
  "MatrixCoilMode": "GRAPPA",
  "Modality": "MR",
  "NonlinearGradientCorrection": false,
  "ParallelReductionFactorInPlane": 2,
  "PartialFourier": 1,
  "PatientPosition": "HFS",
  "PercentPhaseFOV": 100,
  "PercentSampling": 100,
  "PhaseEncodingDirection": "j-",
  "PhaseEncodingSteps": 122,
  "PhaseResolution": 1,
  "PixelBandwidth": 2050,
  "ProcedureStepDescription": "dbic^QA",
  "ProtocolName": "dwi_acq-DTI-30-p2",
  "PulseSequenceDetails": "%SiemensSeq%\\ep2d_diff",
  "ReceiveCoilActiveElements": "HEA;HEP",
  "ReceiveCoilName": "Head_32",
  "ReconMatrixPE": 122,
  "RefLinesPE": 38,
  "RepetitionTime": 7.7,
  "SAR": 0.087181,
  "ScanOptions": "FS",
  "ScanningSequence": "EP",
  "SequenceName": "*ep_b0",
  "SequenceVariant": "SK\\SP",
  "SeriesDescription": "dwi_acq-DTI-30-p2",
  "SeriesNumber": 12,
  "ShimSetting": [4146, -7701, -7524, 303, -52, -122, -48, 83],
  "SliceThickness": 2,
  "SliceTiming": [3.83594, 0, 3.94531, 0.10938, 4.05469, 0.21875, 4.16406, 0.32031, 4.27344, 0.4375, 4.38281, 0.54688, 4.49219, 0.65625, 4.60156, 0.76562, 4.71094, 0.875, 4.82031, 0.98438, 4.9375, 1.09375, 5.03906, 1.20312, 5.14844, 1.3125, 5.25781, 1.42188, 5.375, 1.53125, 5.48438, 1.64062, 5.59375, 1.75, 5.70312, 1.85938, 5.8125, 1.96875, 5.92188, 2.07812, 6.03125, 2.1875, 6.14062, 2.29688, 6.25, 2.40625, 6.35938, 2.51562, 6.46875, 2.625, 6.57812, 2.74219, 6.6875, 2.85156, 6.79688, 2.96094, 6.90625, 3.0625, 7.01562, 3.17969, 7.125, 3.28906, 7.23438, 3.39844, 7.34375, 3.50781, 7.45312, 3.61719, 7.5625, 3.72656],
  "SoftwareVersions": "syngo MR E11",
  "SpacingBetweenSlices": 2,
  "SpoilingState": true,
  "StationName": "AWP66112",
  "TotalReadoutTime": 0.0344855,
  "TxRefAmp": 229.82,
  "dcmmeta_affine": [
    [-1.967118501663208, -0.019226817414164543, 0.0017094612121582031, 123.03063201904297],
    [-0.017828799784183502, 1.8758771419525146, 0.6020660400390625, -120.63551330566406],
    [0.007391337305307388, -0.5921510457992554, 1.9072265625, -53.1483039855957],
    [0.0, 0.0, 0.0, 1.0]
],
  "dcmmeta_reorient_transform": [
    [0.0, -1.0, 0.0, 121.0],
    [1.0, 0.0, 0.0, 0.0],
    [0.0, 0.0, -1.0, 69.0],
    [0.0, 0.0, 0.0, 1.0]
],
  "dcmmeta_shape": [122, 122, 70, 31],
  "dcmmeta_slice_dim": 2,
  "dcmmeta_version": 0.6,
  "global": {
    "const": {
      "AccessionNumber": "qa",
      "AcquisitionMatrix": [122, 0, 0, 122],
      "AngioFlag": "N",
      "BitsAllocated": 16,
      "BitsStored": 12,
      "BodyPartExamined": "BRAIN",
      "Columns": 122,
      "EchoNumbers": 1,
      "EchoTime": 75.0,
      "EchoTrainLength": 61,
      "FlipAngle": 90.0,
      "HighBit": 11,
      "ImageOrientationPatient": [0.99995187158706, 0.00906297319515, 0.00375726315354, -0.0097736317546, 0.953570861229, 0.30101011401164],
      "ImageType": [
        "ORIGINAL",
        "PRIMARY",
        "DIFFUSION",
        "NONE",
        "ND",
        "NORM"
],
      "ImagedNucleus": "1H",
      "ImagingFrequency": 123.252408,
      "InPlanePhaseEncodingDirection": "COL",
      "MRAcquisitionType": "2D",
      "MagneticFieldStrength": 3.0,
      "Manufacturer": "SIEMENS",
      "ManufacturerModelName": "Prisma",
      "Modality": "MR",
      "NumberOfAverages": 1.0,
      "NumberOfPhaseEncodingSteps": 122,
      "PercentPhaseFieldOfView": 100.0,
      "PercentSampling": 100.0,
      "PerformedProcedureStepStartTime": "082803.112000",
      "PhotometricInterpretation": "MONOCHROME2",
      "PixelBandwidth": 2050.0,
      "PixelRepresentation": 0,
      "PixelSpacing": [1.9672131538391, 1.9672131538391],
      "ProtocolName": "dwi_acq-DTI-30-p2",
      "RepetitionTime": 7700.0,
      "Rows": 122,
      "SAR": 0.08718098972866,
      "SamplesPerPixel": 1,
      "ScanOptions": "FS",
      "ScanningSequence": "EP",
      "SequenceVariant": [
        "SK",
        "SP"
],
      "SeriesDescription": "dwi_acq-DTI-30-p2",
      "SeriesNumber": 12,
      "SeriesTime": "090402.374000",
      "SliceThickness": 2.0,
      "SmallestImagePixelValue": 0,
      "SoftwareVersions": "syngo MR E11",
      "SpacingBetweenSlices": 2.0,
      "SpecificCharacterSet": "ISO_IR 100",
      "StudyID": "24",
      "StudyTime": "082803.027000",
      "TransmitCoilName": "Body",
      "VariableFlipAngleFlag": "N",
      "WindowCenterWidthExplanation": "Algo1",
      "dBdt": 0.0},
    "slices": {
      "AcquisitionTime": ["090344.180000", "090340.340000", "090344.290000", "090340.450000", "090344.397500", "090340.560000", "090344.507500", "090340.667500", "090344.617500", "090340.777500", "090344.727500", "090340.887500", "090344.837500", "090340.997500", "090344.947500", "090341.107500", "090345.057500", "090341.217500", "090345.167500", "090341.327500", "090345.277500", "090341.437500", "090345.385000", "090341.545000", "090345.495000", "090341.655000", "090345.605000", "090341.765000", "090345.715000", "090341.875000", "090345.825000", "090341.985000", "090345.935000", "090342.095000", "090346.045000", "090342.205000", "090346.155000", "090342.315000", "090346.262500", "090342.425000", "090346.372500", "090342.532500", "090346.482500", "090342.642500", "090346.592500", "090342.752500", "090346.702500", "090342.862500", "090346.812500", "090342.972500", "090346.922500", "090343.082500", "090347.032500", "090343.192500", "090347.142500", "090343.302500", "090347.250000", "090343.410000", "090347.360000", "090343.520000", "090347.470000", "090343.630000", "090347.580000", "090343.740000", "090347.690000", "090343.850000", "090347.800000", "090343.960000", "090347.910000", "090344.070000", "090351.880000", "090348.040000", "090351.990000", "090348.150000", "090352.097500", "090348.260000", "090352.207500", "090348.367500", "090352.317500", "090348.477500", "090352.427500", "090348.587500", "090352.537500", "090348.697500", "090352.647500", "090348.807500", "090352.757500", "090348.917500", "090352.867500", "090349.027500", "090352.977500", "090349.137500", "090353.085000", "090349.245000", "090353.195000", "090349.355000", "090353.305000", "090349.465000", "090353.415000", "090349.575000", "090353.525000", "090349.685000", "090353.635000", "090349.795000", "090353.745000", "090349.905000", "090353.855000", "090350.015000", "090353.962500", "090350.125000", "090354.072500", "090350.232500", "090354.182500", "090350.342500", "090354.292500", "090350.452500", "090354.402500", "090350.562500", "090354.512500", "090350.672500", "090354.622500", "090350.782500", "090354.732500", "090350.892500", "090354.842500", "090351.002500", "090354.950000", "090351.110000", "090355.060000", "090351.220000", "090355.170000", "090351.330000", "090355.280000", "090351.440000", "090355.390000", "090351.550000", "090355.500000", "090351.660000", "090355.610000", "090351.770000", "090359.580000", "090355.740000", "090359.690000", "090355.850000", "090359.797500", "090355.960000", "090359.907500", "090356.067500", "090400.017500", "090356.177500", "090400.127500", "090356.287500", "090400.237500", "090356.397500", "090400.347500", "090356.507500", "090400.457500", "090356.617500", "090400.567500", "090356.727500", "090400.677500", "090356.837500", "090400.785000", "090356.945000", "090400.895000", "090357.055000", "090401.005000", "090357.165000", "090401.115000", "090357.275000", "090401.225000", "090357.385000", "090401.335000", "090357.495000", "090401.445000", "090357.605000", "090401.555000", "090357.715000", "090401.662500", "090357.825000", "090401.772500", "090357.932500", "090401.882500", "090358.042500", "090401.992500", "090358.152500", "090402.102500", "090358.262500", "090402.212500", "090358.372500", "090402.322500", "090358.482500", "090402.432500", "090358.592500", "090402.542500", "090358.702500", "090402.650000", "090358.810000", "090402.760000", "090358.920000", "090402.870000", "090359.030000", "090402.980000", "090359.140000", "090403.090000", "090359.250000", "090403.200000", "090359.360000", "090403.310000", "090359.470000", "090407.280000", "090403.440000", "090407.390000", "090403.550000", "090407.497500", "090403.660000", "090407.607500", "090403.767500", "090407.717500", "090403.877500", "090407.827500", "090403.987500", "090407.937500", "090404.097500", "090408.047500", "090404.207500", "090408.157500", "090404.317500", "090408.267500", "090404.427500", "090408.377500", "090404.537500", "090408.485000", "090404.645000", "090408.595000", "090404.755000", "090408.705000", "090404.865000", "090408.815000", "090404.975000", "090408.925000", "090405.085000", "090409.035000", "090405.195000", "090409.145000", "090405.305000", "090409.255000", "090405.415000", "090409.362500", "090405.525000", "090409.472500", "090405.632500", "090409.582500", "090405.742500", "090409.692500", "090405.852500", "090409.802500", "090405.962500", "090409.912500", "090406.072500", "090410.022500", "090406.182500", "090410.132500", "090406.292500", "090410.242500", "090406.402500", "090410.350000", "090406.510000", "090410.460000", "090406.620000", "090410.570000", "090406.730000", "090410.680000", "090406.840000", "090410.790000", "090406.950000", "090410.900000", "090407.060000", "090411.010000", "090407.170000", "090414.980000", "090411.140000", "090415.090000", "090411.250000", "090415.197500", "090411.360000", "090415.307500", "090411.467500", "090415.417500", "090411.577500", "090415.527500", "090411.687500", "090415.637500", "090411.797500", "090415.747500", "090411.907500", "090415.857500", "090412.017500", "090415.967500", "090412.127500", "090416.077500", "090412.237500", "090416.185000", "090412.345000", "090416.295000", "090412.455000", "090416.405000", "090412.565000", "090416.515000", "090412.675000", "090416.625000", "090412.785000", "090416.735000", "090412.895000", "090416.845000", "090413.005000", "090416.955000", "090413.115000", "090417.062500", "090413.225000", "090417.172500", "090413.332500", "090417.282500", "090413.442500", "090417.392500", "090413.552500", "090417.502500", "090413.662500", "090417.612500", "090413.772500", "090417.722500", "090413.882500", "090417.832500", "090413.992500", "090417.942500", "090414.102500", "090418.050000", "090414.210000", "090418.160000", "090414.320000", "090418.270000", "090414.430000", "090418.380000", "090414.540000", "090418.490000", "090414.650000", "090418.600000", "090414.760000", "090418.710000", "090414.870000", "090422.680000", "090418.840000", "090422.790000", "090418.950000", "090422.897500", "090419.060000", "090423.007500", "090419.167500", "090423.117500", "090419.277500", "090423.227500", "090419.387500", "090423.337500", "090419.497500", "090423.447500", "090419.607500", "090423.557500", "090419.717500", "090423.667500", "090419.827500", "090423.777500", "090419.937500", "090423.885000", "090420.045000", "090423.995000", "090420.155000", "090424.105000", "090420.265000", "090424.215000", "090420.375000", "090424.325000", "090420.485000", "090424.435000", "090420.595000", "090424.545000", "090420.705000", "090424.655000", "090420.815000", "090424.762500", "090420.925000", "090424.872500", "090421.032500", "090424.982500", "090421.142500", "090425.092500", "090421.252500", "090425.202500", "090421.362500", "090425.312500", "090421.472500", "090425.422500", "090421.582500", "090425.532500", "090421.692500", "090425.642500", "090421.802500", "090425.750000", "090421.910000", "090425.860000", "090422.020000", "090425.970000", "090422.130000", "090426.080000", "090422.240000", "090426.190000", "090422.350000", "090426.300000", "090422.460000", "090426.410000", "090422.570000", "090430.380000", "090426.540000", "090430.490000", "090426.650000", "090430.597500", "090426.760000", "090430.707500", "090426.867500", "090430.817500", "090426.977500", "090430.927500", "090427.087500", "090431.037500", "090427.197500", "090431.147500", "090427.307500", "090431.257500", "090427.417500", "090431.367500", "090427.527500", "090431.477500", "090427.637500", "090431.585000", "090427.745000", "090431.695000", "090427.855000", "090431.805000", "090427.965000", "090431.915000", "090428.075000", "090432.025000", "090428.185000", "090432.135000", "090428.295000", "090432.245000", "090428.405000", "090432.355000", "090428.515000", "090432.462500", "090428.625000", "090432.572500", "090428.732500", "090432.682500", "090428.842500", "090432.792500", "090428.952500", "090432.902500", "090429.062500", "090433.012500", "090429.172500", "090433.122500", "090429.282500", "090433.232500", "090429.392500", "090433.342500", "090429.502500", "090433.450000", "090429.610000", "090433.560000", "090429.720000", "090433.670000", "090429.830000", "090433.780000", "090429.940000", "090433.890000", "090430.050000", "090434.000000", "090430.160000", "090434.110000", "090430.270000", "090438.080000", "090434.240000", "090438.190000", "090434.350000", "090438.297500", "090434.460000", "090438.407500", "090434.567500", "090438.517500", "090434.677500", "090438.627500", "090434.787500", "090438.737500", "090434.897500", "090438.847500", "090435.007500", "090438.957500", "090435.117500", "090439.067500", "090435.227500", "090439.177500", "090435.337500", "090439.285000", "090435.445000", "090439.395000", "090435.555000", "090439.505000", "090435.665000", "090439.615000", "090435.775000", "090439.725000", "090435.885000", "090439.835000", "090435.995000", "090439.945000", "090436.105000", "090440.055000", "090436.215000", "090440.162500", "090436.325000", "090440.272500", "090436.432500", "090440.382500", "090436.542500", "090440.492500", "090436.652500", "090440.602500", "090436.762500", "090440.712500", "090436.872500", "090440.822500", "090436.982500", "090440.932500", "090437.092500", "090441.042500", "090437.202500", "090441.150000", "090437.310000", "090441.260000", "090437.420000", "090441.370000", "090437.530000", "090441.480000", "090437.640000", "090441.590000", "090437.750000", "090441.700000", "090437.860000", "090441.810000", "090437.970000", "090445.780000", "090441.940000", "090445.890000", "090442.050000", "090445.997500", "090442.160000", "090446.107500", "090442.267500", "090446.217500", "090442.377500", "090446.327500", "090442.487500", "090446.437500", "090442.597500", "090446.547500", "090442.707500", "090446.657500", "090442.817500", "090446.767500", "090442.927500", "090446.877500", "090443.037500", "090446.985000", "090443.145000", "090447.095000", "090443.255000", "090447.205000", "090443.365000", "090447.315000", "090443.475000", "090447.425000", "090443.585000", "090447.535000", "090443.695000", "090447.645000", "090443.805000", "090447.755000", "090443.915000", "090447.862500", "090444.025000", "090447.972500", "090444.132500", "090448.082500", "090444.242500", "090448.192500", "090444.352500", "090448.302500", "090444.462500", "090448.412500", "090444.572500", "090448.522500", "090444.682500", "090448.632500", "090444.792500", "090448.742500", "090444.902500", "090448.850000", "090445.010000", "090448.960000", "090445.120000", "090449.070000", "090445.230000", "090449.180000", "090445.340000", "090449.290000", "090445.450000", "090449.400000", "090445.560000", "090449.510000", "090445.670000", "090453.480000", "090449.640000", "090453.590000", "090449.750000", "090453.697500", "090449.860000", "090453.807500", "090449.967500", "090453.917500", "090450.077500", "090454.027500", "090450.187500", "090454.137500", "090450.297500", "090454.247500", "090450.407500", "090454.357500", "090450.517500", "090454.467500", "090450.627500", "090454.577500", "090450.737500", "090454.685000", "090450.845000", "090454.795000", "090450.955000", "090454.905000", "090451.065000", "090455.015000", "090451.175000", "090455.125000", "090451.285000", "090455.235000", "090451.395000", "090455.345000", "090451.505000", "090455.455000", "090451.615000", "090455.562500", "090451.725000", "090455.672500", "090451.832500", "090455.782500", "090451.942500", "090455.892500", "090452.052500", "090456.002500", "090452.162500", "090456.112500", "090452.272500", "090456.222500", "090452.382500", "090456.332500", "090452.492500", "090456.442500", "090452.602500", "090456.550000", "090452.710000", "090456.660000", "090452.820000", "090456.770000", "090452.930000", "090456.880000", "090453.040000", "090456.990000", "090453.150000", "090457.100000", "090453.260000", "090457.210000", "090453.370000", "090501.180000", "090457.340000", "090501.290000", "090457.450000", "090501.397500", "090457.560000", "090501.507500", "090457.667500", "090501.617500", "090457.777500", "090501.727500", "090457.887500", "090501.837500", "090457.997500", "090501.947500", "090458.107500", "090502.057500", "090458.217500", "090502.167500", "090458.327500", "090502.277500", "090458.437500", "090502.385000", "090458.545000", "090502.495000", "090458.655000", "090502.605000", "090458.765000", "090502.715000", "090458.875000", "090502.825000", "090458.985000", "090502.935000", "090459.095000", "090503.045000", "090459.205000", "090503.155000", "090459.315000", "090503.262500", "090459.425000", "090503.372500", "090459.532500", "090503.482500", "090459.642500", "090503.592500", "090459.752500", "090503.702500", "090459.862500", "090503.812500", "090459.972500", "090503.922500", "090500.082500", "090504.032500", "090500.192500", "090504.142500", "090500.302500", "090504.250000", "090500.410000", "090504.360000", "090500.520000", "090504.470000", "090500.630000", "090504.580000", "090500.740000", "090504.690000", "090500.850000", "090504.800000", "090500.960000", "090504.910000", "090501.070000", "090508.880000", "090505.040000", "090508.990000", "090505.150000", "090509.097500", "090505.260000", "090509.207500", "090505.367500", "090509.317500", "090505.477500", "090509.427500", "090505.587500", "090509.537500", "090505.697500", "090509.647500", "090505.807500", "090509.757500", "090505.917500", "090509.867500", "090506.027500", "090509.977500", "090506.137500", "090510.085000", "090506.245000", "090510.195000", "090506.355000", "090510.305000", "090506.465000", "090510.415000", "090506.575000", "090510.525000", "090506.685000", "090510.635000", "090506.795000", "090510.745000", "090506.905000", "090510.855000", "090507.015000", "090510.962500", "090507.125000", "090511.072500", "090507.232500", "090511.182500", "090507.342500", "090511.292500", "090507.452500", "090511.402500", "090507.562500", "090511.512500", "090507.672500", "090511.622500", "090507.782500", "090511.732500", "090507.892500", "090511.842500", "090508.002500", "090511.950000", "090508.110000", "090512.060000", "090508.220000", "090512.170000", "090508.330000", "090512.280000", "090508.440000", "090512.390000", "090508.550000", "090512.500000", "090508.660000", "090512.610000", "090508.770000", "090516.580000", "090512.740000", "090516.690000", "090512.850000", "090516.797500", "090512.960000", "090516.907500", "090513.067500", "090517.017500", "090513.177500", "090517.127500", "090513.287500", "090517.237500", "090513.397500", "090517.347500", "090513.507500", "090517.457500", "090513.617500", "090517.567500", "090513.727500", "090517.677500", "090513.837500", "090517.785000", "090513.945000", "090517.895000", "090514.055000", "090518.005000", "090514.165000", "090518.115000", "090514.275000", "090518.225000", "090514.385000", "090518.335000", "090514.495000", "090518.445000", "090514.605000", "090518.555000", "090514.715000", "090518.662500", "090514.825000", "090518.772500", "090514.932500", "090518.882500", "090515.042500", "090518.992500", "090515.152500", "090519.102500", "090515.262500", "090519.212500", "090515.372500", "090519.322500", "090515.482500", "090519.432500", "090515.592500", "090519.542500", "090515.702500", "090519.650000", "090515.810000", "090519.760000", "090515.920000", "090519.870000", "090516.030000", "090519.980000", "090516.140000", "090520.090000", "090516.250000", "090520.200000", "090516.360000", "090520.310000", "090516.470000", "090524.280000", "090520.440000", "090524.390000", "090520.550000", "090524.497500", "090520.660000", "090524.607500", "090520.767500", "090524.717500", "090520.877500", "090524.827500", "090520.987500", "090524.937500", "090521.097500", "090525.047500", "090521.207500", "090525.157500", "090521.317500", "090525.267500", "090521.427500", "090525.377500", "090521.537500", "090525.485000", "090521.645000", "090525.595000", "090521.755000", "090525.705000", "090521.865000", "090525.815000", "090521.975000", "090525.925000", "090522.085000", "090526.035000", "090522.195000", "090526.145000", "090522.305000", "090526.255000", "090522.415000", "090526.362500", "090522.525000", "090526.472500", "090522.632500", "090526.582500", "090522.742500", "090526.692500", "090522.852500", "090526.802500", "090522.962500", "090526.912500", "090523.072500", "090527.022500", "090523.182500", "090527.132500", "090523.292500", "090527.242500", "090523.402500", "090527.350000", "090523.510000", "090527.460000", "090523.620000", "090527.570000", "090523.730000", "090527.680000", "090523.840000", "090527.790000", "090523.950000", "090527.900000", "090524.060000", "090528.010000", "090524.170000", "090531.980000", "090528.140000", "090532.090000", "090528.250000", "090532.197500", "090528.360000", "090532.307500", "090528.467500", "090532.417500", "090528.577500", "090532.527500", "090528.687500", "090532.637500", "090528.797500", "090532.747500", "090528.907500", "090532.857500", "090529.017500", "090532.967500", "090529.127500", "090533.077500", "090529.237500", "090533.185000", "090529.345000", "090533.295000", "090529.455000", "090533.405000", "090529.565000", "090533.515000", "090529.675000", "090533.625000", "090529.785000", "090533.735000", "090529.895000", "090533.845000", "090530.005000", "090533.955000", "090530.115000", "090534.062500", "090530.225000", "090534.172500", "090530.332500", "090534.282500", "090530.442500", "090534.392500", "090530.552500", "090534.502500", "090530.662500", "090534.612500", "090530.772500", "090534.722500", "090530.882500", "090534.832500", "090530.992500", "090534.942500", "090531.102500", "090535.050000", "090531.210000", "090535.160000", "090531.320000", "090535.270000", "090531.430000", "090535.380000", "090531.540000", "090535.490000", "090531.650000", "090535.600000", "090531.760000", "090535.710000", "090531.870000", "090539.680000", "090535.840000", "090539.790000", "090535.950000", "090539.897500", "090536.060000", "090540.007500", "090536.167500", "090540.117500", "090536.277500", "090540.227500", "090536.387500", "090540.337500", "090536.497500", "090540.447500", "090536.607500", "090540.557500", "090536.717500", "090540.667500", "090536.827500", "090540.777500", "090536.937500", "090540.885000", "090537.045000", "090540.995000", "090537.155000", "090541.105000", "090537.265000", "090541.215000", "090537.375000", "090541.325000", "090537.485000", "090541.435000", "090537.595000", "090541.545000", "090537.705000", "090541.655000", "090537.815000", "090541.762500", "090537.925000", "090541.872500", "090538.032500", "090541.982500", "090538.142500", "090542.092500", "090538.252500", "090542.202500", "090538.362500", "090542.312500", "090538.472500", "090542.422500", "090538.582500", "090542.532500", "090538.692500", "090542.642500", "090538.802500", "090542.750000", "090538.910000", "090542.860000", "090539.020000", "090542.970000", "090539.130000", "090543.080000", "090539.240000", "090543.190000", "090539.350000", "090543.300000", "090539.460000", "090543.410000", "090539.570000", "090547.380000", "090543.540000", "090547.490000", "090543.650000", "090547.597500", "090543.760000", "090547.707500", "090543.867500", "090547.817500", "090543.977500", "090547.927500", "090544.087500", "090548.037500", "090544.197500", "090548.147500", "090544.307500", "090548.257500", "090544.417500", "090548.367500", "090544.527500", "090548.477500", "090544.637500", "090548.585000", "090544.745000", "090548.695000", "090544.855000", "090548.805000", "090544.965000", "090548.915000", "090545.075000", "090549.025000", "090545.185000", "090549.135000", "090545.295000", "090549.245000", "090545.405000", "090549.355000", "090545.515000", "090549.462500", "090545.625000", "090549.572500", "090545.732500", "090549.682500", "090545.842500", "090549.792500", "090545.952500", "090549.902500", "090546.062500", "090550.012500", "090546.172500", "090550.122500", "090546.282500", "090550.232500", "090546.392500", "090550.342500", "090546.502500", "090550.450000", "090546.610000", "090550.560000", "090546.720000", "090550.670000", "090546.830000", "090550.780000", "090546.940000", "090550.890000", "090547.050000", "090551.000000", "090547.160000", "090551.110000", "090547.270000", "090555.080000", "090551.240000", "090555.190000", "090551.350000", "090555.297500", "090551.460000", "090555.407500", "090551.567500", "090555.517500", "090551.677500", "090555.627500", "090551.787500", "090555.737500", "090551.897500", "090555.847500", "090552.007500", "090555.957500", "090552.117500", "090556.067500", "090552.227500", "090556.177500", "090552.337500", "090556.285000", "090552.445000", "090556.395000", "090552.555000", "090556.505000", "090552.665000", "090556.615000", "090552.775000", "090556.725000", "090552.885000", "090556.835000", "090552.995000", "090556.945000", "090553.105000", "090557.055000", "090553.215000", "090557.162500", "090553.325000", "090557.272500", "090553.432500", "090557.382500", "090553.542500", "090557.492500", "090553.652500", "090557.602500", "090553.762500", "090557.712500", "090553.872500", "090557.822500", "090553.982500", "090557.932500", "090554.092500", "090558.042500", "090554.202500", "090558.150000", "090554.310000", "090558.260000", "090554.420000", "090558.370000", "090554.530000", "090558.480000", "090554.640000", "090558.590000", "090554.750000", "090558.700000", "090554.860000", "090558.810000", "090554.970000", "090602.780000", "090558.940000", "090602.890000", "090559.050000", "090602.997500", "090559.160000", "090603.107500", "090559.267500", "090603.217500", "090559.377500", "090603.327500", "090559.487500", "090603.437500", "090559.597500", "090603.547500", "090559.707500", "090603.657500", "090559.817500", "090603.767500", "090559.927500", "090603.877500", "090600.037500", "090603.985000", "090600.145000", "090604.095000", "090600.255000", "090604.205000", "090600.365000", "090604.315000", "090600.475000", "090604.425000", "090600.585000", "090604.535000", "090600.695000", "090604.645000", "090600.805000", "090604.755000", "090600.915000", "090604.862500", "090601.025000", "090604.972500", "090601.132500", "090605.082500", "090601.242500", "090605.192500", "090601.352500", "090605.302500", "090601.462500", "090605.412500", "090601.572500", "090605.522500", "090601.682500", "090605.632500", "090601.792500", "090605.742500", "090601.902500", "090605.850000", "090602.010000", "090605.960000", "090602.120000", "090606.070000", "090602.230000", "090606.180000", "090602.340000", "090606.290000", "090602.450000", "090606.400000", "090602.560000", "090606.510000", "090602.670000", "090610.480000", "090606.640000", "090610.590000", "090606.750000", "090610.697500", "090606.860000", "090610.807500", "090606.967500", "090610.917500", "090607.077500", "090611.027500", "090607.187500", "090611.137500", "090607.297500", "090611.247500", "090607.407500", "090611.357500", "090607.517500", "090611.467500", "090607.627500", "090611.577500", "090607.737500", "090611.685000", "090607.845000", "090611.795000", "090607.955000", "090611.905000", "090608.065000", "090612.015000", "090608.175000", "090612.125000", "090608.285000", "090612.235000", "090608.395000", "090612.345000", "090608.505000", "090612.455000", "090608.615000", "090612.562500", "090608.725000", "090612.672500", "090608.832500", "090612.782500", "090608.942500", "090612.892500", "090609.052500", "090613.002500", "090609.162500", "090613.112500", "090609.272500", "090613.222500", "090609.382500", "090613.332500", "090609.492500", "090613.442500", "090609.602500", "090613.550000", "090609.710000", "090613.660000", "090609.820000", "090613.770000", "090609.930000", "090613.880000", "090610.040000", "090613.990000", "090610.150000", "090614.100000", "090610.260000", "090614.210000", "090610.370000", "090618.180000", "090614.340000", "090618.290000", "090614.450000", "090618.397500", "090614.560000", "090618.507500", "090614.667500", "090618.617500", "090614.777500", "090618.727500", "090614.887500", "090618.837500", "090614.997500", "090618.947500", "090615.107500", "090619.057500", "090615.217500", "090619.167500", "090615.327500", "090619.277500", "090615.437500", "090619.385000", "090615.545000", "090619.495000", "090615.655000", "090619.605000", "090615.765000", "090619.715000", "090615.875000", "090619.825000", "090615.985000", "090619.935000", "090616.095000", "090620.045000", "0906