{
  "AcquisitionMatrixPE": 80,
  "AcquisitionNumber": 1,
  "AcquisitionTime": "09:39:38.097500",
  "BandwidthPerPixelPhaseEncode": 48.077,
  "BaseResolution": 80,
  "BodyPartExamined": "BRAIN",
  "CoilCombinationMethod": "Sum of Squares",
  "ConsistencyInfo": "N4_VE11E_LATEST_20181129",
  "ConversionSoftware": "dcm2niix",
  "ConversionSoftwareVersion": "v1.0.20220720",
  "DerivedVendorReportedEchoSpacing": 0.000519999,
  "DeviceSerialNumber": "66112",
  "DwellTime": 2.7e-06,
  "EchoTime": 0.035,
  "EchoTrainLength": 39,
  "EffectiveEchoSpacing": 0.00026,
  "FlipAngle": 90,
  "HeudiconvVersion": "0.13.1",
  "ImageOrientationPatientDICOM": [0.985271, 0.170494, 0.0131825, -0.166469, 0.938662, 0.301998],
  "ImageOrientationText": "Tra>Cor(17.5)>Sag(-2.2)",
  "ImageType": [
    "ORIGINAL",
    "PRIMARY",
    "M",
    "ND",
    "NORM",
    "MOSAIC"
],
  "ImagingFrequency": 123.259,
  "InPlanePhaseEncodingDirectionDICOM": "COL",
  "InstitutionAddress": "Maynard 3,Hanover,NH,US,03755",
  "InstitutionName": "Dartmouth College - PBS",
  "InstitutionalDepartmentName": "Department",
  "MRAcquisitionType": "2D",
  "MagneticFieldStrength": 3,
  "Manufacturer": "Siemens",
  "ManufacturersModelName": "Prisma",
  "MatrixCoilMode": "GRAPPA",
  "Modality": "MR",
  "NonlinearGradientCorrection": false,
  "ParallelReductionFactorInPlane": 2,
  "PartialFourier": 1,
  "PatientPosition": "HFS",
  "PercentPhaseFOV": 100,
  "PercentSampling": 100,
  "PhaseEncodingDirection": "j-",
  "PhaseEncodingSteps": 79,
  "PhaseResolution": 1,
  "PixelBandwidth": 2315,
  "ProcedureStepDescription": "dbic^QA",
  "ProtocolName": "func-bold_task-rest_acq-p2",
  "PulseSequenceDetails": "%SiemensSeq%\\ep2d_bold",
  "ReceiveCoilActiveElements": "HEA;HEP",
  "ReceiveCoilName": "Head_32",
  "ReconMatrixPE": 80,
  "RefLinesPE": 24,
  "RepetitionTime": 2,
  "SAR": 0.0609217,
  "ScanOptions": "FS",
  "ScanningSequence": "EP",
  "SequenceName": "*epfid2d1_80",
  "SequenceVariant": "SK",
  "SeriesDescription": "func-bold_task-rest_acq-p2",
  "SeriesNumber": 5,
  "ShimSetting": [4222, -7741, -7485, -3, -145, -39, -23, 77],
  "SliceThickness": 3.5,
  "SliceTiming": [0.99, 0, 1.055, 0.065, 1.1225, 0.1325, 1.1875, 0.1975, 1.2525, 0.2625, 1.32, 0.33, 1.385, 0.395, 1.4525, 0.4625, 1.5175, 0.5275, 1.5825, 0.5925, 1.65, 0.66, 1.715, 0.725, 1.7825, 0.7925, 1.8475, 0.8575, 1.9125, 0.9225],
  "SoftwareVersions": "syngo MR E11",
  "SpacingBetweenSlices": 3.99,
  "StationName": "AWP66112",
  "TaskName": "rest",
  "TotalReadoutTime": 0.02054,
  "TxRefAmp": 228.713,
  "dcmmeta_affine": [
    [-2.9558117389678955, -0.49940747022628784, -0.15606825053691864, 144.13487243652344],
    [-0.5114817023277283, 2.8159847259521484, 1.1959774494171143, -111.07196044921875],
    [0.03954743593931198, -0.9059925079345703, 3.803338050842285, -19.17274284362793],
    [0.0, 0.0, 0.0, 1.0]
],
  "dcmmeta_reorient_transform": [
    [0.0, -1.0, 0.0, 79.0],
    [1.0, 0.0, 0.0, 0.0],
    [0.0, 0.0, 1.0, 0.0],
    [0.0, 0.0, 0.0, 1.0]
],
  "dcmmeta_shape": [80, 80, 30, 200],
  "dcmmeta_slice_dim": 2,
  "dcmmeta_version": 0.6,
  "global": {
    "const": {
      "AccessionNumber": "qa",
      "AcquisitionMatrix": [80, 0, 0, 80],
      "AngioFlag": "N",
      "BitsAllocated": 16,
      "BitsStored": 12,
      "BodyPartExamined": "BRAIN",
      "Columns": 480,
      "EchoNumbers": 1,
      "EchoTime": 35.0,
      "EchoTrainLength": 39,
      "FlipAngle": 90.0,
      "HighBit": 11,
      "ImageOrientationPatient": [0.98527054647288, 0.17049390756332, 0.01318247840212, -0.1664691527314, 0.93866156127782, 0.30199750755325],
      "ImagePositionPatient": [-595.96251437718, -776.88410904389, -279.85414280535],
      "ImageType": [
        "ORIGINAL",
        "PRIMARY",
        "M",
        "ND",
        "NORM",
        "MOSAIC"
],
      "ImagedNucleus": "1H",
      "ImagingFrequency": 123.259227,
      "InPlanePhaseEncodingDirection": "COL",
      "MRAcquisitionType": "2D",
      "MagneticFieldStrength": 3.0,
      "Manufacturer": "SIEMENS",
      "ManufacturerModelName": "Prisma",
      "Modality": "MR",
      "NumberOfAverages": 1.0,
      "NumberOfPhaseEncodingSteps": 79,
      "PercentPhaseFieldOfView": 100.0,
      "PercentSampling": 100.0,
      "PerformedProcedureStepStartTime": "091156.475000",
      "PhotometricInterpretation": "MONOCHROME2",
      "PixelBandwidth": 2315.0,
      "PixelRepresentation": 0,
      "PixelSpacing": [3.0, 3.0],
      "ProtocolName": "func-bold_task-rest_acq-p2",
      "RepetitionTime": 2000.0,
      "Rows": 480,
      "SAR": 0.06092166796037,
      "SamplesPerPixel": 1,
      "ScanOptions": "FS",
      "ScanningSequence": "EP",
      "SequenceName": "*epfid2d1_80",
      "SequenceVariant": "SK",
      "SeriesDescription": "func-bold_task-rest_acq-p2",
      "SeriesNumber": 5,
      "SeriesTime": "094033.107000",
      "SliceLocation": -57.206731781427,
      "SliceThickness": 3.5,
      "SmallestImagePixelValue": 0,
      "SoftwareVersions": "syngo MR E11",
      "SpacingBetweenSlices": 3.9899999257403,
      "SpecificCharacterSet": "ISO_IR 100",
      "StudyID": "23",
      "StudyTime": "091156.369000",
      "TransmitCoilName": "Body",
      "VariableFlipAngleFlag": "N",
      "WindowCenterWidthExplanation": "Algo1"
    },
    "slices": {}
  },
  "time": {
    "samples": {
      "AcquisitionNumber": [1, 2, 3, 4, 5, 6, 7, 8, 9, 10, 11, 12, 13, 14, 15, 16, 17, 18, 19, 20, 21, 22, 23, 24, 25, 26, 27, 28, 29, 30, 31, 32, 33, 34, 35, 36, 37, 38, 39, 40, 41, 42, 43, 44, 45, 46, 47, 48, 49, 50, 51, 52, 53, 54, 55, 56, 57, 58, 59, 60, 61, 62, 63, 64, 65, 66, 67, 68, 69, 70, 71, 72, 73, 74, 75, 76, 77, 78, 79, 80, 81, 82, 83, 84, 85, 86, 87, 88, 89, 90, 91, 92, 93, 94, 95, 96, 97, 98, 99, 100, 101, 102, 103, 104, 105, 106, 107, 108, 109, 110, 111, 112, 113, 114, 115, 116, 117, 118, 119, 120, 121, 122, 123, 124, 125, 126, 127, 128, 129, 130, 131, 132, 133, 134, 135, 136, 137, 138, 139, 140, 141, 142, 143, 144, 145, 146, 147, 148, 149, 150, 151, 152, 153, 154, 155, 156, 157, 158, 159, 160, 161, 162, 163, 164, 165, 166, 167, 168, 169, 170, 171, 172, 173, 174, 175, 176, 177, 178, 179, 180, 181, 182, 183, 184, 185, 186, 187, 188, 189, 190, 191, 192, 193, 194, 195, 196, 197, 198, 199, 200],
      "AcquisitionTime": ["093938.097500", "093940.097500", "093942.097500", "093944.097500", "093946.097500", "093948.097500", "093950.097500", "093952.097500", "093954.097500", "093956.097500", "093958.097500", "094000.097500", "094002.097500", "094004.097500", "094006.097500", "094008.097500", "094010.097500", "094012.097500", "094014.097500", "094016.097500", "094018.097500", "094020.097500", "094022.097500", "094024.097500", "094026.097500", "094028.097500", "094030.097500", "094032.097500", "094034.097500", "094036.097500", "094038.097500", "094040.097500", "094042.097500", "094044.097500", "094046.097500", "094048.097500", "094050.097500", "094052.097500", "094054.097500", "094056.097500", "094058.097500", "094100.097500", "094102.097500", "094104.097500", "094106.097500", "094108.097500", "094110.097500", "094112.097500", "094114.097500", "094116.097500", "094118.097500", "094120.097500", "094122.097500", "094124.097500", "094126.097500", "094128.097500", "094130.097500", "094132.097500", "094134.097500", "094136.097500", "094138.097500", "094140.097500", "094142.097500", "094144.097500", "094146.097500", "094148.097500", "094150.097500", "094152.097500", "094154.097500", "094156.097500", "094158.097500", "094200.097500", "094202.097500", "094204.097500", "094206.097500", "094208.097500", "094210.097500", "094212.097500", "094214.097500", "094216.097500", "094218.097500", "094220.097500", "094222.097500", "094224.097500", "094226.097500", "094228.097500", "094230.097500", "094232.097500", "094234.097500", "094236.097500", "094238.097500", "094240.097500", "094242.097500", "094244.097500", "094246.097500", "094248.097500", "094250.097500", "094252.097500", "094254.097500", "094256.097500", "094258.097500", "094300.097500", "094302.097500", "094304.097500", "094306.097500", "094308.097500", "094310.097500", "094312.097500", "094314.097500", "094316.097500", "094318.097500", "094320.097500", "094322.097500", "094324.097500", "094326.097500", "094328.097500", "094330.097500", "094332.097500", "094334.097500", "094336.097500", "094338.097500", "094340.097500", "094342.097500", "094344.097500", "094346.097500", "094348.097500", "094350.097500", "094352.097500", "094354.097500", "094356.097500", "094358.097500", "094400.097500", "094402.097500", "094404.097500", "094406.097500", "094408.097500", "094410.097500", "094412.097500", "094414.097500", "094416.097500", "094418.097500", "094420.097500", "094422.097500", "094424.097500", "094426.097500", "094428.097500", "094430.097500", "094432.097500", "094434.097500", "094436.097500", "094438.097500", "094440.097500", "094442.097500", "094444.097500", "094446.097500", "094448.097500", "094450.097500", "094452.097500", "094454.097500", "094456.097500", "094458.097500", "094500.097500", "094502.097500", "094504.097500", "094506.097500", "094508.097500", "094510.097500", "094512.097500", "094514.097500", "094516.097500", "094518.097500", "094520.097500", "094522.097500", "094524.097500", "094526.097500", "094528.097500", "094530.097500", "094532.097500", "094534.097500", "094536.097500", "094538.097500", "094540.097500", "094542.097500", "094544.097500", "094546.097500", "094548.097500", "094550.097500", "094552.097500", "094554.097500", "094556.097500", "094558.097500", "094600.097500", "094602.097500", "094604.097500", "094606.097500", "094608.097500", "094610.097500", "094612.097500", "094614.097500", "094616.097500"],
      "ContentTime": ["094033.110000", "094033.114000", "094033.116000", "094033.118000", "094033.121000", "094033.123000", "094033.126000", "094033.128000", "094033.137000", "094033.139000", "094033.142000", "094033.144000", "094033.146000", "094033.149000", "094033.151000", "094033.154000", "094033.156000", "094033.158000", "094033.161000", "094033.163000", "094033.174000", "094033.177000", "094033.179000", "094033.182000", "094033.184000", "094033.186000", "094033.189000", "094113.104000", "094113.107000", "094113.109000", "094113.112000", "094113.114000", "094113.116000", "094113.119000", "094113.121000", "094113.123000", "094113.126000", "094113.128000", "094113.131000", "094113.133000", "094113.135000", "094113.138000", "094113.140000", "094113.142000", "094113.144000", "094113.147000", "094113.149000", "094153.104000", "094153.107000", "094153.109000", "094153.112000", "094153.114000", "094153.116000", "094153.119000", "094153.121000", "094153.124000", "094153.126000", "094153.128000", "094153.131000", "094153.133000", "094153.135000", "094153.138000", "094153.140000", "094153.142000", "094153.145000", "094153.147000", "094153.150000", "094233.105000", "094233.108000", "094233.111000", "094233.113000", "094233.116000", "094233.118000", "094233.121000", "094233.123000", "094233.125000", "094233.127000", "094233.130000", "094233.132000", "094233.135000", "094233.137000", "094233.139000", "094233.142000", "094233.144000", "094233.146000", "094233.149000", "094233.151000", "094313.104000", "094313.109000", "094313.112000", "094313.114000", "094313.116000", "094313.119000", "094313.121000", "094313.124000", "094313.126000", "094313.128000", "094313.131000", "094313.133000", "094313.135000", "094313.138000", "094313.140000", "094313.143000", "094313.145000", "094313.147000", "094313.150000", "094313.152000", "094353.104000", "094353.107000", "094353.109000", "094353.112000", "094353.114000", "094353.116000", "094353.119000", "094353.121000", "094353.124000", "094353.126000", "094353.128000", "094353.131000", "094353.133000", "094353.136000", "094353.138000", "094353.140000", "094353.143000", "094353.145000", "094353.147000", "094353.150000", "094433.105000", "094433.108000", "094433.110000", "094433.113000", "094433.115000", "094433.117000", "094433.120000", "094433.122000", "094433.125000", "094433.127000", "094433.129000", "094433.132000", "094433.134000", "094433.136000", "094433.139000", "094433.141000", "094433.144000", "094433.146000", "094433.149000", "094433.151000", "094513.105000", "094513.108000", "094513.110000", "094513.113000", "094513.115000", "094513.117000", "094513.120000", "094513.122000", "094513.125000", "094513.127000", "094513.129000", "094513.132000", "094513.134000", "094513.136000", "094513.139000", "094513.141000", "094513.144000", "094513.146000", "094513.148000", "094513.151000", "094553.104000", "094553.107000", "094553.109000", "094553.112000", "094553.114000", "094553.116000", "094553.119000", "094553.121000", "094553.124000", "094553.126000", "094553.128000", "094553.131000", "094553.133000", "094553.135000", "094553.138000", "094553.140000", "094553.142000", "094553.145000", "094553.147000", "094553.150000", "094618.020000", "094618.023000", "094618.025000", "094618.028000", "094618.030000", "094618.032000", "094618.035000", "094618.040000", "094618.043000", "094618.046000", "094618.049000", "094618.052000", "094618.054000"],
      "InstanceCreationTime": ["094033.110000", "094033.114000", "094033.116000", "094033.118000", "094033.121000", "094033.123000", "094033.126000", "094033.128000", "094033.137000", "094033.139000", "094033.142000", "094033.144000", "094033.146000", "094033.149000", "094033.151000", "094033.154000", "094033.156000", "094033.158000", "094033.161000", "094033.163000", "094033.174000", "094033.177000", "094033.179000", "094033.182000", "094033.184000", "094033.186000", "094033.189000", "094113.104000", "094113.107000", "094113.109000", "094113.112000", "094113.114000", "094113.116000", "094113.119000", "094113.121000", "094113.123000", "094113.126000", "094113.128000", "094113.131000", "094113.133000", "094113.135000", "094113.138000", "094113.140000", "094113.142000", "094113.144000", "094113.147000", "094113.149000", "094153.104000", "094153.107000", "094153.109000", "094153.112000", "094153.114000", "094153.116000", "094153.119000", "094153.121000", "094153.124000", "094153.126000", "094153.128000", "094153.131000", "094153.133000", "094153.135000", "094153.138000", "094153.140000", "094153.142000", "094153.145000", "094153.147000", "094153.150000", "094233.105000", "094233.108000", "094233.111000", "094233.113000", "094233.116000", "094233.118000", "094233.121000", "094233.123000", "094233.125000", "094233.127000", "094233.130000", "094233.132000", "094233.135000", "094233.137000", "094233.139000", "094233.142000", "094233.144000", "094233.146000", "094233.149000", "094233.151000", "094313.104000", "094313.109000", "094313.112000", "094313.114000", "094313.116000", "094313.119000", "094313.121000", "094313.124000", "094313.126000", "094313.128000", "094313.131000", "094313.133000", "094313.135000", "094313.138000", "094313.140000", "094313.143000", "094313.145000", "094313.147000", "094313.150000", "094313.152000", "094353.104000", "094353.107000", "094353.109000", "094353.112000", "094353.114000", "094353.116000", "094353.119000", "094353.121000", "094353.124000", "094353.126000", "094353.128000", "094353.131000", "094353.133000", "094353.136000", "094353.138000", "094353.140000", "094353.143000", "094353.145000", "094353.147000", "094353.150000", "094433.105000", "094433.108000", "094433.110000", "094433.113000", "094433.115000", "094433.117000", "094433.120000", "094433.122000", "094433.125000", "094433.127000", "094433.129000", "094433.132000", "094433.134000", "094433.136000", "094433.139000", "094433.141000", "094433.144000", "094433.146000", "094433.149000", "094433.151000", "094513.105000", "094513.108000", "094513.110000", "094513.113000", "094513.115000", "094513.117000", "094513.120000", "094513.122000", "094513.125000", "094513.127000", "094513.129000", "094513.132000", "094513.134000", "094513.136000", "094513.139000", "094513.141000", "094513.144000", "094513.146000", "094513.148000", "094513.151000", "094553.104000", "094553.107000", "094553.109000", "094553.112000", "094553.114000", "094553.116000", "094553.119000", "094553.121000", "094553.124000", "094553.126000", "094553.128000", "094553.131000", "094553.133000", "094553.135000", "094553.138000", "094553.140000", "094553.142000", "094553.145000", "094553.147000", "094553.150000", "094618.020000", "094618.023000", "094618.025000", "094618.028000", "094618.030000", "094618.032000", "094618.035000", "094618.040000", "094618.043000", "094618.046000", "094618.049000", "094618.052000", "094618.054000"],
      "InstanceNumber": [1, 2, 3, 4, 5, 6, 7, 8, 9, 10, 11, 12, 13, 14, 15, 16, 17, 18, 19, 20, 21, 22, 23, 24, 25, 26, 27, 28, 29, 30, 31, 32, 33, 34, 35, 36, 37, 38, 39, 40, 41, 42, 43, 44, 45, 46, 47, 48, 49, 50, 51, 52, 53, 54, 55, 56, 57, 58, 59, 60, 61, 62, 63, 64, 65, 66, 67, 68, 69, 70, 71, 72, 73, 74, 75, 76, 77, 78, 79, 80, 81, 82, 83, 84, 85, 86, 87, 88, 89, 90, 91, 92, 93, 94, 95, 96, 97, 98, 99, 100, 101, 102, 103, 104, 105, 106, 107, 108, 109, 110, 111, 112, 113, 114, 115, 116, 117, 118, 119, 120, 121, 122, 123, 124, 125, 126, 127, 128, 129, 130, 131, 132, 133, 134, 135, 136, 137, 138, 139, 140, 141, 142, 143, 144, 145, 146, 147, 148, 149, 150, 151, 152, 153, 154, 155, 156, 157, 158, 159, 160, 161, 162, 163, 164, 165, 166, 167, 168, 169, 170, 171, 172, 173, 174, 175, 176, 177, 178, 179, 180, 181, 182, 183, 184, 185, 186, 187, 188, 189, 190, 191, 192, 193, 194, 195, 196, 197, 198, 199, 200],
      "LargestImagePixelValue": [2202, 2208, 2204, 2222, 2205, 2207, 2212, 2208, 2208, 2207, 2209, 2226, 2192, 2205, 2201, 2206, 2208, 2209, 2198, 2201, 2209, 2198, 2208, 2188, 2207, 2198, 2196, 2213, 2213, 2210, 2206, 2201, 2213, 2217, 2215, 2202, 2198, 2208, 2210, 2213, 2206, 2202, 2217, 2212, 2210, 2207, 2199, 2200, 2189, 2199, 2201, 2205, 2216, 2218, 2209, 2203, 2207, 2199, 2201, 2193, 2199, 2217, 2204, 2208, 2213, 2210, 2209, 2209, 2212, 2202, 2205, 2207, 2200, 2190, 2215, 2201, 2208, 2210, 2213, 2217, 2212, 2211, 2201, 2198, 2189, 2206, 2199, 2186, 2186, 2190, 2204, 2198, 2188, 2200, 2201, 2207, 2208, 2210, 2207, 2204, 2206, 2196, 2200, 2195, 2195, 2203, 2208, 2195, 2200, 2212, 2202, 2196, 2212, 2212, 2206, 2214, 2208, 2203, 2201, 2207, 2213, 2224, 2198, 2201, 2209, 2206, 2201, 2209, 2202, 2190, 2205, 2198, 2197, 2197, 2195, 2203, 2203, 2193, 2205, 2186, 2200, 2199, 2200, 2216, 2202, 2197, 2186, 2199, 2203, 2201, 2204, 2197, 2202, 2191, 2199, 2197, 2201, 2193, 2215, 2213, 2200, 2200, 2203, 2203, 2209, 2205, 2214, 2212, 2209, 2203, 2204, 2202, 2192, 2207, 2209, 2200, 2210, 2215, 2211, 2210, 2202, 2201, 2199, 2204, 2195, 2202, 2196, 2208, 2198, 2204, 2212, 2217, 2196, 2196, 2200, 2213, 2203, 2213, 2210, 2212],
      "WindowCenter": [1020.0, 1020.0, 1019.0, 1019.0, 1019.0, 1019.0, 1019.0, 1019.0, 1019.0, 1019.0, 1020.0, 1019.0, 1019.0, 1019.0, 1020.0, 1019.0, 1020.0, 1019.0, 1019.0, 1019.0, 1020.0, 1019.0, 1020.0, 1019.0, 1019.0, 1020.0, 1020.0, 1019.0, 1019.0, 1020.0, 1019.0, 1019.0, 1019.0, 1020.0, 1019.0, 1019.0, 1019.0, 1019.0, 1019.0, 1019.0, 1019.0, 1019.0, 1019.0, 1019.0, 1019.0, 1020.0, 1019.0, 1018.0, 1019.0, 1019.0, 1019.0, 1019.0, 1018.0, 1020.0, 1018.0, 1019.0, 1019.0, 1019.0, 1019.0, 1018.0, 1020.0, 1019.0, 1019.0, 1019.0, 1020.0, 1019.0, 1019.0, 1019.0, 1019.0, 1018.0, 1019.0, 1018.0, 1019.0, 1018.0, 1019.0, 1019.0, 1019.0, 1019.0, 1018.0, 1018.0, 1019.0, 1018.0, 1020.0, 1019.0, 1018.0, 1020.0, 1019.0, 1019.0, 1020.0, 1018.0, 1018.0, 1018.0, 1018.0, 1019.0, 1018.0, 1019.0, 1019.0, 1019.0, 1018.0, 1019.0, 1018.0, 1019.0, 1018.0, 1018.0, 1018.0, 1019.0, 1018.0, 1018.0, 1018.0, 1018.0, 1018.0, 1018.0, 1018.0, 1018.0, 1018.0, 1019.0, 1018.0, 1019.0, 1018.0, 1018.0, 1018.0, 1019.0, 1018.0, 1018.0, 1018.0, 1018.0, 1018.0, 1018.0, 1019.0, 1019.0, 1018.0, 1018.0, 1019.0, 1019.0, 1018.0, 1018.0, 1019.0, 1018.0, 1018.0, 1018.0, 1019.0, 1018.0, 1018.0, 1018.0, 1018.0, 1018.0, 1018.0, 1018.0, 1018.0, 1019.0, 1018.0, 1019.0, 1018.0, 1018.0, 1019.0, 1018.0, 1019.0, 1018.0, 1018.0, 1019.0, 1019.0, 1018.0, 1019.0, 1018.0, 1018.0, 1018.0, 1018.0, 1018.0, 1018.0, 1019.0, 1018.0, 1019.0, 1019.0, 1018.0, 1018.0, 1019.0, 1018.0, 1018.0, 1019.0, 1018.0, 1018.0, 1018.0, 1018.0, 1018.0, 1019.0, 1019.0, 1018.0, 1018.0, 1018.0, 1018.0, 1018.0, 1018.0, 1019.0, 1018.0, 1018.0, 1018.0, 1019.0, 1018.0, 1018.0, 1018.0],
      "WindowWidth": [2260.0, 2259.0, 2257.0, 2258.0, 2258.0, 2258.0, 2259.0, 2258.0, 2258.0, 2258.0, 2258.0, 2257.0, 2258.0, 2258.0, 2257.0, 2257.0, 2259.0, 2258.0, 2258.0, 2258.0, 2259.0, 2258.0, 2259.0, 2258.0, 2257.0, 2259.0, 2259.0, 2258.0, 2259.0, 2259.0, 2257.0, 2258.0, 2258.0, 2258.0, 2258.0, 2256.0, 2258.0, 2258.0, 2258.0, 2258.0, 2258.0, 2258.0, 2258.0, 2258.0, 2258.0, 2257.0, 2258.0, 2256.0, 2258.0, 2259.0, 2258.0, 2258.0, 2258.0, 2258.0, 2256.0, 2258.0, 2258.0, 2258.0, 2258.0, 2256.0, 2259.0, 2258.0, 2258.0, 2258.0, 2259.0, 2258.0, 2257.0, 2257.0, 2258.0, 2258.0, 2257.0, 2257.0, 2257.0, 2257.0, 2258.0, 2258.0, 2258.0, 2258.0, 2257.0, 2257.0, 2258.0, 2255.0, 2258.0, 2257.0, 2257.0, 2258.0, 2258.0, 2258.0, 2258.0, 2257.0, 2257.0, 2257.0, 2255.0, 2258.0, 2257.0, 2257.0, 2257.0, 2259.0, 2257.0, 2258.0, 2257.0, 2257.0, 2257.0, 2255.0, 2257.0, 2258.0, 2257.0, 2256.0, 2256.0, 2256.0, 2257.0, 2256.0, 2257.0, 2257.0, 2256.0, 2258.0, 2257.0, 2257.0, 2257.0, 2257.0, 2256.0, 2258.0, 2257.0, 2257.0, 2257.0, 2257.0, 2257.0, 2257.0, 2258.0, 2258.0, 2257.0, 2257.0, 2258.0, 2258.0, 2257.0, 2257.0, 2257.0, 2257.0, 2257.0, 2255.0, 2258.0, 2254.0, 2257.0, 2257.0, 2257.0, 2257.0, 2256.0, 2257.0, 2257.0, 2258.0, 2256.0, 2258.0, 2257.0, 2257.0, 2258.0, 2257.0, 2258.0, 2256.0, 2257.0, 2258.0, 2257.0, 2257.0, 2257.0, 2256.0, 2256.0, 2255.0, 2257.0, 2257.0, 2257.0, 2258.0, 2257.0, 2257.0, 2258.0, 2256.0, 2257.0, 2257.0, 2257.0, 2257.0, 2255.0, 2257.0, 2257.0, 2255.0, 2256.0, 2256.0, 2256.0, 2257.0, 2257.0, 2257.0, 2257.0, 2256.0, 2256.0, 2257.0, 2257.0, 2257.0, 2257.0, 2255.0, 2258.0, 2257.0, 2256.0, 2257.0]
    },
    "slices": {}
  }
}