{
  "AcquisitionMatrixPE": 80,
  "AcquisitionNumber": 1,
  "AcquisitionTime": "09:50:36.507500",
  "BandwidthPerPixelPhaseEncode": 25,
  "BaseResolution": 80,
  "BodyPartExamined": "BRAIN",
  "CoilCombinationMethod": "Sum of Squares",
  "ConsistencyInfo": "N4_VE11C_LATEST_20160120",
  "ConversionSoftware": "dcm2niix",
  "ConversionSoftwareVersion": "v1.0.20220720",
  "DerivedVendorReportedEchoSpacing": 0.0005,
  "DeviceSerialNumber": "66112",
  "DwellTime": 2.7e-06,
  "EchoTime": 0.03,
  "EchoTrainLength": 80,
  "EffectiveEchoSpacing": 0.0005,
  "FlipAngle": 77,
  "HeudiconvVersion": "0.13.1",
  "ImageOrientationPatientDICOM": [0.998388, -0.056595, 0.00435788, 0.0526727, 0.952332, 0.300482],
  "ImageOrientationText": "Tra>Cor(17.4)>Sag(1.2)",
  "ImageType": [
    "ORIGINAL",
    "PRIMARY",
    "M",
    "ND",
    "NORM",
    "MOSAIC"
],
  "ImagingFrequency": 123.252,
  "InPlanePhaseEncodingDirectionDICOM": "COL",
  "InstitutionAddress": "Maynard 3,Hanover,NH,US,03755",
  "InstitutionName": "Dartmouth College - PBS",
  "InstitutionalDepartmentName": "Department",
  "MRAcquisitionType": "2D",
  "MagneticFieldStrength": 3,
  "Manufacturer": "Siemens",
  "ManufacturersModelName": "Prisma",
  "MatrixCoilMode": "SENSE",
  "Modality": "MR",
  "NonlinearGradientCorrection": false,
  "PartialFourier": 1,
  "PatientPosition": "HFS",
  "PercentPhaseFOV": 100,
  "PercentSampling": 100,
  "PhaseEncodingDirection": "j-",
  "PhaseEncodingSteps": 80,
  "PhaseResolution": 1,
  "PixelBandwidth": 2315,
  "ProcedureStepDescription": "dbic^QA",
  "ProtocolName": "func-bold_acq-32ch-77flip",
  "PulseSequenceDetails": "%SiemensSeq%\\ep2d_bold",
  "ReceiveCoilActiveElements": "HEA;HEP",
  "ReceiveCoilName": "Head_32",
  "ReconMatrixPE": 80,
  "RepetitionTime": 2,
  "SAR": 0.043706,
  "ScanOptions": "FS",
  "ScanningSequence": "EP",
  "SequenceName": "*epfid2d1_80",
  "SequenceVariant": "SK",
  "SeriesDescription": "func-bold_acq-32ch-77flip",
  "SeriesNumber": 8,
  "ShimSetting": [4153, -7699, -7520, 302, -61, -168, -10, 99],
  "SliceThickness": 3.5,
  "SliceTiming": [0.99, 0, 1.0575, 0.0675, 1.1225, 0.1325, 1.1875, 0.1975, 1.255, 0.265, 1.32, 0.33, 1.385, 0.3975, 1.4525, 0.4625, 1.5175, 0.5275, 1.585, 0.595, 1.65, 0.66, 1.715, 0.7275, 1.7825, 0.7925, 1.8475, 0.8575, 1.915, 0.925],
  "SoftwareVersions": "syngo MR E11",
  "SpacingBetweenSlices": 3.99,
  "StationName": "AWP66112",
  "TotalReadoutTime": 0.0395,
  "TxRefAmp": 230.83,
  "dcmmeta_affine": [
    [-2.9951632022857666, 0.15801817178726196, 0.08441228419542313, 112.34261322021484],
    [0.16978514194488525, 2.8569955825805664, 1.196075677871704, -129.3890380859375],
    [0.013073637150228024, -0.901447057723999, 3.8055717945098877, -23.844974517822266],
    [0.0, 0.0, 0.0, 1.0]
],
  "dcmmeta_reorient_transform": [
    [0.0, -1.0, 0.0, 79.0],
    [1.0, 0.0, 0.0, 0.0],
    [0.0, 0.0, 1.0, 0.0],
    [0.0, 0.0, 0.0, 1.0]
],
  "dcmmeta_shape": [80, 80, 30, 200],
  "dcmmeta_slice_dim": 2,
  "dcmmeta_version": 0.6,
  "global": {
    "const": {
      "AccessionNumber": "qa",
      "AcquisitionMatrix": [80, 0, 0, 80],
      "AngioFlag": "N",
      "BitsAllocated": 16,
      "BitsStored": 12,
      "BodyPartExamined": "BRAIN",
      "Columns": 480,
      "EchoNumbers": 1,
      "EchoTime": 30.0,
      "EchoTrainLength": 80,
      "FlipAngle": 77.0,
      "HighBit": 11,
      "ImageOrientationPatient": [0.99838770500232, -0.0565950473989, 0.00435787908534, 0.0526727238488, 0.95233184088172, 0.30048236055581],
      "ImagePositionPatient": [-755.4623077869, -633.75568566644, -277.96343857557],
      "ImageType": [
        "ORIGINAL",
        "PRIMARY",
        "M",
        "ND",
        "NORM",
        "MOSAIC"
],
      "ImagedNucleus": "1H",
      "ImagingFrequency": 123.252407,
      "InPlanePhaseEncodingDirection": "COL",
      "MRAcquisitionType": "2D",
      "MagneticFieldStrength": 3.0,
      "Manufacturer": "SIEMENS",
      "ManufacturerModelName": "Prisma",
      "Modality": "MR",
      "NumberOfAverages": 1.0,
      "NumberOfPhaseEncodingSteps": 80,
      "PercentPhaseFieldOfView": 100.0,
      "PercentSampling": 100.0,
      "PerformedProcedureStepStartTime": "093243.087000",
      "PhotometricInterpretation": "MONOCHROME2",
      "PixelBandwidth": 2315.0,
      "PixelRepresentation": 0,
      "PixelSpacing": [3.0, 3.0],
      "ProtocolName": "func-bold_acq-32ch-77flip",
      "RepetitionTime": 2000.0,
      "Rows": 480,
      "SAR": 0.04370596756539,
      "SamplesPerPixel": 1,
      "ScanOptions": "FS",
      "ScanningSequence": "EP",
      "SequenceName": "*epfid2d1_80",
      "SequenceVariant": "SK",
      "SeriesDescription": "func-bold_acq-32ch-77flip",
      "SeriesNumber": 8,
      "SeriesTime": "095125.733000",
      "SliceLocation": -59.152821482889,
      "SliceThickness": 3.5,
      "SmallestImagePixelValue": 0,
      "SoftwareVersions": "syngo MR E11",
      "SpacingBetweenSlices": 3.9899999652043,
      "SpecificCharacterSet": "ISO_IR 100",
      "StudyID": "19",
      "StudyTime": "093243.005000",
      "TransmitCoilName": "Body",
      "VariableFlipAngleFlag": "N",
      "WindowCenterWidthExplanation": "Algo1",
      "dBdt": 0.0},
    "slices": {}
  },
  "time": {
    "samples": {
      "AcquisitionNumber": [1, 2, 3, 4, 5, 6, 7, 8, 9, 10, 11, 12, 13, 14, 15, 16, 17, 18, 19, 20, 21, 22, 23, 24, 25, 26, 27, 28, 29, 30, 31, 32, 33, 34, 35, 36, 37, 38, 39, 40, 41, 42, 43, 44, 45, 46, 47, 48, 49, 50, 51, 52, 53, 54, 55, 56, 57, 58, 59, 60, 61, 62, 63, 64, 65, 66, 67, 68, 69, 70, 71, 72, 73, 74, 75, 76, 77, 78, 79, 80, 81, 82, 83, 84, 85, 86, 87, 88, 89, 90, 91, 92, 93, 94, 95, 96, 97, 98, 99, 100, 101, 102, 103, 104, 105, 106, 107, 108, 109, 110, 111, 112, 113, 114, 115, 116, 117, 118, 119, 120, 121, 122, 123, 124, 125, 126, 127, 128, 129, 130, 131, 132, 133, 134, 135, 136, 137, 138, 139, 140, 141, 142, 143, 144, 145, 146, 147, 148, 149, 150, 151, 152, 153, 154, 155, 156, 157, 158, 159, 160, 161, 162, 163, 164, 165, 166, 167, 168, 169, 170, 171, 172, 173, 174, 175, 176, 177, 178, 179, 180, 181, 182, 183, 184, 185, 186, 187, 188, 189, 190, 191, 192, 193, 194, 195, 196, 197, 198, 199, 200],
      "AcquisitionTime": ["095036.507500", "095038.507500", "095040.507500", "095042.507500", "095044.507500", "095046.507500", "095048.507500", "095050.507500", "095052.507500", "095054.507500", "095056.507500", "095058.507500", "095100.507500", "095102.507500", "095104.507500", "095106.507500", "095108.507500", "095110.507500", "095112.507500", "095114.507500", "095116.507500", "095118.507500", "095120.507500", "095122.507500", "095124.507500", "095126.507500", "095128.507500", "095130.507500", "095132.507500", "095134.507500", "095136.507500", "095138.507500", "095140.507500", "095142.507500", "095144.507500", "095146.507500", "095148.507500", "095150.507500", "095152.507500", "095154.507500", "095156.507500", "095158.507500", "095200.507500", "095202.507500", "095204.507500", "095206.507500", "095208.507500", "095210.507500", "095212.507500", "095214.507500", "095216.507500", "095218.507500", "095220.507500", "095222.507500", "095224.507500", "095226.507500", "095228.507500", "095230.507500", "095232.507500", "095234.507500", "095236.507500", "095238.507500", "095240.507500", "095242.507500", "095244.507500", "095246.507500", "095248.507500", "095250.507500", "095252.507500", "095254.507500", "095256.507500", "095258.507500", "095300.507500", "095302.507500", "095304.507500", "095306.507500", "095308.507500", "095310.507500", "095312.507500", "095314.507500", "095316.507500", "095318.507500", "095320.507500", "095322.507500", "095324.507500", "095326.507500", "095328.507500", "095330.507500", "095332.507500", "095334.507500", "095336.507500", "095338.507500", "095340.507500", "095342.507500", "095344.507500", "095346.507500", "095348.507500", "095350.507500", "095352.507500", "095354.507500", "095356.507500", "095358.507500", "095400.507500", "095402.507500", "095404.507500", "095406.507500", "095408.507500", "095410.507500", "095412.507500", "095414.507500", "095416.507500", "095418.507500", "095420.507500", "095422.507500", "095424.507500", "095426.507500", "095428.507500", "095430.507500", "095432.507500", "095434.507500", "095436.507500", "095438.507500", "095440.507500", "095442.507500", "095444.507500", "095446.507500", "095448.507500", "095450.507500", "095452.507500", "095454.507500", "095456.507500", "095458.507500", "095500.507500", "095502.507500", "095504.507500", "095506.507500", "095508.507500", "095510.507500", "095512.507500", "095514.507500", "095516.507500", "095518.507500", "095520.507500", "095522.507500", "095524.507500", "095526.507500", "095528.507500", "095530.507500", "095532.507500", "095534.507500", "095536.507500", "095538.507500", "095540.507500", "095542.507500", "095544.507500", "095546.507500", "095548.507500", "095550.507500", "095552.507500", "095554.507500", "095556.507500", "095558.507500", "095600.507500", "095602.507500", "095604.507500", "095606.507500", "095608.507500", "095610.507500", "095612.507500", "095614.507500", "095616.507500", "095618.507500", "095620.507500", "095622.507500", "095624.507500", "095626.507500", "095628.507500", "095630.507500", "095632.507500", "095634.507500", "095636.507500", "095638.507500", "095640.507500", "095642.507500", "095644.507500", "095646.507500", "095648.507500", "095650.507500", "095652.507500", "095654.507500", "095656.507500", "095658.507500", "095700.507500", "095702.507500", "095704.507500", "095706.507500", "095708.507500", "095710.507500", "095712.507500", "095714.507500"],
      "ContentTime": ["095125.745000", "095125.749000", "095125.752000", "095125.754000", "095125.757000", "095125.759000", "095125.762000", "095125.765000", "095125.767000", "095125.770000", "095125.772000", "095125.775000", "095125.777000", "095125.780000", "095125.782000", "095125.785000", "095125.787000", "095125.790000", "095125.793000", "095125.795000", "095125.798000", "095125.800000", "095125.803000", "095125.805000", "095205.731000", "095205.734000", "095205.737000", "095205.740000", "095205.742000", "095205.745000", "095205.747000", "095205.750000", "095205.753000", "095205.755000", "095205.758000", "095205.760000", "095205.763000", "095205.765000", "095205.768000", "095205.844000", "095205.847000", "095205.849000", "095205.852000", "095205.854000", "095245.731000", "095245.734000", "095245.737000", "095245.739000", "095245.742000", "095245.744000", "095245.747000", "095245.749000", "095245.752000", "095245.755000", "095245.757000", "095245.760000", "095245.762000", "095245.765000", "095245.767000", "095245.770000", "095245.773000", "095245.791000", "095245.794000", "095245.796000", "095325.731000", "095325.734000", "095325.737000", "095325.739000", "095325.742000", "095325.745000", "095325.747000", "095325.750000", "095325.752000", "095325.755000", "095325.757000", "095325.760000", "095325.763000", "095325.765000", "095325.768000", "095325.801000", "095325.804000", "095325.806000", "095325.809000", "095325.811000", "095405.731000", "095405.734000", "095405.737000", "095405.739000", "095405.742000", "095405.744000", "095405.747000", "095405.750000", "095405.752000", "095405.755000", "095405.757000", "095405.760000", "095405.763000", "095405.765000", "095405.768000", "095405.770000", "095405.773000", "095405.775000", "095405.778000", "095405.780000", "095445.732000", "095445.734000", "095445.746000", "095445.749000", "095445.751000", "095445.754000", "095445.756000", "095445.759000", "095445.761000", "095445.764000", "095445.767000", "095445.769000", "095445.772000", "095445.774000", "095445.777000", "095445.779000", "095445.782000", "095445.785000", "095445.787000", "095445.790000", "095525.731000", "095525.734000", "095525.737000", "095525.739000", "095525.742000", "095525.745000", "095525.747000", "095525.750000", "095525.752000", "095525.755000", "095525.757000", "095525.760000", "095525.763000", "095525.765000", "095525.768000", "095525.770000", "095525.773000", "095525.776000", "095525.778000", "095525.781000", "095605.732000", "095605.734000", "095605.737000", "095605.740000", "095605.742000", "095605.745000", "095605.747000", "095605.750000", "095605.753000", "095605.755000", "095605.758000", "095605.760000", "095605.763000", "095605.765000", "095605.768000", "095605.822000", "095605.825000", "095605.827000", "095605.830000", "095605.832000", "095645.731000", "095645.734000", "095645.737000", "095645.739000", "095645.742000", "095645.745000", "095645.747000", "095645.750000", "095645.752000", "095645.755000", "095645.757000", "095645.760000", "095645.763000", "095645.765000", "095645.768000", "095645.782000", "095645.785000", "095645.788000", "095645.790000", "095645.793000", "095716.481000", "095716.484000", "095716.487000", "095716.489000", "095716.492000", "095716.495000", "095716.497000", "095716.500000", "095716.502000", "095716.505000", "095716.508000", "095716.510000", "095716.515000", "095716.522000", "095716.525000", "095716.533000"],
      "InstanceCreationTime": ["095125.745000", "095125.749000", "095125.752000", "095125.754000", "095125.757000", "095125.759000", "095125.762000", "095125.765000", "095125.767000", "095125.770000", "095125.772000", "095125.775000", "095125.777000", "095125.780000", "095125.782000", "095125.785000", "095125.787000", "095125.790000", "095125.793000", "095125.795000", "095125.798000", "095125.800000", "095125.803000", "095125.805000", "095205.731000", "095205.734000", "095205.737000", "095205.740000", "095205.742000", "095205.745000", "095205.747000", "095205.750000", "095205.753000", "095205.755000", "095205.758000", "095205.760000", "095205.763000", "095205.765000", "095205.768000", "095205.844000", "095205.847000", "095205.849000", "095205.852000", "095205.854000", "095245.731000", "095245.734000", "095245.737000", "095245.739000", "095245.742000", "095245.744000", "095245.747000", "095245.749000", "095245.752000", "095245.755000", "095245.757000", "095245.760000", "095245.762000", "095245.765000", "095245.767000", "095245.770000", "095245.773000", "095245.791000", "095245.794000", "095245.796000", "095325.731000", "095325.734000", "095325.737000", "095325.739000", "095325.742000", "095325.745000", "095325.747000", "095325.750000", "095325.752000", "095325.755000", "095325.757000", "095325.760000", "095325.763000", "095325.765000", "095325.768000", "095325.801000", "095325.804000", "095325.806000", "095325.809000", "095325.811000", "095405.731000", "095405.734000", "095405.737000", "095405.739000", "095405.742000", "095405.744000", "095405.747000", "095405.750000", "095405.752000", "095405.755000", "095405.757000", "095405.760000", "095405.763000", "095405.765000", "095405.768000", "095405.770000", "095405.773000", "095405.775000", "095405.778000", "095405.780000", "095445.732000", "095445.734000", "095445.746000", "095445.749000", "095445.751000", "095445.754000", "095445.756000", "095445.759000", "095445.761000", "095445.764000", "095445.767000", "095445.769000", "095445.772000", "095445.774000", "095445.777000", "095445.779000", "095445.782000", "095445.785000", "095445.787000", "095445.790000", "095525.731000", "095525.734000", "095525.737000", "095525.739000", "095525.742000", "095525.745000", "095525.747000", "095525.750000", "095525.752000", "095525.755000", "095525.757000", "095525.760000", "095525.763000", "095525.765000", "095525.768000", "095525.770000", "095525.773000", "095525.776000", "095525.778000", "095525.781000", "095605.732000", "095605.734000", "095605.737000", "095605.740000", "095605.742000", "095605.745000", "095605.747000", "095605.750000", "095605.753000", "095605.755000", "095605.758000", "095605.760000", "095605.763000", "095605.765000", "095605.768000", "095605.822000", "095605.825000", "095605.827000", "095605.830000", "095605.832000", "095645.731000", "095645.734000", "095645.737000", "095645.739000", "095645.742000", "095645.745000", "095645.747000", "095645.750000", "095645.752000", "095645.755000", "095645.757000", "095645.760000", "095645.763000", "095645.765000", "095645.768000", "095645.782000", "095645.785000", "095645.788000", "095645.790000", "095645.793000", "095716.481000", "095716.484000", "095716.487000", "095716.489000", "095716.492000", "095716.495000", "095716.497000", "095716.500000", "095716.502000", "095716.505000", "095716.508000", "095716.510000", "095716.515000", "095716.522000", "095716.525000", "095716.533000"],
      "InstanceNumber": [1, 2, 3, 4, 5, 6, 7, 8, 9, 10, 11, 12, 13, 14, 15, 16, 17, 18, 19, 20, 21, 22, 23, 24, 25, 26, 27, 28, 29, 30, 31, 32, 33, 34, 35, 36, 37, 38, 39, 40, 41, 42, 43, 44, 45, 46, 47, 48, 49, 50, 51, 52, 53, 54, 55, 56, 57, 58, 59, 60, 61, 62, 63, 64, 65, 66, 67, 68, 69, 70, 71, 72, 73, 74, 75, 76, 77, 78, 79, 80, 81, 82, 83, 84, 85, 86, 87, 88, 89, 90, 91, 92, 93, 94, 95, 96, 97, 98, 99, 100, 101, 102, 103, 104, 105, 106, 107, 108, 109, 110, 111, 112, 113, 114, 115, 116, 117, 118, 119, 120, 121, 122, 123, 124, 125, 126, 127, 128, 129, 130, 131, 132, 133, 134, 135, 136, 137, 138, 139, 140, 141, 142, 143, 144, 145, 146, 147, 148, 149, 150, 151, 152, 153, 154, 155, 156, 157, 158, 159, 160, 161, 162, 163, 164, 165, 166, 167, 168, 169, 170, 171, 172, 173, 174, 175, 176, 177, 178, 179, 180, 181, 182, 183, 184, 185, 186, 187, 188, 189, 190, 191, 192, 193, 194, 195, 196, 197, 198, 199, 200],
      "LargestImagePixelValue": [1973, 1973, 1973, 1974, 1974, 1974, 1973, 1975, 1973, 1975, 1973, 1974, 1975, 1971, 1972, 1971, 1973, 1973, 1974, 1971, 1973, 1972, 1971, 1973, 1975, 1973, 1973, 1971, 1972, 1972, 1973, 1972, 1972, 1969, 1968, 1971, 1971, 1972, 1972, 1971, 1974, 1969, 1973, 1971, 1973, 1973, 1974, 1974, 1974, 1972, 1974, 1974, 1974, 1975, 1973, 1973, 1972, 1975, 1974, 1974, 1972, 1971, 1971, 1971, 1971, 1971, 1970, 1972, 1972, 1973, 1973, 1970, 1973, 1971, 1971, 1972, 1972, 1969, 1971, 1971, 1972, 1971, 1972, 1971, 1972, 1972, 1973, 1971, 1972, 1972, 1973, 1971, 1972, 1973, 1972, 1973, 1973, 1973, 1971, 1971, 1974, 1972, 1972, 1972, 1972, 1973, 1972, 1973, 1972, 1975, 1972, 1972, 1971, 1973, 1970, 1972, 1971, 1970, 1971, 1971, 1973, 1972, 1973, 1971, 1971, 1972, 1972, 1971, 1971, 1973, 1972, 1971, 1971, 1971, 1972, 1972, 1971, 1973, 1973, 1970, 1971, 1971, 1974, 1973, 1971, 1970, 1972, 1971, 1971, 1972, 1972, 1969, 1971, 1970, 1970, 1971, 1970, 1972, 1972, 1970, 1973, 1972, 1971, 1970, 1972, 1970, 1969, 1969, 1971, 1970, 1969, 1968, 1968, 1970, 1970, 1969, 1970, 1968, 1971, 1969, 1970, 1969, 1971, 1971, 1971, 1972, 1972, 1972, 1973, 1972, 1972, 1971, 1972, 1970, 1970, 1969, 1970, 1970, 1970, 1968],
      "WindowCenter": [972.0, 972.0, 972.0, 972.0, 972.0, 971.0, 972.0, 972.0, 972.0, 972.0, 972.0, 972.0, 971.0, 972.0, 971.0, 972.0, 972.0, 971.0, 972.0, 972.0, 971.0, 972.0, 972.0, 972.0, 972.0, 971.0, 971.0, 972.0, 971.0, 972.0, 972.0, 972.0, 971.0, 971.0, 971.0, 971.0, 971.0, 972.0, 972.0, 971.0, 971.0, 971.0, 972.0, 971.0, 971.0, 972.0, 971.0, 971.0, 971.0, 970.0, 971.0, 971.0, 971.0, 970.0, 972.0, 972.0, 970.0, 971.0, 971.0, 971.0, 970.0, 972.0, 971.0, 970.0, 971.0, 970.0, 970.0, 971.0, 972.0, 971.0, 971.0, 971.0, 971.0, 971.0, 971.0, 971.0, 972.0, 971.0, 972.0, 972.0, 971.0, 972.0, 970.0, 971.0, 971.0, 972.0, 970.0, 971.0, 972.0, 972.0, 972.0, 970.0, 971.0, 970.0, 970.0, 972.0, 971.0, 971.0, 972.0, 970.0, 971.0, 971.0, 972.0, 971.0, 971.0, 970.0, 971.0, 971.0, 970.0, 970.0, 971.0, 971.0, 971.0, 971.0, 972.0, 971.0, 971.0, 971.0, 972.0, 971.0, 971.0, 970.0, 971.0, 971.0, 971.0, 971.0, 971.0, 971.0, 971.0, 971.0, 970.0, 971.0, 971.0, 972.0, 971.0, 971.0, 970.0, 969.0, 970.0, 971.0, 970.0, 971.0, 971.0, 970.0, 971.0, 971.0, 971.0, 971.0, 970.0, 971.0, 971.0, 970.0, 971.0, 971.0, 971.0, 972.0, 971.0, 971.0, 971.0, 970.0, 971.0, 971.0, 971.0, 970.0, 970.0, 971.0, 971.0, 971.0, 971.0, 971.0, 971.0, 972.0, 971.0, 970.0, 970.0, 971.0, 971.0, 971.0, 971.0, 970.0, 970.0, 971.0, 970.0, 970.0, 970.0, 971.0, 971.0, 971.0, 971.0, 971.0, 971.0, 971.0, 971.0, 971.0, 970.0, 971.0, 970.0, 969.0, 970.0, 970.0],
      "WindowWidth": [2125.0, 2126.0, 2126.0, 2125.0, 2125.0, 2124.0, 2125.0, 2126.0, 2125.0, 2126.0, 2125.0, 2125.0, 2124.0, 2125.0, 2124.0, 2125.0, 2125.0, 2124.0, 2125.0, 2125.0, 2125.0, 2125.0, 2125.0, 2125.0, 2125.0, 2124.0, 2124.0, 2125.0, 2125.0, 2125.0, 2125.0, 2125.0, 2125.0, 2125.0, 2125.0, 2125.0, 2125.0, 2125.0, 2125.0, 2125.0, 2125.0, 2125.0, 2125.0, 2125.0, 2125.0, 2125.0, 2125.0, 2124.0, 2123.0, 2124.0, 2124.0, 2124.0, 2124.0, 2124.0, 2125.0, 2125.0, 2124.0, 2125.0, 2124.0, 2124.0, 2124.0, 2125.0, 2124.0, 2123.0, 2124.0, 2123.0, 2124.0, 2124.0, 2125.0, 2124.0, 2124.0, 2124.0, 2124.0, 2124.0, 2124.0, 2124.0, 2125.0, 2124.0, 2124.0, 2124.0, 2124.0, 2125.0, 2124.0, 2124.0, 2124.0, 2125.0, 2124.0, 2124.0, 2124.0, 2124.0, 2124.0, 2123.0, 2124.0, 2123.0, 2123.0, 2125.0, 2124.0, 2124.0, 2124.0, 2124.0, 2124.0, 2124.0, 2124.0, 2124.0, 2124.0, 2123.0, 2123.0, 2124.0, 2123.0, 2123.0, 2123.0, 2123.0, 2123.0, 2123.0, 2124.0, 2123.0, 2123.0, 2124.0, 2124.0, 2124.0, 2124.0, 2123.0, 2124.0, 2124.0, 2123.0, 2123.0, 2123.0, 2123.0, 2123.0, 2124.0, 2123.0, 2123.0, 2123.0, 2124.0, 2123.0, 2123.0, 2123.0, 2122.0, 2123.0, 2123.0, 2123.0, 2123.0, 2123.0, 2122.0, 2123.0, 2124.0, 2123.0, 2123.0, 2123.0, 2123.0, 2124.0, 2122.0, 2124.0, 2123.0, 2124.0, 2124.0, 2123.0, 2123.0, 2124.0, 2123.0, 2123.0, 2123.0, 2123.0, 2123.0, 2123.0, 2123.0, 2124.0, 2123.0, 2124.0, 2123.0, 2124.0, 2124.0, 2124.0, 2123.0, 2123.0, 2123.0, 2124.0, 2123.0, 2124.0, 2123.0, 2122.0, 2124.0, 2123.0, 2122.0, 2123.0, 2123.0, 2124.0, 2123.0, 2123.0, 2123.0, 2124.0, 2123.0, 2124.0, 2124.0, 2122.0, 2124.0, 2122.0, 2122.0, 2123.0, 2122.0]
    },
    "slices": {}
  }
}