{
  "AcquisitionMatrixPE": 80,
  "AcquisitionNumber": 1,
  "AcquisitionTime": "09:57:23.487500",
  "BandwidthPerPixelPhaseEncode": 25,
  "BaseResolution": 80,
  "BodyPartExamined": "BRAIN",
  "CoilCombinationMethod": "Sum of Squares",
  "ConsistencyInfo": "N4_VE11C_LATEST_20160120",
  "ConversionSoftware": "dcm2niix",
  "ConversionSoftwareVersion": "v1.0.20220720",
  "DerivedVendorReportedEchoSpacing": 0.0005,
  "DeviceSerialNumber": "66112",
  "DwellTime": 2.7e-06,
  "EchoTime": 0.03,
  "EchoTrainLength": 80,
  "EffectiveEchoSpacing": 0.0005,
  "FlipAngle": 10,
  "HeudiconvVersion": "0.13.1",
  "ImageOrientationPatientDICOM": [0.998388, -0.056595, 0.00435788, 0.0526727, 0.952332, 0.300482],
  "ImageOrientationText": "Tra>Cor(17.4)>Sag(1.2)",
  "ImageType": [
    "ORIGINAL",
    "PRIMARY",
    "M",
    "ND",
    "NORM",
    "MOSAIC"
],
  "ImagingFrequency": 123.252,
  "InPlanePhaseEncodingDirectionDICOM": "COL",
  "InstitutionAddress": "Maynard 3,Hanover,NH,US,03755",
  "InstitutionName": "Dartmouth College - PBS",
  "InstitutionalDepartmentName": "Department",
  "MRAcquisitionType": "2D",
  "MagneticFieldStrength": 3,
  "Manufacturer": "Siemens",
  "ManufacturersModelName": "Prisma",
  "MatrixCoilMode": "SENSE",
  "Modality": "MR",
  "NonlinearGradientCorrection": false,
  "PartialFourier": 1,
  "PatientPosition": "HFS",
  "PercentPhaseFOV": 100,
  "PercentSampling": 100,
  "PhaseEncodingDirection": "j-",
  "PhaseEncodingSteps": 80,
  "PhaseResolution": 1,
  "PixelBandwidth": 2315,
  "ProcedureStepDescription": "dbic^QA",
  "ProtocolName": "func-bold_acq-32ch-10flip",
  "PulseSequenceDetails": "%SiemensSeq%\\ep2d_bold",
  "ReceiveCoilActiveElements": "HEA;HEP",
  "ReceiveCoilName": "Head_32",
  "ReconMatrixPE": 80,
  "RepetitionTime": 2,
  "SAR": 0.0117241,
  "ScanOptions": "FS",
  "ScanningSequence": "EP",
  "SequenceName": "*epfid2d1_80",
  "SequenceVariant": "SK",
  "SeriesDescription": "func-bold_acq-32ch-10flip",
  "SeriesNumber": 10,
  "ShimSetting": [4153, -7699, -7520, 302, -61, -168, -10, 99],
  "SliceThickness": 3.5,
  "SliceTiming": [0.99, 0, 1.0575, 0.0675, 1.1225, 0.1325, 1.1875, 0.2, 1.255, 0.265, 1.32, 0.33, 1.3875, 0.3975, 1.4525, 0.4625, 1.5175, 0.53, 1.585, 0.595, 1.65, 0.66, 1.7175, 0.7275, 1.7825, 0.7925, 1.8475, 0.86, 1.915, 0.925],
  "SoftwareVersions": "syngo MR E11",
  "SpacingBetweenSlices": 3.99,
  "StationName": "AWP66112",
  "TotalReadoutTime": 0.0395,
  "TxRefAmp": 230.83,
  "dcmmeta_affine": [
    [-2.9951632022857666, 0.15801817178726196, 0.08441228419542313, 112.34261322021484],
    [0.16978514194488525, 2.8569955825805664, 1.196075677871704, -129.3890380859375],
    [0.013073637150228024, -0.901447057723999, 3.8055717945098877, -23.844974517822266],
    [0.0, 0.0, 0.0, 1.0]
],
  "dcmmeta_reorient_transform": [
    [0.0, -1.0, 0.0, 79.0],
    [1.0, 0.0, 0.0, 0.0],
    [0.0, 0.0, 1.0, 0.0],
    [0.0, 0.0, 0.0, 1.0]
],
  "dcmmeta_shape": [80, 80, 30, 200],
  "dcmmeta_slice_dim": 2,
  "dcmmeta_version": 0.6,
  "global": {
    "const": {
      "AccessionNumber": "qa",
      "AcquisitionMatrix": [80, 0, 0, 80],
      "AngioFlag": "N",
      "BitsAllocated": 16,
      "BitsStored": 12,
      "BodyPartExamined": "BRAIN",
      "Columns": 480,
      "EchoNumbers": 1,
      "EchoTime": 30.0,
      "EchoTrainLength": 80,
      "FlipAngle": 10.0,
      "HighBit": 11,
      "ImageOrientationPatient": [0.99838770500232, -0.0565950473989, 0.00435787908534, 0.0526727238488, 0.95233184088172, 0.30048236055581],
      "ImagePositionPatient": [-755.4623077869, -633.75568566644, -277.96343857557],
      "ImageType": [
        "ORIGINAL",
        "PRIMARY",
        "M",
        "ND",
        "NORM",
        "MOSAIC"
],
      "ImagedNucleus": "1H",
      "ImagingFrequency": 123.252408,
      "InPlanePhaseEncodingDirection": "COL",
      "MRAcquisitionType": "2D",
      "MagneticFieldStrength": 3.0,
      "Manufacturer": "SIEMENS",
      "ManufacturerModelName": "Prisma",
      "Modality": "MR",
      "NumberOfAverages": 1.0,
      "NumberOfPhaseEncodingSteps": 80,
      "PercentPhaseFieldOfView": 100.0,
      "PercentSampling": 100.0,
      "PerformedProcedureStepStartTime": "093243.087000",
      "PhotometricInterpretation": "MONOCHROME2",
      "PixelBandwidth": 2315.0,
      "PixelRepresentation": 0,
      "PixelSpacing": [3.0, 3.0],
      "ProtocolName": "func-bold_acq-32ch-10flip",
      "RepetitionTime": 2000.0,
      "Rows": 480,
      "SAR": 0.01172408703612,
      "SamplesPerPixel": 1,
      "ScanOptions": "FS",
      "ScanningSequence": "EP",
      "SequenceName": "*epfid2d1_80",
      "SequenceVariant": "SK",
      "SeriesDescription": "func-bold_acq-32ch-10flip",
      "SeriesNumber": 10,
      "SeriesTime": "095805.819000",
      "SliceLocation": -59.152821482889,
      "SliceThickness": 3.5,
      "SmallestImagePixelValue": 0,
      "SoftwareVersions": "syngo MR E11",
      "SpacingBetweenSlices": 3.9899999652043,
      "SpecificCharacterSet": "ISO_IR 100",
      "StudyID": "19",
      "StudyTime": "093243.005000",
      "TransmitCoilName": "Body",
      "VariableFlipAngleFlag": "N",
      "WindowCenterWidthExplanation": "Algo1",
      "dBdt": 0.0},
    "slices": {}
  },
  "time": {
    "samples": {
      "AcquisitionNumber": [1, 2, 3, 4, 5, 6, 7, 8, 9, 10, 11, 12, 13, 14, 15, 16, 17, 18, 19, 20, 21, 22, 23, 24, 25, 26, 27, 28, 29, 30, 31, 32, 33, 34, 35, 36, 37, 38, 39, 40, 41, 42, 43, 44, 45, 46, 47, 48, 49, 50, 51, 52, 53, 54, 55, 56, 57, 58, 59, 60, 61, 62, 63, 64, 65, 66, 67, 68, 69, 70, 71, 72, 73, 74, 75, 76, 77, 78, 79, 80, 81, 82, 83, 84, 85, 86, 87, 88, 89, 90, 91, 92, 93, 94, 95, 96, 97, 98, 99, 100, 101, 102, 103, 104, 105, 106, 107, 108, 109, 110, 111, 112, 113, 114, 115, 116, 117, 118, 119, 120, 121, 122, 123, 124, 125, 126, 127, 128, 129, 130, 131, 132, 133, 134, 135, 136, 137, 138, 139, 140, 141, 142, 143, 144, 145, 146, 147, 148, 149, 150, 151, 152, 153, 154, 155, 156, 157, 158, 159, 160, 161, 162, 163, 164, 165, 166, 167, 168, 169, 170, 171, 172, 173, 174, 175, 176, 177, 178, 179, 180, 181, 182, 183, 184, 185, 186, 187, 188, 189, 190, 191, 192, 193, 194, 195, 196, 197, 198, 199, 200],
      "AcquisitionTime": ["095723.487500", "095725.487500", "095727.487500", "095729.487500", "095731.487500", "095733.487500", "095735.487500", "095737.487500", "095739.487500", "095741.487500", "095743.487500", "095745.487500", "095747.487500", "095749.487500", "095751.487500", "095753.487500", "095755.487500", "095757.487500", "095759.487500", "095801.487500", "095803.487500", "095805.487500", "095807.487500", "095809.487500", "095811.487500", "095813.487500", "095815.487500", "095817.487500", "095819.487500", "095821.487500", "095823.487500", "095825.487500", "095827.487500", "095829.487500", "095831.487500", "095833.487500", "095835.487500", "095837.487500", "095839.487500", "095841.487500", "095843.487500", "095845.487500", "095847.487500", "095849.487500", "095851.487500", "095853.487500", "095855.487500", "095857.487500", "095859.487500", "095901.487500", "095903.487500", "095905.487500", "095907.487500", "095909.487500", "095911.487500", "095913.487500", "095915.487500", "095917.487500", "095919.487500", "095921.487500", "095923.487500", "095925.487500", "095927.487500", "095929.487500", "095931.487500", "095933.487500", "095935.487500", "095937.487500", "095939.487500", "095941.487500", "095943.487500", "095945.487500", "095947.487500", "095949.487500", "095951.487500", "095953.487500", "095955.487500", "095957.487500", "095959.487500", "100001.487500", "100003.487500", "100005.487500", "100007.487500", "100009.487500", "100011.487500", "100013.487500", "100015.487500", "100017.487500", "100019.487500", "100021.487500", "100023.487500", "100025.487500", "100027.487500", "100029.487500", "100031.487500", "100033.487500", "100035.487500", "100037.487500", "100039.487500", "100041.487500", "100043.487500", "100045.487500", "100047.487500", "100049.487500", "100051.487500", "100053.487500", "100055.487500", "100057.487500", "100059.487500", "100101.487500", "100103.487500", "100105.487500", "100107.487500", "100109.487500", "100111.487500", "100113.487500", "100115.487500", "100117.487500", "100119.487500", "100121.487500", "100123.487500", "100125.487500", "100127.487500", "100129.487500", "100131.487500", "100133.487500", "100135.487500", "100137.487500", "100139.487500", "100141.487500", "100143.487500", "100145.487500", "100147.487500", "100149.487500", "100151.487500", "100153.487500", "100155.487500", "100157.487500", "100159.487500", "100201.487500", "100203.487500", "100205.487500", "100207.487500", "100209.487500", "100211.487500", "100213.487500", "100215.487500", "100217.487500", "100219.487500", "100221.487500", "100223.487500", "100225.487500", "100227.487500", "100229.487500", "100231.487500", "100233.487500", "100235.487500", "100237.487500", "100239.487500", "100241.487500", "100243.487500", "100245.487500", "100247.487500", "100249.487500", "100251.487500", "100253.487500", "100255.487500", "100257.487500", "100259.487500", "100301.487500", "100303.487500", "100305.487500", "100307.487500", "100309.487500", "100311.487500", "100313.487500", "100315.487500", "100317.487500", "100319.487500", "100321.487500", "100323.487500", "100325.487500", "100327.487500", "100329.487500", "100331.487500", "100333.487500", "100335.487500", "100337.487500", "100339.487500", "100341.487500", "100343.487500", "100345.487500", "100347.487500", "100349.487500", "100351.487500", "100353.487500", "100355.487500", "100357.487500", "100359.487500", "100401.487500"],
      "ContentTime": ["095805.826000", "095805.830000", "095805.832000", "095805.835000", "095805.837000", "095805.840000", "095805.842000", "095805.845000", "095805.848000", "095805.854000", "095805.857000", "095805.859000", "095805.862000", "095805.864000", "095805.867000", "095805.869000", "095805.872000", "095805.874000", "095805.877000", "095805.879000", "095805.882000", "095845.808000", "095845.811000", "095845.814000", "095845.817000", "095845.819000", "095845.822000", "095845.824000", "095845.827000", "095845.830000", "095845.832000", "095845.835000", "095845.837000", "095845.840000", "095845.842000", "095845.845000", "095845.847000", "095845.850000", "095845.852000", "095845.855000", "095845.857000", "095925.808000", "095925.811000", "095925.814000", "095925.817000", "095925.819000", "095925.822000", "095925.825000", "095925.828000", "095925.830000", "095925.833000", "095925.835000", "095925.838000", "095925.840000", "095925.843000", "095925.845000", "095925.848000", "095925.850000", "095925.853000", "095925.855000", "095925.858000", "100005.808000", "100005.811000", "100005.814000", "100005.816000", "100005.819000", "100005.822000", "100005.824000", "100005.827000", "100005.830000", "100005.832000", "100005.835000", "100005.837000", "100005.840000", "100005.842000", "100005.845000", "100005.848000", "100005.850000", "100005.853000", "100005.855000", "100005.858000", "100045.809000", "100045.811000", "100045.814000", "100045.817000", "100045.819000", "100045.822000", "100045.825000", "100045.827000", "100045.830000", "100045.832000", "100045.835000", "100045.838000", "100045.840000", "100045.843000", "100045.845000", "100045.848000", "100045.850000", "100045.853000", "100045.855000", "100045.858000", "100125.808000", "100125.811000", "100125.814000", "100125.816000", "100125.819000", "100125.822000", "100125.824000", "100125.827000", "100125.830000", "100125.832000", "100125.835000", "100125.837000", "100125.840000", "100125.842000", "100125.845000", "100125.847000", "100125.850000", "100125.852000", "100125.855000", "100125.858000", "100205.808000", "100205.811000", "100205.823000", "100205.826000", "100205.828000", "100205.831000", "100205.833000", "100205.836000", "100205.838000", "100205.841000", "100205.843000", "100205.846000", "100205.853000", "100205.855000", "100205.858000", "100205.861000", "100205.863000", "100205.866000", "100205.868000", "100205.871000", "100245.808000", "100245.811000", "100245.814000", "100245.817000", "100245.819000", "100245.822000", "100245.825000", "100245.827000", "100245.830000", "100245.832000", "100245.835000", "100245.838000", "100245.840000", "100245.843000", "100245.845000", "100245.848000", "100245.850000", "100245.853000", "100245.855000", "100245.858000", "100325.808000", "100325.811000", "100325.814000", "100325.817000", "100325.819000", "100325.822000", "100325.825000", "100325.827000", "100325.830000", "100325.832000", "100325.843000", "100325.846000", "100325.848000", "100325.851000", "100325.853000", "100325.856000", "100325.858000", "100325.861000", "100325.863000", "100325.866000", "100402.815000", "100402.818000", "100402.820000", "100402.823000", "100402.826000", "100402.828000", "100402.831000", "100402.834000", "100402.836000", "100402.839000", "100402.841000", "100402.844000", "100402.850000", "100402.860000", "100402.865000", "100402.868000", "100402.872000", "100402.876000", "100402.879000"],
      "InstanceCreationTime": ["095805.826000", "095805.830000", "095805.832000", "095805.835000", "095805.837000", "095805.840000", "095805.842000", "095805.845000", "095805.848000", "095805.854000", "095805.857000", "095805.859000", "095805.862000", "095805.864000", "095805.867000", "095805.869000", "095805.872000", "095805.874000", "095805.877000", "095805.879000", "095805.882000", "095845.808000", "095845.811000", "095845.814000", "095845.817000", "095845.819000", "095845.822000", "095845.824000", "095845.827000", "095845.830000", "095845.832000", "095845.835000", "095845.837000", "095845.840000", "095845.842000", "095845.845000", "095845.847000", "095845.850000", "095845.852000", "095845.855000", "095845.857000", "095925.808000", "095925.811000", "095925.814000", "095925.817000", "095925.819000", "095925.822000", "095925.825000", "095925.828000", "095925.830000", "095925.833000", "095925.835000", "095925.838000", "095925.840000", "095925.843000", "095925.845000", "095925.848000", "095925.850000", "095925.853000", "095925.855000", "095925.858000", "100005.808000", "100005.811000", "100005.814000", "100005.816000", "100005.819000", "100005.822000", "100005.824000", "100005.827000", "100005.830000", "100005.832000", "100005.835000", "100005.837000", "100005.840000", "100005.842000", "100005.845000", "100005.848000", "100005.850000", "100005.853000", "100005.855000", "100005.858000", "100045.809000", "100045.811000", "100045.814000", "100045.817000", "100045.819000", "100045.822000", "100045.825000", "100045.827000", "100045.830000", "100045.832000", "100045.835000", "100045.838000", "100045.840000", "100045.843000", "100045.845000", "100045.848000", "100045.850000", "100045.853000", "100045.855000", "100045.858000", "100125.808000", "100125.811000", "100125.814000", "100125.816000", "100125.819000", "100125.822000", "100125.824000", "100125.827000", "100125.830000", "100125.832000", "100125.835000", "100125.837000", "100125.840000", "100125.842000", "100125.845000", "100125.847000", "100125.850000", "100125.852000", "100125.855000", "100125.858000", "100205.808000", "100205.811000", "100205.823000", "100205.826000", "100205.828000", "100205.831000", "100205.833000", "100205.836000", "100205.838000", "100205.841000", "100205.843000", "100205.846000", "100205.853000", "100205.855000", "100205.858000", "100205.861000", "100205.863000", "100205.866000", "100205.868000", "100205.871000", "100245.808000", "100245.811000", "100245.814000", "100245.817000", "100245.819000", "100245.822000", "100245.825000", "100245.827000", "100245.830000", "100245.832000", "100245.835000", "100245.838000", "100245.840000", "100245.843000", "100245.845000", "100245.848000", "100245.850000", "100245.853000", "100245.855000", "100245.858000", "100325.808000", "100325.811000", "100325.814000", "100325.817000", "100325.819000", "100325.822000", "100325.825000", "100325.827000", "100325.830000", "100325.832000", "100325.843000", "100325.846000", "100325.848000", "100325.851000", "100325.853000", "100325.856000", "100325.858000", "100325.861000", "100325.863000", "100325.866000", "100402.815000", "100402.818000", "100402.820000", "100402.823000", "100402.826000", "100402.828000", "100402.831000", "100402.834000", "100402.836000", "100402.839000", "100402.841000", "100402.844000", "100402.850000", "100402.860000", "100402.865000", "100402.868000", "100402.872000", "100402.876000", "100402.879000"],
      "InstanceNumber": [1, 2, 3, 4, 5, 6, 7, 8, 9, 10, 11, 12, 13, 14, 15, 16, 17, 18, 19, 20, 21, 22, 23, 24, 25, 26, 27, 28, 29, 30, 31, 32, 33, 34, 35, 36, 37, 38, 39, 40, 41, 42, 43, 44, 45, 46, 47, 48, 49, 50, 51, 52, 53, 54, 55, 56, 57, 58, 59, 60, 61, 62, 63, 64, 65, 66, 67, 68, 69, 70, 71, 72, 73, 74, 75, 76, 77, 78, 79, 80, 81, 82, 83, 84, 85, 86, 87, 88, 89, 90, 91, 92, 93, 94, 95, 96, 97, 98, 99, 100, 101, 102, 103, 104, 105, 106, 107, 108, 109, 110, 111, 112, 113, 114, 115, 116, 117, 118, 119, 120, 121, 122, 123, 124, 125, 126, 127, 128, 129, 130, 131, 132, 133, 134, 135, 136, 137, 138, 139, 140, 141, 142, 143, 144, 145, 146, 147, 148, 149, 150, 151, 152, 153, 154, 155, 156, 157, 158, 159, 160, 161, 162, 163, 164, 165, 166, 167, 168, 169, 170, 171, 172, 173, 174, 175, 176, 177, 178, 179, 180, 181, 182, 183, 184, 185, 186, 187, 188, 189, 190, 191, 192, 193, 194, 195, 196, 197, 198, 199, 200],
      "LargestImagePixelValue": [337, 335, 337, 337, 336, 337, 336, 338, 337, 336, 335, 336, 338, 339, 338, 337, 337, 336, 337, 336, 335, 337, 338, 337, 338, 337, 337, 337, 337, 336, 337, 337, 337, 336, 336, 336, 335, 336, 337, 337, 338, 337, 335, 336, 338, 336, 338, 336, 337, 339, 336, 335, 335, 337, 337, 338, 336, 337, 336, 336, 336, 336, 336, 337, 337, 336, 336, 338, 336, 336, 335, 337, 335, 337, 338, 336, 336, 336, 338, 336, 337, 335, 337, 336, 337, 336, 337, 337, 336, 336, 334, 334, 337, 337, 335, 336, 335, 335, 337, 336, 337, 339, 336, 337, 336, 337, 336, 337, 336, 336, 337, 337, 336, 338, 337, 337, 337, 336, 335, 335, 337, 336, 336, 336, 336, 336, 336, 337, 336, 335, 336, 338, 338, 336, 336, 336, 337, 336, 336, 336, 337, 336, 336, 338, 337, 338, 337, 337, 337, 335, 334, 337, 335, 336, 336, 337, 337, 337, 337, 336, 338, 336, 335, 337, 337, 337, 336, 336, 338, 336, 336, 335, 335, 336, 335, 334, 337, 338, 336, 336, 335, 335, 338, 336, 338, 337, 335, 335, 336, 336, 336, 335, 337, 337, 337, 334, 337, 337, 337, 335],
      "WindowCenter": [278.0, 278.0, 278.0, 278.0, 278.0, 277.0, 278.0, 278.0, 278.0, 278.0, 278.0, 277.0, 278.0, 278.0, 278.0, 278.0, 278.0, 278.0, 278.0, 277.0, 278.0, 278.0, 278.0, 278.0, 278.0, 278.0, 278.0, 278.0, 278.0, 278.0, 278.0, 278.0, 278.0, 278.0, 278.0, 278.0, 278.0, 278.0, 278.0, 278.0, 278.0, 278.0, 278.0, 278.0, 278.0, 278.0, 278.0, 277.0, 278.0, 278.0, 277.0, 278.0, 278.0, 278.0, 278.0, 278.0, 278.0, 278.0, 277.0, 278.0, 278.0, 278.0, 278.0, 277.0, 278.0, 278.0, 278.0, 278.0, 278.0, 278.0, 278.0, 278.0, 277.0, 278.0, 277.0, 277.0, 278.0, 277.0, 278.0, 278.0, 278.0, 277.0, 278.0, 277.0, 277.0, 277.0, 278.0, 277.0, 277.0, 277.0, 277.0, 278.0, 277.0, 277.0, 278.0, 278.0, 277.0, 277.0, 277.0, 277.0, 278.0, 278.0, 277.0, 277.0, 277.0, 277.0, 278.0, 277.0, 278.0, 277.0, 278.0, 277.0, 277.0, 277.0, 278.0, 278.0, 278.0, 277.0, 278.0, 277.0, 277.0, 278.0, 277.0, 277.0, 278.0, 277.0, 277.0, 278.0, 278.0, 277.0, 277.0, 277.0, 277.0, 278.0, 277.0, 277.0, 277.0, 278.0, 278.0, 278.0, 277.0, 278.0, 277.0, 278.0, 278.0, 278.0, 278.0, 277.0, 277.0, 278.0, 277.0, 277.0, 277.0, 277.0, 277.0, 277.0, 278.0, 277.0, 277.0, 277.0, 277.0, 277.0, 277.0, 277.0, 278.0, 277.0, 277.0, 277.0, 277.0, 278.0, 277.0, 277.0, 277.0, 277.0, 277.0, 277.0, 277.0, 278.0, 277.0, 277.0, 277.0, 278.0, 277.0, 277.0, 278.0, 277.0, 278.0, 277.0, 277.0, 277.0, 277.0, 277.0, 277.0, 277.0, 277.0, 277.0, 277.0, 278.0, 277.0, 277.0],
      "WindowWidth": [607.0, 607.0, 607.0, 607.0, 607.0, 607.0, 607.0, 607.0, 607.0, 607.0, 607.0, 607.0, 607.0, 607.0, 607.0, 607.0, 607.0, 607.0, 607.0, 607.0, 607.0, 607.0, 607.0, 607.0, 607.0, 607.0, 607.0, 607.0, 607.0, 607.0, 607.0, 607.0, 607.0, 607.0, 607.0, 607.0, 607.0, 607.0, 607.0, 607.0, 607.0, 607.0, 607.0, 607.0, 607.0, 607.0, 607.0, 607.0, 607.0, 607.0, 607.0, 607.0, 607.0, 607.0, 607.0, 607.0, 607.0, 607.0, 607.0, 607.0, 607.0, 607.0, 607.0, 607.0, 607.0, 607.0, 607.0, 607.0, 607.0, 607.0, 607.0, 607.0, 607.0, 607.0, 607.0, 607.0, 607.0, 607.0, 607.0, 607.0, 607.0, 607.0, 607.0, 607.0, 607.0, 607.0, 607.0, 607.0, 607.0, 607.0, 607.0, 607.0, 607.0, 607.0, 607.0, 607.0, 607.0, 607.0, 607.0, 606.0, 607.0, 607.0, 607.0, 607.0, 607.0, 606.0, 607.0, 607.0, 607.0, 607.0, 607.0, 607.0, 607.0, 606.0, 607.0, 607.0, 607.0, 606.0, 607.0, 607.0, 607.0, 607.0, 606.0, 606.0, 607.0, 607.0, 607.0, 607.0, 607.0, 607.0, 607.0, 607.0, 607.0, 607.0, 606.0, 607.0, 606.0, 607.0, 607.0, 607.0, 606.0, 607.0, 607.0, 607.0, 607.0, 607.0, 607.0, 606.0, 606.0, 607.0, 606.0, 606.0, 606.0, 606.0, 606.0, 606.0, 607.0, 606.0, 606.0, 606.0, 606.0, 606.0, 606.0, 606.0, 607.0, 606.0, 606.0, 606.0, 606.0, 607.0, 606.0, 606.0, 606.0, 606.0, 606.0, 606.0, 606.0, 607.0, 606.0, 606.0, 606.0, 607.0, 606.0, 606.0, 607.0, 606.0, 607.0, 606.0, 607.0, 607.0, 606.0, 606.0, 606.0, 606.0, 606.0, 606.0, 606.0, 607.0, 606.0, 607.0]
    },
    "slices": {}
  }
}