{
  "AcquisitionMatrixPE": 80,
  "AcquisitionNumber": 1,
  "AcquisitionTime": "09:32:40.472500",
  "BandwidthPerPixelPhaseEncode": 25,
  "BaseResolution": 80,
  "BodyPartExamined": "BRAIN",
  "CoilCombinationMethod": "Sum of Squares",
  "ConsistencyInfo": "N4_VE11E_LATEST_20181129",
  "ConversionSoftware": "dcm2niix",
  "ConversionSoftwareVersion": "v1.0.20220720",
  "DerivedVendorReportedEchoSpacing": 0.0005,
  "DeviceSerialNumber": "66112",
  "DwellTime": 2.7e-06,
  "EchoTime": 0.03,
  "EchoTrainLength": 80,
  "EffectiveEchoSpacing": 0.0005,
  "FlipAngle": 10,
  "HeudiconvVersion": "0.13.1",
  "ImageOrientationPatientDICOM": [0.999971, 0.00672721, 0.00363329, -0.00750483, 0.954429, 0.298343],
  "ImageOrientationText": "Tra>Cor(17.4)>Sag(0.1)",
  "ImageType": [
    "ORIGINAL",
    "PRIMARY",
    "M",
    "ND",
    "NORM",
    "MOSAIC"
],
  "ImagingFrequency": 123.252,
  "InPlanePhaseEncodingDirectionDICOM": "COL",
  "InstitutionAddress": "Maynard 3,Hanover,NH,US,03755",
  "InstitutionName": "Dartmouth College - PBS",
  "InstitutionalDepartmentName": "Department",
  "MRAcquisitionType": "2D",
  "MagneticFieldStrength": 3,
  "Manufacturer": "Siemens",
  "ManufacturersModelName": "Prisma",
  "MatrixCoilMode": "SENSE",
  "Modality": "MR",
  "NonlinearGradientCorrection": false,
  "PartialFourier": 1,
  "PatientPosition": "HFS",
  "PercentPhaseFOV": 100,
  "PercentSampling": 100,
  "PhaseEncodingDirection": "j-",
  "PhaseEncodingSteps": 80,
  "PhaseResolution": 1,
  "PixelBandwidth": 2315,
  "ProcedureStepDescription": "dbic^QA",
  "ProtocolName": "func-bold_fa-10",
  "PulseSequenceDetails": "%SiemensSeq%\\ep2d_bold",
  "ReceiveCoilActiveElements": "HEA;HEP",
  "ReceiveCoilName": "Head_32",
  "ReconMatrixPE": 80,
  "RepetitionTime": 2,
  "SAR": 0.00992617,
  "ScanOptions": "FS",
  "ScanningSequence": "EP",
  "SequenceName": "*epfid2d1_80",
  "SequenceVariant": "SK",
  "SeriesDescription": "func-bold_fa-10",
  "SeriesNumber": 10,
  "ShimSetting": [4144, -7708, -7522, 283, -54, -123, 54, 81],
  "SliceThickness": 3.5,
  "SliceTiming": [0.99, 0, 1.055, 0.065, 1.12, 0.13, 1.1875, 0.1975, 1.2525, 0.2625, 1.3175, 0.33, 1.385, 0.395, 1.45, 0.46, 1.5175, 0.5275, 1.5825, 0.5925, 1.6475, 0.66, 1.715, 0.725, 1.78, 0.79, 1.8475, 0.8575, 1.9125, 0.9225],
  "SoftwareVersions": "syngo MR E11",
  "SpacingBetweenSlices": 3.99,
  "StationName": "AWP66112",
  "TotalReadoutTime": 0.0395,
  "TxRefAmp": 224.643,
  "dcmmeta_affine": [
    [-2.9999122619628906, -0.022514505311846733, 0.005828199442476034, 121.48690795898438],
    [-0.02018163911998272, 2.8632876873016357, 1.1904628276824951, -121.72218322753906],
    [0.01089987251907587, -0.8950292468070984, 3.808262586593628, -21.42780876159668],
    [0.0, 0.0, 0.0, 1.0]
],
  "dcmmeta_reorient_transform": [
    [0.0, -1.0, 0.0, 79.0],
    [1.0, 0.0, 0.0, 0.0],
    [0.0, 0.0, 1.0, 0.0],
    [0.0, 0.0, 0.0, 1.0]
],
  "dcmmeta_shape": [80, 80, 30, 200],
  "dcmmeta_slice_dim": 2,
  "dcmmeta_version": 0.6,
  "global": {
    "const": {
      "AccessionNumber": "qa",
      "AcquisitionMatrix": [80, 0, 0, 80],
      "AngioFlag": "N",
      "BitsAllocated": 16,
      "BitsStored": 12,
      "BodyPartExamined": "BRAIN",
      "Columns": 480,
      "EchoNumbers": 1,
      "EchoTime": 30.0,
      "EchoTrainLength": 80,
      "FlipAngle": 10.0,
      "HighBit": 11,
      "ImageOrientationPatient": [0.99997077147561, 0.00672721278262, 0.00363329088337, -0.0075048348033, 0.9544291949623, 0.29834307308564],
      "ImagePositionPatient": [-715.18782486796, -681.17138081877, -273.32093509114],
      "ImageType": [
        "ORIGINAL",
        "PRIMARY",
        "M",
        "ND",
        "NORM",
        "MOSAIC"
],
      "ImagedNucleus": "1H",
      "ImagingFrequency": 123.252355,
      "InPlanePhaseEncodingDirection": "COL",
      "MRAcquisitionType": "2D",
      "MagneticFieldStrength": 3.0,
      "Manufacturer": "SIEMENS",
      "ManufacturerModelName": "Prisma",
      "Modality": "MR",
      "NumberOfAverages": 1.0,
      "NumberOfPhaseEncodingSteps": 80,
      "PercentPhaseFieldOfView": 100.0,
      "PercentSampling": 100.0,
      "PerformedProcedureStepStartTime": "090824.917000",
      "PhotometricInterpretation": "MONOCHROME2",
      "PixelBandwidth": 2315.0,
      "PixelRepresentation": 0,
      "PixelSpacing": [3.0, 3.0],
      "ProtocolName": "func-bold_fa-10",
      "RepetitionTime": 2000.0,
      "Rows": 480,
      "SAR": 0.00992617429226,
      "SamplesPerPixel": 1,
      "ScanOptions": "FS",
      "ScanningSequence": "EP",
      "SequenceName": "*epfid2d1_80",
      "SequenceVariant": "SK",
      "SeriesDescription": "func-bold_fa-10",
      "SeriesNumber": 10,
      "SeriesTime": "093308.362000",
      "SliceLocation": -56.591581593772,
      "SliceThickness": 3.5,
      "SmallestImagePixelValue": 0,
      "SoftwareVersions": "syngo MR E11",
      "SpacingBetweenSlices": 3.9900000476663,
      "SpecificCharacterSet": "ISO_IR 100",
      "StudyID": "9",
      "StudyTime": "090824.884000",
      "TransmitCoilName": "Body",
      "VariableFlipAngleFlag": "N",
      "WindowCenterWidthExplanation": "Algo1"
    },
    "slices": {}
  },
  "time": {
    "samples": {
      "AcquisitionNumber": [1, 2, 3, 4, 5, 6, 7, 8, 9, 10, 11, 12, 13, 14, 15, 16, 17, 18, 19, 20, 21, 22, 23, 24, 25, 26, 27, 28, 29, 30, 31, 32, 33, 34, 35, 36, 37, 38, 39, 40, 41, 42, 43, 44, 45, 46, 47, 48, 49, 50, 51, 52, 53, 54, 55, 56, 57, 58, 59, 60, 61, 62, 63, 64, 65, 66, 67, 68, 69, 70, 71, 72, 73, 74, 75, 76, 77, 78, 79, 80, 81, 82, 83, 84, 85, 86, 87, 88, 89, 90, 91, 92, 93, 94, 95, 96, 97, 98, 99, 100, 101, 102, 103, 104, 105, 106, 107, 108, 109, 110, 111, 112, 113, 114, 115, 116, 117, 118, 119, 120, 121, 122, 123, 124, 125, 126, 127, 128, 129, 130, 131, 132, 133, 134, 135, 136, 137, 138, 139, 140, 141, 142, 143, 144, 145, 146, 147, 148, 149, 150, 151, 152, 153, 154, 155, 156, 157, 158, 159, 160, 161, 162, 163, 164, 165, 166, 167, 168, 169, 170, 171, 172, 173, 174, 175, 176, 177, 178, 179, 180, 181, 182, 183, 184, 185, 186, 187, 188, 189, 190, 191, 192, 193, 194, 195, 196, 197, 198, 199, 200],
      "AcquisitionTime": ["093240.472500", "093242.472500", "093244.472500", "093246.472500", "093248.472500", "093250.472500", "093252.472500", "093254.472500", "093256.472500", "093258.472500", "093300.472500", "093302.472500", "093304.472500", "093306.472500", "093308.472500", "093310.472500", "093312.472500", "093314.472500", "093316.472500", "093318.472500", "093320.472500", "093322.472500", "093324.472500", "093326.472500", "093328.472500", "093330.472500", "093332.472500", "093334.472500", "093336.472500", "093338.472500", "093340.472500", "093342.472500", "093344.472500", "093346.472500", "093348.472500", "093350.472500", "093352.472500", "093354.472500", "093356.472500", "093358.472500", "093400.472500", "093402.472500", "093404.472500", "093406.472500", "093408.472500", "093410.472500", "093412.472500", "093414.472500", "093416.472500", "093418.472500", "093420.472500", "093422.472500", "093424.472500", "093426.472500", "093428.472500", "093430.472500", "093432.472500", "093434.472500", "093436.472500", "093438.472500", "093440.472500", "093442.472500", "093444.472500", "093446.472500", "093448.472500", "093450.472500", "093452.472500", "093454.472500", "093456.472500", "093458.472500", "093500.472500", "093502.472500", "093504.472500", "093506.472500", "093508.472500", "093510.472500", "093512.472500", "093514.472500", "093516.472500", "093518.472500", "093520.472500", "093522.472500", "093524.472500", "093526.472500", "093528.472500", "093530.472500", "093532.472500", "093534.472500", "093536.472500", "093538.472500", "093540.472500", "093542.472500", "093544.472500", "093546.472500", "093548.472500", "093550.472500", "093552.472500", "093554.472500", "093556.472500", "093558.472500", "093600.472500", "093602.472500", "093604.472500", "093606.472500", "093608.472500", "093610.472500", "093612.472500", "093614.472500", "093616.472500", "093618.472500", "093620.472500", "093622.472500", "093624.472500", "093626.472500", "093628.472500", "093630.472500", "093632.472500", "093634.472500", "093636.472500", "093638.472500", "093640.472500", "093642.472500", "093644.472500", "093646.472500", "093648.472500", "093650.472500", "093652.472500", "093654.472500", "093656.472500", "093658.472500", "093700.472500", "093702.472500", "093704.472500", "093706.472500", "093708.472500", "093710.472500", "093712.472500", "093714.472500", "093716.472500", "093718.472500", "093720.472500", "093722.472500", "093724.472500", "093726.472500", "093728.472500", "093730.472500", "093732.472500", "093734.472500", "093736.472500", "093738.472500", "093740.472500", "093742.472500", "093744.472500", "093746.472500", "093748.472500", "093750.472500", "093752.472500", "093754.472500", "093756.472500", "093758.472500", "093800.472500", "093802.472500", "093804.472500", "093806.472500", "093808.472500", "093810.472500", "093812.472500", "093814.472500", "093816.472500", "093818.472500", "093820.472500", "093822.472500", "093824.472500", "093826.472500", "093828.472500", "093830.472500", "093832.472500", "093834.472500", "093836.472500", "093838.472500", "093840.472500", "093842.472500", "093844.472500", "093846.472500", "093848.472500", "093850.472500", "093852.472500", "093854.472500", "093856.472500", "093858.472500", "093900.472500", "093902.472500", "093904.472500", "093906.472500", "093908.472500", "093910.472500", "093912.472500", "093914.472500", "093916.472500", "093918.472500"],
      "ContentTime": ["093308.365000", "093308.368000", "093308.370000", "093308.373000", "093308.375000", "093308.385000", "093308.393000", "093308.396000", "093308.398000", "093308.400000", "093308.402000", "093308.405000", "093308.407000", "093308.409000", "093348.361000", "093348.364000", "093348.367000", "093348.369000", "093348.371000", "093348.374000", "093348.376000", "093348.379000", "093348.381000", "093348.383000", "093348.386000", "093348.388000", "093348.390000", "093348.393000", "093348.395000", "093348.397000", "093348.400000", "093348.402000", "093348.404000", "093348.418000", "093428.361000", "093428.364000", "093428.366000", "093428.368000", "093428.371000", "093428.373000", "093428.375000", "093428.378000", "093428.380000", "093428.382000", "093428.385000", "093428.387000", "093428.389000", "093428.391000", "093428.394000", "093428.396000", "093428.398000", "093428.401000", "093428.403000", "093428.405000", "093508.360000", "093508.363000", "093508.366000", "093508.368000", "093508.370000", "093508.373000", "093508.375000", "093508.377000", "093508.379000", "093508.382000", "093508.384000", "093508.386000", "093508.389000", "093508.391000", "093508.393000", "093508.396000", "093508.398000", "093508.400000", "093508.403000", "093508.405000", "093548.361000", "093548.364000", "093548.373000", "093548.375000", "093548.377000", "093548.385000", "093548.387000", "093548.390000", "093548.392000", "093548.395000", "093548.403000", "093548.405000", "093548.408000", "093548.410000", "093548.412000", "093548.414000", "093548.417000", "093548.419000", "093548.421000", "093548.424000", "093628.361000", "093628.364000", "093628.366000", "093628.369000", "093628.371000", "093628.373000", "093628.375000", "093628.378000", "093628.380000", "093628.382000", "093628.393000", "093628.396000", "093628.398000", "093628.400000", "093628.403000", "093628.405000", "093628.407000", "093628.410000", "093628.412000", "093628.414000", "093708.360000", "093708.363000", "093708.365000", "093708.368000", "093708.370000", "093708.373000", "093708.375000", "093708.377000", "093708.380000", "093708.382000", "093708.384000", "093708.387000", "093708.389000", "093708.391000", "093708.394000", "093708.396000", "093708.398000", "093708.401000", "093708.403000", "093708.405000", "093748.360000", "093748.363000", "093748.365000", "093748.367000", "093748.370000", "093748.373000", "093748.375000", "093748.377000", "093748.380000", "093748.382000", "093748.385000", "093748.387000", "093748.390000", "093748.392000", "093748.394000", "093748.397000", "093748.399000", "093748.402000", "093748.404000", "093748.406000", "093828.361000", "093828.364000", "093828.385000", "093828.388000", "093828.390000", "093828.393000", "093828.395000", "093828.397000", "093828.400000", "093828.402000", "093828.404000", "093828.406000", "093828.409000", "093828.411000", "093828.413000", "093828.416000", "093828.418000", "093828.421000", "093828.423000", "093828.425000", "093908.360000", "093908.363000", "093908.365000", "093908.367000", "093908.370000", "093908.372000", "093908.375000", "093908.377000", "093908.379000", "093908.382000", "093908.384000", "093908.386000", "093908.389000", "093908.391000", "093908.393000", "093908.396000", "093908.398000", "093908.400000", "093908.403000", "093908.405000", "093919.604000", "093919.606000", "093919.609000", "093919.611000", "093919.614000", "093919.616000"],
      "InstanceCreationTime": ["093308.365000", "093308.368000", "093308.370000", "093308.373000", "093308.375000", "093308.385000", "093308.393000", "093308.396000", "093308.398000", "093308.400000", "093308.402000", "093308.405000", "093308.407000", "093308.409000", "093348.361000", "093348.364000", "093348.367000", "093348.369000", "093348.371000", "093348.374000", "093348.376000", "093348.379000", "093348.381000", "093348.383000", "093348.386000", "093348.388000", "093348.390000", "093348.393000", "093348.395000", "093348.397000", "093348.400000", "093348.402000", "093348.404000", "093348.418000", "093428.361000", "093428.364000", "093428.366000", "093428.368000", "093428.371000", "093428.373000", "093428.375000", "093428.378000", "093428.380000", "093428.382000", "093428.385000", "093428.387000", "093428.389000", "093428.391000", "093428.394000", "093428.396000", "093428.398000", "093428.401000", "093428.403000", "093428.405000", "093508.360000", "093508.363000", "093508.366000", "093508.368000", "093508.370000", "093508.373000", "093508.375000", "093508.377000", "093508.379000", "093508.382000", "093508.384000", "093508.386000", "093508.389000", "093508.391000", "093508.393000", "093508.396000", "093508.398000", "093508.400000", "093508.403000", "093508.405000", "093548.361000", "093548.364000", "093548.373000", "093548.375000", "093548.377000", "093548.385000", "093548.387000", "093548.390000", "093548.392000", "093548.395000", "093548.403000", "093548.405000", "093548.408000", "093548.410000", "093548.412000", "093548.414000", "093548.417000", "093548.419000", "093548.421000", "093548.424000", "093628.361000", "093628.364000", "093628.366000", "093628.369000", "093628.371000", "093628.373000", "093628.375000", "093628.378000", "093628.380000", "093628.382000", "093628.393000", "093628.396000", "093628.398000", "093628.400000", "093628.403000", "093628.405000", "093628.407000", "093628.410000", "093628.412000", "093628.414000", "093708.360000", "093708.363000", "093708.365000", "093708.368000", "093708.370000", "093708.373000", "093708.375000", "093708.377000", "093708.380000", "093708.382000", "093708.384000", "093708.387000", "093708.389000", "093708.391000", "093708.394000", "093708.396000", "093708.398000", "093708.401000", "093708.403000", "093708.405000", "093748.360000", "093748.363000", "093748.365000", "093748.367000", "093748.370000", "093748.373000", "093748.375000", "093748.377000", "093748.380000", "093748.382000", "093748.385000", "093748.387000", "093748.390000", "093748.392000", "093748.394000", "093748.397000", "093748.399000", "093748.402000", "093748.404000", "093748.406000", "093828.361000", "093828.364000", "093828.385000", "093828.388000", "093828.390000", "093828.393000", "093828.395000", "093828.397000", "093828.400000", "093828.402000", "093828.404000", "093828.406000", "093828.409000", "093828.411000", "093828.413000", "093828.416000", "093828.418000", "093828.421000", "093828.423000", "093828.425000", "093908.360000", "093908.363000", "093908.365000", "093908.367000", "093908.370000", "093908.372000", "093908.375000", "093908.377000", "093908.379000", "093908.382000", "093908.384000", "093908.386000", "093908.389000", "093908.391000", "093908.393000", "093908.396000", "093908.398000", "093908.400000", "093908.403000", "093908.405000", "093919.604000", "093919.606000", "093919.609000", "093919.611000", "093919.614000", "093919.616000"],
      "InstanceNumber": [1, 2, 3, 4, 5, 6, 7, 8, 9, 10, 11, 12, 13, 14, 15, 16, 17, 18, 19, 20, 21, 22, 23, 24, 25, 26, 27, 28, 29, 30, 31, 32, 33, 34, 35, 36, 37, 38, 39, 40, 41, 42, 43, 44, 45, 46, 47, 48, 49, 50, 51, 52, 53, 54, 55, 56, 57, 58, 59, 60, 61, 62, 63, 64, 65, 66, 67, 68, 69, 70, 71, 72, 73, 74, 75, 76, 77, 78, 79, 80, 81, 82, 83, 84, 85, 86, 87, 88, 89, 90, 91, 92, 93, 94, 95, 96, 97, 98, 99, 100, 101, 102, 103, 104, 105, 106, 107, 108, 109, 110, 111, 112, 113, 114, 115, 116, 117, 118, 119, 120, 121, 122, 123, 124, 125, 126, 127, 128, 129, 130, 131, 132, 133, 134, 135, 136, 137, 138, 139, 140, 141, 142, 143, 144, 145, 146, 147, 148, 149, 150, 151, 152, 153, 154, 155, 156, 157, 158, 159, 160, 161, 162, 163, 164, 165, 166, 167, 168, 169, 170, 171, 172, 173, 174, 175, 176, 177, 178, 179, 180, 181, 182, 183, 184, 185, 186, 187, 188, 189, 190, 191, 192, 193, 194, 195, 196, 197, 198, 199, 200],
      "LargestImagePixelValue": [369, 370, 371, 369, 371, 370, 370, 372, 369, 370, 368, 368, 367, 371, 370, 370, 371, 372, 371, 371, 369, 369, 371, 373, 367, 369, 374, 371, 367, 370, 370, 371, 367, 375, 369, 370, 373, 372, 370, 371, 370, 371, 368, 368, 370, 369, 370, 369, 374, 372, 370, 372, 369, 369, 372, 373, 369, 371, 370, 368, 370, 368, 376, 372, 370, 372, 366, 371, 371, 370, 368, 370, 373, 371, 370, 376, 370, 371, 368, 372, 369, 371, 368, 371, 368, 368, 374, 368, 369, 368, 369, 369, 369, 371, 370, 370, 369, 372, 370, 370, 367, 370, 367, 374, 368, 368, 370, 368, 375, 368, 369, 370, 367, 367, 370, 365, 369, 368, 368, 370, 368, 370, 371, 368, 371, 368, 367, 370, 370, 372, 371, 367, 371, 368, 369, 368, 369, 369, 370, 367, 372, 369, 374, 368, 368, 368, 368, 368, 368, 370, 368, 369, 371, 370, 370, 368, 371, 371, 374, 367, 368, 369, 367, 372, 370, 371, 369, 368, 371, 372, 372, 368, 369, 367, 366, 370, 367, 367, 371, 370, 369, 369, 367, 369, 369, 370, 374, 367, 372, 367, 371, 369, 371, 368, 369, 370, 367, 366, 371, 368],
      "WindowCenter": [305.0, 306.0, 306.0, 305.0, 306.0, 305.0, 306.0, 306.0, 305.0, 306.0, 305.0, 305.0, 305.0, 305.0, 306.0, 305.0, 305.0, 306.0, 305.0, 305.0, 304.0, 305.0, 306.0, 305.0, 305.0, 304.0, 305.0, 305.0, 305.0, 306.0, 305.0, 305.0, 305.0, 305.0, 305.0, 305.0, 305.0, 305.0, 306.0, 305.0, 306.0, 305.0, 305.0, 305.0, 305.0, 305.0, 305.0, 305.0, 305.0, 305.0, 305.0, 305.0, 305.0, 305.0, 305.0, 305.0, 305.0, 305.0, 305.0, 305.0, 305.0, 305.0, 305.0, 305.0, 305.0, 305.0, 304.0, 305.0, 306.0, 306.0, 305.0, 306.0, 306.0, 306.0, 305.0, 305.0, 305.0, 305.0, 305.0, 305.0, 305.0, 305.0, 305.0, 305.0, 305.0, 305.0, 305.0, 305.0, 305.0, 305.0, 306.0, 305.0, 305.0, 305.0, 305.0, 305.0, 305.0, 305.0, 305.0, 305.0, 305.0, 305.0, 305.0, 305.0, 305.0, 305.0, 305.0, 305.0, 305.0, 305.0, 305.0, 305.0, 305.0, 304.0, 305.0, 305.0, 304.0, 305.0, 304.0, 305.0, 305.0, 305.0, 305.0, 305.0, 305.0, 304.0, 304.0, 305.0, 305.0, 305.0, 305.0, 304.0, 305.0, 305.0, 304.0, 304.0, 304.0, 305.0, 305.0, 304.0, 305.0, 305.0, 305.0, 304.0, 305.0, 304.0, 305.0, 304.0, 305.0, 305.0, 305.0, 305.0, 305.0, 305.0, 305.0, 304.0, 305.0, 305.0, 305.0, 305.0, 305.0, 305.0, 304.0, 305.0, 305.0, 305.0, 304.0, 305.0, 305.0, 305.0, 305.0, 304.0, 305.0, 305.0, 305.0, 305.0, 305.0, 305.0, 305.0, 305.0, 305.0, 304.0, 304.0, 304.0, 305.0, 305.0, 305.0, 305.0, 305.0, 304.0, 305.0, 304.0, 305.0, 305.0, 304.0, 305.0, 304.0, 304.0, 305.0, 305.0],
      "WindowWidth": [659.0, 660.0, 661.0, 660.0, 661.0, 659.0, 660.0, 660.0, 659.0, 660.0, 659.0, 660.0, 660.0, 660.0, 661.0, 659.0, 660.0, 660.0, 659.0, 659.0, 658.0, 659.0, 660.0, 660.0, 659.0, 659.0, 660.0, 660.0, 659.0, 660.0, 660.0, 659.0, 660.0, 660.0, 659.0, 659.0, 660.0, 660.0, 660.0, 659.0, 660.0, 659.0, 660.0, 659.0, 659.0, 659.0, 659.0, 659.0, 659.0, 659.0, 659.0, 659.0, 659.0, 660.0, 659.0, 660.0, 659.0, 659.0, 659.0, 659.0, 659.0, 659.0, 659.0, 659.0, 660.0, 659.0, 658.0, 659.0, 660.0, 661.0, 659.0, 661.0, 660.0, 661.0, 660.0, 659.0, 660.0, 660.0, 659.0, 660.0, 659.0, 659.0, 659.0, 659.0, 660.0, 658.0, 660.0, 659.0, 658.0, 659.0, 660.0, 658.0, 659.0, 659.0, 659.0, 659.0, 658.0, 659.0, 659.0, 659.0, 659.0, 659.0, 659.0, 659.0, 659.0, 658.0, 659.0, 659.0, 659.0, 658.0, 659.0, 659.0, 659.0, 658.0, 659.0, 659.0, 658.0, 659.0, 658.0, 659.0, 659.0, 659.0, 659.0, 658.0, 659.0, 658.0, 658.0, 659.0, 659.0, 659.0, 659.0, 658.0, 659.0, 658.0, 658.0, 658.0, 658.0, 658.0, 659.0, 658.0, 659.0, 659.0, 659.0, 658.0, 659.0, 658.0, 658.0, 658.0, 658.0, 659.0, 658.0, 658.0, 659.0, 659.0, 659.0, 658.0, 659.0, 659.0, 659.0, 658.0, 658.0, 658.0, 658.0, 659.0, 659.0, 659.0, 658.0, 658.0, 659.0, 659.0, 659.0, 658.0, 659.0, 658.0, 658.0, 659.0, 658.0, 658.0, 659.0, 659.0, 658.0, 658.0, 658.0, 658.0, 658.0, 659.0, 659.0, 658.0, 659.0, 658.0, 659.0, 658.0, 659.0, 658.0, 658.0, 659.0, 658.0, 658.0, 659.0, 658.0]
    },
    "slices": {}
  }
}