{
  "AcquisitionMatrixPE": 80,
  "AcquisitionNumber": 1,
  "AcquisitionTime": "09:19:5.120000",
  "BandwidthPerPixelPhaseEncode": 46.296,
  "BaseResolution": 80,
  "BodyPartExamined": "BRAIN",
  "CoilCombinationMethod": "Sum of Squares",
  "ConsistencyInfo": "N4_VE11E_LATEST_20181129",
  "ConversionSoftware": "dcm2niix",
  "ConversionSoftwareVersion": "v1.0.20220720",
  "DerivedVendorReportedEchoSpacing": 0.000540003,
  "DeviceSerialNumber": "66112",
  "DwellTime": 2.7e-06,
  "EchoTime": 0.035,
  "EchoTrainLength": 39,
  "EffectiveEchoSpacing": 0.000270002,
  "FlipAngle": 90,
  "HeudiconvVersion": "0.13.1",
  "ImageOrientationPatientDICOM": [0.999971, 0.00672721, 0.00363329, -0.00750483, 0.954429, 0.298343],
  "ImageOrientationText": "Tra>Cor(17.4)>Sag(0.1)",
  "ImageType": [
    "ORIGINAL",
    "PRIMARY",
    "M",
    "ND",
    "NORM",
    "MOSAIC"
],
  "ImagingFrequency": 123.252,
  "InPlanePhaseEncodingDirectionDICOM": "COL",
  "InstitutionAddress": "Maynard 3,Hanover,NH,US,03755",
  "InstitutionName": "Dartmouth College - PBS",
  "InstitutionalDepartmentName": "Department",
  "MRAcquisitionType": "2D",
  "MagneticFieldStrength": 3,
  "Manufacturer": "Siemens",
  "ManufacturersModelName": "Prisma",
  "Modality": "MR",
  "MultibandAccelerationFactor": 4,
  "NonlinearGradientCorrection": false,
  "ParallelReductionFactorInPlane": 2,
  "PartialFourier": 1,
  "PatientPosition": "HFS",
  "PercentPhaseFOV": 100,
  "PercentSampling": 100,
  "PhaseEncodingDirection": "j-",
  "PhaseEncodingSteps": 79,
  "PhaseResolution": 1,
  "PixelBandwidth": 2315,
  "ProcedureStepDescription": "dbic^QA",
  "ProtocolName": "func-bold_task-rest_acq-p2-s4-3.5mm",
  "PulseSequenceDetails": "%SiemensSeq%\\ep2d_bold",
  "ReceiveCoilActiveElements": "HEA;HEP",
  "ReceiveCoilName": "Head_32",
  "ReconMatrixPE": 80,
  "RefLinesPE": 24,
  "RepetitionTime": 2,
  "SAR": 0.0177073,
  "ScanOptions": "FS",
  "ScanningSequence": "EP",
  "SequenceName": "*epfid2d1_80",
  "SequenceVariant": "SK",
  "SeriesDescription": "func-bold_task-rest_acq-p2-s4-3.5mm",
  "SeriesNumber": 7,
  "ShimSetting": [4144, -7709, -7521, 285, -58, -118, 56, 81],
  "SliceThickness": 3.5,
  "SliceTiming": [1.485, 0, 0.99, 0.2475, 1.2375, 0.7425, 1.7325, 0.495, 1.485, 0, 0.99, 0.2475, 1.2375, 0.7425, 1.7325, 0.495, 1.485, 0, 0.99, 0.2475, 1.2375, 0.7425, 1.7325, 0.495, 1.485, 0, 0.99, 0.2475, 1.2375, 0.7425, 1.7325, 0.495],
  "SoftwareVersions": "syngo MR E11",
  "SpacingBetweenSlices": 3.99,
  "StationName": "AWP66112",
  "TaskName": "rest",
  "TotalReadoutTime": 0.0213301,
  "TxRefAmp": 224.643,
  "dcmmeta_affine": [
    [-2.9999122619628906, -0.022514505311846733, 0.005828198976814747, 121.47323608398438],
    [-0.02018163911998272, 2.8632876873016357, 1.1904628276824951, -121.30831909179688],
    [0.01089987251907587, -0.8950292468070984, 3.808262586593628, -24.402803421020508],
    [0.0, 0.0, 0.0, 1.0]
],
  "dcmmeta_reorient_transform": [
    [0.0, -1.0, 0.0, 79.0],
    [1.0, 0.0, 0.0, 0.0],
    [0.0, 0.0, 1.0, 0.0],
    [0.0, 0.0, 0.0, 1.0]
],
  "dcmmeta_shape": [80, 80, 32, 200],
  "dcmmeta_slice_dim": 2,
  "dcmmeta_version": 0.6,
  "global": {
    "const": {
      "AccessionNumber": "qa",
      "AcquisitionMatrix": [80, 0, 0, 80],
      "AngioFlag": "N",
      "BitsAllocated": 16,
      "BitsStored": 12,
      "BodyPartExamined": "BRAIN",
      "Columns": 480,
      "EchoNumbers": 1,
      "EchoTime": 35.0,
      "EchoTrainLength": 39,
      "FlipAngle": 90.0,
      "HighBit": 11,
      "ImageOrientationPatient": [0.99997077147561, 0.00672721278262, 0.00363329088337, -0.0075048348033, 0.9544291949623, 0.29834307308564],
      "ImagePositionPatient": [-715.17414893984, -681.58524781554, -276.29592975056],
      "ImageType": [
        "ORIGINAL",
        "PRIMARY",
        "M",
        "ND",
        "NORM",
        "MOSAIC"
],
      "ImagedNucleus": "1H",
      "ImagingFrequency": 123.252356,
      "InPlanePhaseEncodingDirection": "COL",
      "MRAcquisitionType": "2D",
      "MagneticFieldStrength": 3.0,
      "Manufacturer": "SIEMENS",
      "ManufacturerModelName": "Prisma",
      "Modality": "MR",
      "NumberOfAverages": 1.0,
      "NumberOfPhaseEncodingSteps": 79,
      "PercentPhaseFieldOfView": 100.0,
      "PercentSampling": 100.0,
      "PerformedProcedureStepStartTime": "090824.917000",
      "PhotometricInterpretation": "MONOCHROME2",
      "PixelBandwidth": 2315.0,
      "PixelRepresentation": 0,
      "PixelSpacing": [3.0, 3.0],
      "ProtocolName": "func-bold_task-rest_acq-p2-s4-3.5mm",
      "RepetitionTime": 2000.0,
      "Rows": 480,
      "SAR": 0.0177073446655,
      "SamplesPerPixel": 1,
      "ScanOptions": "FS",
      "ScanningSequence": "EP",
      "SequenceName": "*epfid2d1_80",
      "SequenceVariant": "SK",
      "SeriesDescription": "func-bold_task-rest_acq-p2-s4-3.5mm",
      "SeriesNumber": 7,
      "SeriesTime": "091948.447000",
      "SliceLocation": -59.307608505647,
      "SliceThickness": 3.5,
      "SmallestImagePixelValue": 0,
      "SoftwareVersions": "syngo MR E11",
      "SpacingBetweenSlices": 3.9899999930514,
      "SpecificCharacterSet": "ISO_IR 100",
      "StudyID": "9",
      "StudyTime": "090824.884000",
      "TransmitCoilName": "Body",
      "VariableFlipAngleFlag": "N",
      "WindowCenterWidthExplanation": "Algo1"
    },
    "slices": {}
  },
  "time": {
    "samples": {
      "AcquisitionNumber": [1, 2, 3, 4, 5, 6, 7, 8, 9, 10, 11, 12, 13, 14, 15, 16, 17, 18, 19, 20, 21, 22, 23, 24, 25, 26, 27, 28, 29, 30, 31, 32, 33, 34, 35, 36, 37, 38, 39, 40, 41, 42, 43, 44, 45, 46, 47, 48, 49, 50, 51, 52, 53, 54, 55, 56, 57, 58, 59, 60, 61, 62, 63, 64, 65, 66, 67, 68, 69, 70, 71, 72, 73, 74, 75, 76, 77, 78, 79, 80, 81, 82, 83, 84, 85, 86, 87, 88, 89, 90, 91, 92, 93, 94, 95, 96, 97, 98, 99, 100, 101, 102, 103, 104, 105, 106, 107, 108, 109, 110, 111, 112, 113, 114, 115, 116, 117, 118, 119, 120, 121, 122, 123, 124, 125, 126, 127, 128, 129, 130, 131, 132, 133, 134, 135, 136, 137, 138, 139, 140, 141, 142, 143, 144, 145, 146, 147, 148, 149, 150, 151, 152, 153, 154, 155, 156, 157, 158, 159, 160, 161, 162, 163, 164, 165, 166, 167, 168, 169, 170, 171, 172, 173, 174, 175, 176, 177, 178, 179, 180, 181, 182, 183, 184, 185, 186, 187, 188, 189, 190, 191, 192, 193, 194, 195, 196, 197, 198, 199, 200],
      "AcquisitionTime": ["091905.120000", "091907.120000", "091909.120000", "091911.120000", "091913.120000", "091915.120000", "091917.120000", "091919.120000", "091921.120000", "091923.120000", "091925.120000", "091927.120000", "091929.120000", "091931.120000", "091933.120000", "091935.120000", "091937.120000", "091939.120000", "091941.120000", "091943.120000", "091945.120000", "091947.120000", "091949.120000", "091951.120000", "091953.120000", "091955.120000", "091957.120000", "091959.120000", "092001.120000", "092003.120000", "092005.120000", "092007.120000", "092009.120000", "092011.120000", "092013.120000", "092015.120000", "092017.120000", "092019.120000", "092021.120000", "092023.120000", "092025.120000", "092027.120000", "092029.120000", "092031.120000", "092033.120000", "092035.120000", "092037.120000", "092039.120000", "092041.120000", "092043.120000", "092045.120000", "092047.120000", "092049.120000", "092051.120000", "092053.120000", "092055.120000", "092057.120000", "092059.120000", "092101.120000", "092103.120000", "092105.120000", "092107.120000", "092109.120000", "092111.120000", "092113.120000", "092115.120000", "092117.120000", "092119.120000", "092121.120000", "092123.120000", "092125.120000", "092127.120000", "092129.120000", "092131.120000", "092133.120000", "092135.120000", "092137.120000", "092139.120000", "092141.120000", "092143.120000", "092145.120000", "092147.120000", "092149.120000", "092151.120000", "092153.120000", "092155.120000", "092157.120000", "092159.120000", "092201.120000", "092203.120000", "092205.120000", "092207.120000", "092209.120000", "092211.120000", "092213.120000", "092215.120000", "092217.120000", "092219.120000", "092221.120000", "092223.120000", "092225.120000", "092227.120000", "092229.120000", "092231.120000", "092233.120000", "092235.120000", "092237.120000", "092239.120000", "092241.120000", "092243.120000", "092245.120000", "092247.120000", "092249.120000", "092251.120000", "092253.120000", "092255.120000", "092257.120000", "092259.120000", "092301.120000", "092303.120000", "092305.120000", "092307.120000", "092309.120000", "092311.120000", "092313.120000", "092315.120000", "092317.120000", "092319.120000", "092321.120000", "092323.120000", "092325.120000", "092327.120000", "092329.120000", "092331.120000", "092333.120000", "092335.120000", "092337.120000", "092339.120000", "092341.120000", "092343.120000", "092345.120000", "092347.120000", "092349.120000", "092351.120000", "092353.120000", "092355.120000", "092357.120000", "092359.120000", "092401.120000", "092403.120000", "092405.120000", "092407.120000", "092409.120000", "092411.120000", "092413.120000", "092415.120000", "092417.120000", "092419.120000", "092421.120000", "092423.120000", "092425.120000", "092427.120000", "092429.120000", "092431.120000", "092433.120000", "092435.120000", "092437.120000", "092439.120000", "092441.120000", "092443.120000", "092445.120000", "092447.120000", "092449.120000", "092451.120000", "092453.120000", "092455.120000", "092457.120000", "092459.120000", "092501.120000", "092503.120000", "092505.120000", "092507.120000", "092509.120000", "092511.120000", "092513.120000", "092515.120000", "092517.120000", "092519.120000", "092521.120000", "092523.120000", "092525.120000", "092527.120000", "092529.120000", "092531.120000", "092533.120000", "092535.120000", "092537.120000", "092539.120000", "092541.120000", "092543.120000"],
      "ContentTime": ["091948.450000", "091948.453000", "091948.455000", "091948.458000", "091948.460000", "091948.463000", "091948.465000", "091948.467000", "091948.470000", "091948.472000", "091948.474000", "091948.476000", "091948.489000", "091948.494000", "091948.496000", "091948.499000", "091948.506000", "091948.508000", "091948.510000", "091948.513000", "091948.515000", "091948.518000", "092028.445000", "092028.448000", "092028.450000", "092028.453000", "092028.455000", "092028.457000", "092028.460000", "092028.462000", "092028.464000", "092028.467000", "092028.469000", "092028.471000", "092028.474000", "092028.476000", "092028.479000", "092028.481000", "092028.483000", "092028.486000", "092028.488000", "092028.500000", "092108.444000", "092108.447000", "092108.449000", "092108.452000", "092108.454000", "092108.457000", "092108.459000", "092108.461000", "092108.464000", "092108.466000", "092108.468000", "092108.471000", "092108.473000", "092108.475000", "092108.478000", "092108.480000", "092108.482000", "092108.485000", "092108.487000", "092108.490000", "092148.444000", "092148.448000", "092148.450000", "092148.452000", "092148.455000", "092148.457000", "092148.459000", "092148.462000", "092148.464000", "092148.467000", "092148.469000", "092148.472000", "092148.474000", "092148.476000", "092148.479000", "092148.481000", "092148.483000", "092148.486000", "092148.488000", "092148.491000", "092228.445000", "092228.448000", "092228.450000", "092228.453000", "092228.455000", "092228.457000", "092228.460000", "092228.462000", "092228.464000", "092228.467000", "092228.469000", "092228.472000", "092228.474000", "092228.476000", "092228.479000", "092228.481000", "092228.483000", "092228.486000", "092228.488000", "092228.490000", "092248.445000", "092248.448000", "092248.451000", "092248.453000", "092248.456000", "092248.458000", "092248.460000", "092248.463000", "092248.465000", "092248.467000", "092328.444000", "092328.447000", "092328.449000", "092328.452000", "092328.454000", "092328.457000", "092328.459000", "092328.462000", "092328.464000", "092328.467000", "092328.469000", "092328.472000", "092328.474000", "092328.476000", "092328.479000", "092328.481000", "092328.483000", "092328.486000", "092328.488000", "092328.491000", "092408.444000", "092408.447000", "092408.449000", "092408.452000", "092408.454000", "092408.456000", "092408.458000", "092408.461000", "092408.463000", "092408.465000", "092408.468000", "092408.470000", "092408.473000", "092408.475000", "092408.477000", "092408.480000", "092408.482000", "092408.484000", "092408.487000", "092408.489000", "092448.445000", "092448.448000", "092448.450000", "092448.453000", "092448.455000", "092448.457000", "092448.460000", "092448.462000", "092448.464000", "092448.467000", "092448.469000", "092448.472000", "092448.474000", "092448.476000", "092448.479000", "092448.481000", "092448.483000", "092448.486000", "092448.488000", "092448.490000", "092528.444000", "092528.447000", "092528.449000", "092528.452000", "092528.454000", "092528.457000", "092528.459000", "092528.462000", "092528.464000", "092528.466000", "092528.469000", "092528.471000", "092528.474000", "092528.476000", "092528.478000", "092528.481000", "092528.483000", "092528.485000", "092528.488000", "092528.495000", "092543.784000", "092543.786000", "092543.789000", "092543.791000", "092543.793000", "092543.796000", "092543.798000", "092543.801000"],
      "InstanceCreationTime": ["091948.450000", "091948.453000", "091948.455000", "091948.458000", "091948.460000", "091948.463000", "091948.465000", "091948.467000", "091948.470000", "091948.472000", "091948.474000", "091948.476000", "091948.489000", "091948.494000", "091948.496000", "091948.499000", "091948.506000", "091948.508000", "091948.510000", "091948.513000", "091948.515000", "091948.518000", "092028.445000", "092028.448000", "092028.450000", "092028.453000", "092028.455000", "092028.457000", "092028.460000", "092028.462000", "092028.464000", "092028.467000", "092028.469000", "092028.471000", "092028.474000", "092028.476000", "092028.479000", "092028.481000", "092028.483000", "092028.486000", "092028.488000", "092028.500000", "092108.444000", "092108.447000", "092108.449000", "092108.452000", "092108.454000", "092108.457000", "092108.459000", "092108.461000", "092108.464000", "092108.466000", "092108.468000", "092108.471000", "092108.473000", "092108.475000", "092108.478000", "092108.480000", "092108.482000", "092108.485000", "092108.487000", "092108.490000", "092148.444000", "092148.448000", "092148.450000", "092148.452000", "092148.455000", "092148.457000", "092148.459000", "092148.462000", "092148.464000", "092148.467000", "092148.469000", "092148.472000", "092148.474000", "092148.476000", "092148.479000", "092148.481000", "092148.483000", "092148.486000", "092148.488000", "092148.491000", "092228.445000", "092228.448000", "092228.450000", "092228.453000", "092228.455000", "092228.457000", "092228.460000", "092228.462000", "092228.464000", "092228.467000", "092228.469000", "092228.472000", "092228.474000", "092228.476000", "092228.479000", "092228.481000", "092228.483000", "092228.486000", "092228.488000", "092228.490000", "092248.445000", "092248.448000", "092248.451000", "092248.453000", "092248.456000", "092248.458000", "092248.460000", "092248.463000", "092248.465000", "092248.467000", "092328.444000", "092328.447000", "092328.449000", "092328.452000", "092328.454000", "092328.457000", "092328.459000", "092328.462000", "092328.464000", "092328.467000", "092328.469000", "092328.472000", "092328.474000", "092328.476000", "092328.479000", "092328.481000", "092328.483000", "092328.486000", "092328.488000", "092328.491000", "092408.444000", "092408.447000", "092408.449000", "092408.452000", "092408.454000", "092408.456000", "092408.458000", "092408.461000", "092408.463000", "092408.465000", "092408.468000", "092408.470000", "092408.473000", "092408.475000", "092408.477000", "092408.480000", "092408.482000", "092408.484000", "092408.487000", "092408.489000", "092448.445000", "092448.448000", "092448.450000", "092448.453000", "092448.455000", "092448.457000", "092448.460000", "092448.462000", "092448.464000", "092448.467000", "092448.469000", "092448.472000", "092448.474000", "092448.476000", "092448.479000", "092448.481000", "092448.483000", "092448.486000", "092448.488000", "092448.490000", "092528.444000", "092528.447000", "092528.449000", "092528.452000", "092528.454000", "092528.457000", "092528.459000", "092528.462000", "092528.464000", "092528.466000", "092528.469000", "092528.471000", "092528.474000", "092528.476000", "092528.478000", "092528.481000", "092528.483000", "092528.485000", "092528.488000", "092528.495000", "092543.784000", "092543.786000", "092543.789000", "092543.791000", "092543.793000", "092543.796000", "092543.798000", "092543.801000"],
      "InstanceNumber": [1, 2, 3, 4, 5, 6, 7, 8, 9, 10, 11, 12, 13, 14, 15, 16, 17, 18, 19, 20, 21, 22, 23, 24, 25, 26, 27, 28, 29, 30, 31, 32, 33, 34, 35, 36, 37, 38, 39, 40, 41, 42, 43, 44, 45, 46, 47, 48, 49, 50, 51, 52, 53, 54, 55, 56, 57, 58, 59, 60, 61, 62, 63, 64, 65, 66, 67, 68, 69, 70, 71, 72, 73, 74, 75, 76, 77, 78, 79, 80, 81, 82, 83, 84, 85, 86, 87, 88, 89, 90, 91, 92, 93, 94, 95, 96, 97, 98, 99, 100, 101, 102, 103, 104, 105, 106, 107, 108, 109, 110, 111, 112, 113, 114, 115, 116, 117, 118, 119, 120, 121, 122, 123, 124, 125, 126, 127, 128, 129, 130, 131, 132, 133, 134, 135, 136, 137, 138, 139, 140, 141, 142, 143, 144, 145, 146, 147, 148, 149, 150, 151, 152, 153, 154, 155, 156, 157, 158, 159, 160, 161, 162, 163, 164, 165, 166, 167, 168, 169, 170, 171, 172, 173, 174, 175, 176, 177, 178, 179, 180, 181, 182, 183, 184, 185, 186, 187, 188, 189, 190, 191, 192, 193, 194, 195, 196, 197, 198, 199, 200],
      "LargestImagePixelValue": [2203, 2208, 2205, 2207, 2202, 2209, 2203, 2207, 2205, 2205, 2202, 2205, 2200, 2206, 2201, 2205, 2203, 2207, 2204, 2208, 2202, 2211, 2204, 2207, 2203, 2210, 2204, 2209, 2202, 2210, 2203, 2202, 2203, 2206, 2204, 2207, 2205, 2205, 2205, 2208, 2199, 2208, 2205, 2204, 2203, 2205, 2203, 2200, 2201, 2203, 2202, 2208, 2203, 2203, 2205, 2204, 2206, 2204, 2205, 2206, 2204, 2206, 2203, 2208, 2205, 2205, 2203, 2209, 2207, 2207, 2206, 2212, 2206, 2207, 2206, 2203, 2204, 2204, 2205, 2212, 2204, 2207, 2206, 2211, 2207, 2206, 2206, 2207, 2208, 2205, 2208, 2205, 2207, 2207, 2206, 2203, 2203, 2204, 2207, 2202, 2208, 2206, 2204, 2204, 2204, 2206, 2202, 2206, 2209, 2207, 2205, 2204, 2204, 2211, 2202, 2207, 2204, 2202, 2205, 2210, 2204, 2207, 2205, 2208, 2202, 2204, 2204, 2204, 2206, 2208, 2203, 2205, 2202, 2208, 2206, 2205, 2205, 2209, 2206, 2206, 2204, 2200, 2203, 2207, 2207, 2206, 2207, 2211, 2208, 2209, 2209, 2210, 2208, 2206, 2205, 2208, 2207, 2206, 2208, 2208, 2210, 2205, 2204, 2207, 2206, 2201, 2206, 2203, 2206, 2202, 2204, 2202, 2204, 2208, 2206, 2207, 2203, 2206, 2202, 2205, 2206, 2204, 2208, 2201, 2206, 2205, 2207, 2205, 2202, 2205, 2207, 2207, 2206, 2207, 2205, 2206, 2207, 2203, 2203, 2208],
      "WindowCenter": [973.0, 974.0, 974.0, 973.0, 974.0, 974.0, 974.0, 973.0, 974.0, 973.0, 974.0, 974.0, 974.0, 975.0, 974.0, 973.0, 974.0, 974.0, 973.0, 974.0, 973.0, 973.0, 975.0, 974.0, 973.0, 974.0, 975.0, 974.0, 974.0, 974.0, 973.0, 974.0, 975.0, 973.0, 974.0, 973.0, 974.0, 973.0, 973.0, 974.0, 974.0, 975.0, 974.0, 975.0, 973.0, 975.0, 973.0, 974.0, 975.0, 974.0, 974.0, 975.0, 973.0, 975.0, 974.0, 973.0, 973.0, 974.0, 974.0, 974.0, 974.0, 974.0, 974.0, 973.0, 974.0, 974.0, 974.0, 974.0, 973.0, 974.0, 975.0, 974.0, 974.0, 974.0, 974.0, 974.0, 975.0, 975.0, 973.0, 973.0, 973.0, 973.0, 974.0, 974.0, 974.0, 973.0, 974.0, 974.0, 973.0, 974.0, 974.0, 974.0, 974.0, 975.0, 974.0, 973.0, 974.0, 974.0, 974.0, 973.0, 974.0, 973.0, 973.0, 973.0, 973.0, 973.0, 974.0, 974.0, 974.0, 973.0, 974.0, 975.0, 973.0, 974.0, 974.0, 974.0, 974.0, 973.0, 974.0, 974.0, 974.0, 974.0, 974.0, 973.0, 974.0, 973.0, 973.0, 973.0, 975.0, 973.0, 973.0, 974.0, 974.0, 974.0, 974.0, 974.0, 974.0, 973.0, 975.0, 973.0, 973.0, 973.0, 974.0, 975.0, 974.0, 974.0, 973.0, 974.0, 974.0, 974.0, 973.0, 974.0, 974.0, 974.0, 974.0, 974.0, 974.0, 974.0, 974.0, 974.0, 974.0, 974.0, 975.0, 974.0, 975.0, 974.0, 975.0, 974.0, 973.0, 973.0, 975.0, 974.0, 974.0, 974.0, 975.0, 975.0, 973.0, 974.0, 974.0, 975.0, 973.0, 974.0, 974.0, 975.0, 975.0, 974.0, 974.0, 973.0, 974.0, 974.0, 975.0, 974.0, 974.0, 973.0, 973.0, 973.0, 974.0, 974.0, 974.0, 974.0],
      "WindowWidth": [2302.0, 2303.0, 2303.0, 2302.0, 2302.0, 2303.0, 2302.0, 2302.0, 2302.0, 2302.0, 2302.0, 2303.0, 2302.0, 2303.0, 2303.0, 2302.0, 2302.0, 2303.0, 2302.0, 2303.0, 2302.0, 2302.0, 2303.0, 2303.0, 2302.0, 2303.0, 2303.0, 2303.0, 2302.0, 2303.0, 2302.0, 2303.0, 2303.0, 2302.0, 2303.0, 2302.0, 2303.0, 2302.0, 2302.0, 2303.0, 2303.0, 2304.0, 2303.0, 2304.0, 2302.0, 2304.0, 2302.0, 2303.0, 2304.0, 2303.0, 2303.0, 2304.0, 2302.0, 2304.0, 2303.0, 2302.0, 2302.0, 2303.0, 2302.0, 2303.0, 2303.0, 2303.0, 2303.0, 2302.0, 2303.0, 2303.0, 2303.0, 2303.0, 2302.0, 2303.0, 2304.0, 2303.0, 2303.0, 2303.0, 2303.0, 2303.0, 2304.0, 2304.0, 2302.0, 2302.0, 2302.0, 2302.0, 2302.0, 2303.0, 2303.0, 2302.0, 2303.0, 2303.0, 2302.0, 2303.0, 2303.0, 2303.0, 2303.0, 2304.0, 2303.0, 2302.0, 2303.0, 2303.0, 2303.0, 2302.0, 2303.0, 2302.0, 2302.0, 2302.0, 2302.0, 2302.0, 2303.0, 2303.0, 2302.0, 2302.0, 2303.0, 2304.0, 2302.0, 2303.0, 2303.0, 2303.0, 2303.0, 2302.0, 2302.0, 2303.0, 2303.0, 2303.0, 2303.0, 2302.0, 2302.0, 2302.0, 2302.0, 2302.0, 2304.0, 2302.0, 2302.0, 2303.0, 2303.0, 2303.0, 2303.0, 2303.0, 2303.0, 2302.0, 2304.0, 2302.0, 2302.0, 2302.0, 2303.0, 2303.0, 2303.0, 2302.0, 2302.0, 2303.0, 2302.0, 2303.0, 2302.0, 2302.0, 2303.0, 2302.0, 2303.0, 2303.0, 2303.0, 2302.0, 2303.0, 2303.0, 2303.0, 2302.0, 2303.0, 2303.0, 2304.0, 2302.0, 2303.0, 2302.0, 2302.0, 2302.0, 2304.0, 2302.0, 2303.0, 2302.0, 2303.0, 2304.0, 2302.0, 2302.0, 2302.0, 2303.0, 2302.0, 2302.0, 2302.0, 2303.0, 2303.0, 2302.0, 2302.0, 2302.0, 2303.0, 2302.0, 2303.0, 2302.0, 2302.0, 2302.0, 2301.0, 2301.0, 2302.0, 2302.0, 2303.0, 2302.0]
    },
    "slices": {}
  }
}