{
  "AcquisitionMatrixPE": 122,
  "AcquisitionNumber": 1,
  "AcquisitionTime": "09:43:41.480000",
  "BandwidthPerPixelPhaseEncode": 27.785,
  "BaseResolution": 122,
  "BodyPartExamined": "BRAIN",
  "CoilCombinationMethod": "Adaptive Combine",
  "ConsistencyInfo": "N4_VE11C_LATEST_20160120",
  "ConversionSoftware": "dcm2niix",
  "ConversionSoftwareVersion": "v1.0.20220720",
  "DerivedVendorReportedEchoSpacing": 0.000590011,
  "DeviceSerialNumber": "66112",
  "DiffusionScheme": "Monopolar",
  "DwellTime": 2e-06,
  "EchoTime": 0.068,
  "EchoTrainLength": 61,
  "EffectiveEchoSpacing": 0.000295005,
  "FlipAngle": 90,
  "HeudiconvVersion": "0.13.1",
  "ImageOrientationPatientDICOM": [0.986508, 0.163459, 0.00910529, -0.158366, 0.93872, 0.306146],
  "ImageOrientationText": "Tra>Cor(17.7)>Sag(-2.4)",
  "ImageType": [
    "ORIGINAL",
    "PRIMARY",
    "DIFFUSION",
    "NONE",
    "ND",
    "NORM"
],
  "ImagingFrequency": 123.252,
  "InPlanePhaseEncodingDirectionDICOM": "COL",
  "InstitutionAddress": "Maynard 3,Hanover,NH,US,03755",
  "InstitutionName": "Dartmouth College - PBS",
  "InstitutionalDepartmentName": "Department",
  "MRAcquisitionType": "2D",
  "MagneticFieldStrength": 3,
  "Manufacturer": "Siemens",
  "ManufacturersModelName": "Prisma",
  "Modality": "MR",
  "MultibandAccelerationFactor": 4,
  "NonlinearGradientCorrection": false,
  "ParallelReductionFactorInPlane": 2,
  "PartialFourier": 1,
  "PatientPosition": "HFS",
  "PercentPhaseFOV": 100,
  "PercentSampling": 100,
  "PhaseEncodingDirection": "j-",
  "PhaseEncodingSteps": 122,
  "PhaseResolution": 1,
  "PixelBandwidth": 2050,
  "ProcedureStepDescription": "dbic^QA",
  "ProtocolName": "dwi_acq-DTI-30-p2-s4",
  "PulseSequenceDetails": "%SiemensSeq%\\ep2d_diff",
  "ReceiveCoilActiveElements": "HEA;HEP",
  "ReceiveCoilName": "Head_32",
  "ReconMatrixPE": 122,
  "RefLinesPE": 38,
  "RepetitionTime": 3.6,
  "SAR": 0.162584,
  "ScanOptions": "FS",
  "ScanningSequence": "EP",
  "SequenceName": "*ep_b0",
  "SequenceVariant": "SK\\SP",
  "SeriesDescription": "dwi_acq-DTI-30-p2-s4",
  "SeriesNumber": 13,
  "ShimSetting": [4149, -7701, -7512, 264, -21, -115, -16, 68],
  "SliceThickness": 2,
  "SliceTiming": [2.58594, 0, 1.78906, 0.20312, 1.99219, 0.39844, 2.1875, 0.60156, 2.39062, 1, 2.78906, 1.19531, 2.98438, 1.39062, 3.1875, 1.59375, 3.38281, 0.79688, 2.58594, 0, 1.78906, 0.20312, 1.99219, 0.39844, 2.1875, 0.60156, 2.39062, 1, 2.78906, 1.19531, 2.98438, 1.39062, 3.1875, 1.59375, 3.38281, 0.79688, 2.58594, 0, 1.78906, 0.20312, 1.99219, 0.39844, 2.1875, 0.60156, 2.39062, 1, 2.78906, 1.19531, 2.98438, 1.39062, 3.1875, 1.59375, 3.38281, 0.79688, 2.58594, 0, 1.78906, 0.20312, 1.99219, 0.39844, 2.1875, 0.60156, 2.39062, 1, 2.78906, 1.19531, 2.98438, 1.39062, 3.1875, 1.59375, 3.38281, 0.79688],
  "SoftwareVersions": "syngo MR E11",
  "SpacingBetweenSlices": 2,
  "SpoilingState": true,
  "StationName": "AWP66112",
  "TotalReadoutTime": 0.0356956,
  "TxRefAmp": 231.899,
  "dcmmeta_affine": [
    [-1.9406718015670776, -0.3115400969982147, -0.08298975229263306, 143.53912353515625],
    [-0.32155826687812805, 1.8466620445251465, 0.6069145202636719, -101.9981460571289],
    [0.01791204884648323, -0.602253794670105, 1.9038848876953125, -35.07200622558594],
    [0.0, 0.0, 0.0, 1.0]
],
  "dcmmeta_reorient_transform": [
    [0.0, -1.0, 0.0, 121.0],
    [1.0, 0.0, 0.0, 0.0],
    [0.0, 0.0, -1.0, 71.0],
    [0.0, 0.0, 0.0, 1.0]
],
  "dcmmeta_shape": [122, 122, 72, 31],
  "dcmmeta_slice_dim": 2,
  "dcmmeta_version": 0.6,
  "global": {
    "const": {
      "AccessionNumber": "qa",
      "AcquisitionMatrix": [122, 0, 0, 122],
      "AngioFlag": "N",
      "BitsAllocated": 16,
      "BitsStored": 12,
      "BodyPartExamined": "BRAIN",
      "Columns": 122,
      "EchoNumbers": 1,
      "EchoTime": 68.0,
      "EchoTrainLength": 61,
      "FlipAngle": 90.0,
      "HighBit": 11,
      "ImageOrientationPatient": [0.98650814444101, 0.16345878568833, 0.00910529147581, -0.158366207505, 0.93871985681671, 0.30614567568152],
      "ImageType": [
        "ORIGINAL",
        "PRIMARY",
        "DIFFUSION",
        "NONE",
        "ND",
        "NORM"
],
      "ImagedNucleus": "1H",
      "ImagingFrequency": 123.252433,
      "InPlanePhaseEncodingDirection": "COL",
      "MRAcquisitionType": "2D",
      "MagneticFieldStrength": 3.0,
      "Manufacturer": "SIEMENS",
      "ManufacturerModelName": "Prisma",
      "Modality": "MR",
      "NumberOfAverages": 1.0,
      "NumberOfPhaseEncodingSteps": 122,
      "PercentPhaseFieldOfView": 100.0,
      "PercentSampling": 100.0,
      "PerformedProcedureStepStartTime": "090537.843000",
      "PhotometricInterpretation": "MONOCHROME2",
      "PixelBandwidth": 2050.0,
      "PixelRepresentation": 0,
      "PixelSpacing": [1.9672131538391, 1.9672131538391],
      "ProtocolName": "dwi_acq-DTI-30-p2-s4",
      "RepetitionTime": 3600.0,
      "Rows": 122,
      "SAR": 0.16258445255115,
      "SamplesPerPixel": 1,
      "ScanOptions": "FS",
      "ScanningSequence": "EP",
      "SequenceVariant": [
        "SK",
        "SP"
],
      "SeriesDescription": "dwi_acq-DTI-30-p2-s4",
      "SeriesNumber": 13,
      "SeriesTime": "094350.250000",
      "SliceThickness": 2.0,
      "SmallestImagePixelValue": 0,
      "SoftwareVersions": "syngo MR E11",
      "SpacingBetweenSlices": 2.0,
      "SpecificCharacterSet": "ISO_IR 100",
      "StudyID": "107",
      "StudyTime": "090537.783000",
      "TransmitCoilName": "Body",
      "VariableFlipAngleFlag": "N",
      "WindowCenterWidthExplanation": "Algo1",
      "dBdt": 0.0},
    "slices": {
      "AcquisitionTime": ["094341.480000", "094338.892500", "094340.682500", "094339.092500", "094340.882500", "094339.290000", "094341.080000", "094339.490000", "094341.280000", "094339.887500", "094341.677500", "094340.087500", "094341.877500", "094340.285000", "094342.075000", "094340.485000", "094342.275000", "094339.690000", "094341.480000", "094338.892500", "094340.682500", "094339.092500", "094340.882500", "094339.290000", "094341.080000", "094339.490000", "094341.280000", "094339.887500", "094341.677500", "094340.087500", "094341.877500", "094340.285000", "094342.075000", "094340.485000", "094342.275000", "094339.690000", "094341.480000", "094338.892500", "094340.682500", "094339.092500", "094340.882500", "094339.290000", "094341.080000", "094339.490000", "094341.280000", "094339.887500", "094341.677500", "094340.087500", "094341.877500", "094340.285000", "094342.075000", "094340.485000", "094342.275000", "094339.690000", "094341.480000", "094338.892500", "094340.682500", "094339.092500", "094340.882500", "094339.290000", "094341.080000", "094339.490000", "094341.280000", "094339.887500", "094341.677500", "094340.087500", "094341.877500", "094340.285000", "094342.075000", "094340.485000", "094342.275000", "094339.690000", "094345.080000", "094342.492500", "094344.282500", "094342.692500", "094344.482500", "094342.890000", "094344.680000", "094343.090000", "094344.880000", "094343.487500", "094345.277500", "094343.687500", "094345.477500", "094343.885000", "094345.675000", "094344.085000", "094345.875000", "094343.290000", "094345.080000", "094342.492500", "094344.282500", "094342.692500", "094344.482500", "094342.890000", "094344.680000", "094343.090000", "094344.880000", "094343.487500", "094345.277500", "094343.687500", "094345.477500", "094343.885000", "094345.675000", "094344.085000", "094345.875000", "094343.290000", "094345.080000", "094342.492500", "094344.282500", "094342.692500", "094344.482500", "094342.890000", "094344.680000", "094343.090000", "094344.880000", "094343.487500", "094345.277500", "094343.687500", "094345.477500", "094343.885000", "094345.675000", "094344.085000", "094345.875000", "094343.290000", "094345.080000", "094342.492500", "094344.282500", "094342.692500", "094344.482500", "094342.890000", "094344.680000", "094343.090000", "094344.880000", "094343.487500", "094345.277500", "094343.687500", "094345.477500", "094343.885000", "094345.675000", "094344.085000", "094345.875000", "094343.290000", "094348.680000", "094346.092500", "094347.882500", "094346.292500", "094348.082500", "094346.490000", "094348.280000", "094346.690000", "094348.480000", "094347.087500", "094348.877500", "094347.287500", "094349.077500", "094347.485000", "094349.275000", "094347.685000", "094349.475000", "094346.890000", "094348.680000", "094346.092500", "094347.882500", "094346.292500", "094348.082500", "094346.490000", "094348.280000", "094346.690000", "094348.480000", "094347.087500", "094348.877500", "094347.287500", "094349.077500", "094347.485000", "094349.275000", "094347.685000", "094349.475000", "094346.890000", "094348.680000", "094346.092500", "094347.882500", "094346.292500", "094348.082500", "094346.490000", "094348.280000", "094346.690000", "094348.480000", "094347.087500", "094348.877500", "094347.287500", "094349.077500", "094347.485000", "094349.275000", "094347.685000", "094349.475000", "094346.890000", "094348.680000", "094346.092500", "094347.882500", "094346.292500", "094348.082500", "094346.490000", "094348.280000", "094346.690000", "094348.480000", "094347.087500", "094348.877500", "094347.287500", "094349.077500", "094347.485000", "094349.275000", "094347.685000", "094349.475000", "094346.890000", "094352.280000", "094349.692500", "094351.482500", "094349.892500", "094351.682500", "094350.090000", "094351.880000", "094350.290000", "094352.080000", "094350.687500", "094352.477500", "094350.887500", "094352.677500", "094351.085000", "094352.875000", "094351.285000", "094353.075000", "094350.490000", "094352.280000", "094349.692500", "094351.482500", "094349.892500", "094351.682500", "094350.090000", "094351.880000", "094350.290000", "094352.080000", "094350.687500", "094352.477500", "094350.887500", "094352.677500", "094351.085000", "094352.875000", "094351.285000", "094353.075000", "094350.490000", "094352.280000", "094349.692500", "094351.482500", "094349.892500", "094351.682500", "094350.090000", "094351.880000", "094350.290000", "094352.080000", "094350.687500", "094352.477500", "094350.887500", "094352.677500", "094351.085000", "094352.875000", "094351.285000", "094353.075000", "094350.490000", "094352.280000", "094349.692500", "094351.482500", "094349.892500", "094351.682500", "094350.090000", "094351.880000", "094350.290000", "094352.080000", "094350.687500", "094352.477500", "094350.887500", "094352.677500", "094351.085000", "094352.875000", "094351.285000", "094353.075000", "094350.490000", "094355.880000", "094353.292500", "094355.082500", "094353.492500", "094355.282500", "094353.690000", "094355.480000", "094353.890000", "094355.680000", "094354.287500", "094356.077500", "094354.487500", "094356.277500", "094354.685000", "094356.475000", "094354.885000", "094356.675000", "094354.090000", "094355.880000", "094353.292500", "094355.082500", "094353.492500", "094355.282500", "094353.690000", "094355.480000", "094353.890000", "094355.680000", "094354.287500", "094356.077500", "094354.487500", "094356.277500", "094354.685000", "094356.475000", "094354.885000", "094356.675000", "094354.090000", "094355.880000", "094353.292500", "094355.082500", "094353.492500", "094355.282500", "094353.690000", "094355.480000", "094353.890000", "094355.680000", "094354.287500", "094356.077500", "094354.487500", "094356.277500", "094354.685000", "094356.475000", "094354.885000", "094356.675000", "094354.090000", "094355.880000", "094353.292500", "094355.082500", "094353.492500", "094355.282500", "094353.690000", "094355.480000", "094353.890000", "094355.680000", "094354.287500", "094356.077500", "094354.487500", "094356.277500", "094354.685000", "094356.475000", "094354.885000", "094356.675000", "094354.090000", "094359.480000", "094356.892500", "094358.682500", "094357.092500", "094358.882500", "094357.290000", "094359.080000", "094357.490000", "094359.280000", "094357.887500", "094359.677500", "094358.087500", "094359.877500", "094358.285000", "094400.075000", "094358.485000", "094400.275000", "094357.690000", "094359.480000", "094356.892500", "094358.682500", "094357.092500", "094358.882500", "094357.290000", "094359.080000", "094357.490000", "094359.280000", "094357.887500", "094359.677500", "094358.087500", "094359.877500", "094358.285000", "094400.075000", "094358.485000", "094400.275000", "094357.690000", "094359.480000", "094356.892500", "094358.682500", "094357.092500", "094358.882500", "094357.290000", "094359.080000", "094357.490000", "094359.280000", "094357.887500", "094359.677500", "094358.087500", "094359.877500", "094358.285000", "094400.075000", "094358.485000", "094400.275000", "094357.690000", "094359.480000", "094356.892500", "094358.682500", "094357.092500", "094358.882500", "094357.290000", "094359.080000", "094357.490000", "094359.280000", "094357.887500", "094359.677500", "094358.087500", "094359.877500", "094358.285000", "094400.075000", "094358.485000", "094400.275000", "094357.690000", "094403.080000", "094400.492500", "094402.282500", "094400.692500", "094402.482500", "094400.890000", "094402.680000", "094401.090000", "094402.880000", "094401.487500", "094403.277500", "094401.687500", "094403.477500", "094401.885000", "094403.675000", "094402.085000", "094403.875000", "094401.290000", "094403.080000", "094400.492500", "094402.282500", "094400.692500", "094402.482500", "094400.890000", "094402.680000", "094401.090000", "094402.880000", "094401.487500", "094403.277500", "094401.687500", "094403.477500", "094401.885000", "094403.675000", "094402.085000", "094403.875000", "094401.290000", "094403.080000", "094400.492500", "094402.282500", "094400.692500", "094402.482500", "094400.890000", "094402.680000", "094401.090000", "094402.880000", "094401.487500", "094403.277500", "094401.687500", "094403.477500", "094401.885000", "094403.675000", "094402.085000", "094403.875000", "094401.290000", "094403.080000", "094400.492500", "094402.282500", "094400.692500", "094402.482500", "094400.890000", "094402.680000", "094401.090000", "094402.880000", "094401.487500", "094403.277500", "094401.687500", "094403.477500", "094401.885000", "094403.675000", "094402.085000", "094403.875000", "094401.290000", "094406.680000", "094404.092500", "094405.882500", "094404.292500", "094406.082500", "094404.490000", "094406.280000", "094404.690000", "094406.480000", "094405.087500", "094406.877500", "094405.287500", "094407.077500", "094405.485000", "094407.275000", "094405.685000", "094407.475000", "094404.890000", "094406.680000", "094404.092500", "094405.882500", "094404.292500", "094406.082500", "094404.490000", "094406.280000", "094404.690000", "094406.480000", "094405.087500", "094406.877500", "094405.287500", "094407.077500", "094405.485000", "094407.275000", "094405.685000", "094407.475000", "094404.890000", "094406.680000", "094404.092500", "094405.882500", "094404.292500", "094406.082500", "094404.490000", "094406.280000", "094404.690000", "094406.480000", "094405.087500", "094406.877500", "094405.287500", "094407.077500", "094405.485000", "094407.275000", "094405.685000", "094407.475000", "094404.890000", "094406.680000", "094404.092500", "094405.882500", "094404.292500", "094406.082500", "094404.490000", "094406.280000", "094404.690000", "094406.480000", "094405.087500", "094406.877500", "094405.287500", "094407.077500", "094405.485000", "094407.275000", "094405.685000", "094407.475000", "094404.890000", "094410.280000", "094407.692500", "094409.482500", "094407.892500", "094409.682500", "094408.090000", "094409.880000", "094408.290000", "094410.080000", "094408.687500", "094410.477500", "094408.887500", "094410.677500", "094409.085000", "094410.875000", "094409.285000", "094411.075000", "094408.490000", "094410.280000", "094407.692500", "094409.482500", "094407.892500", "094409.682500", "094408.090000", "094409.880000", "094408.290000", "094410.080000", "094408.687500", "094410.477500", "094408.887500", "094410.677500", "094409.085000", "094410.875000", "094409.285000", "094411.075000", "094408.490000", "094410.280000", "094407.692500", "094409.482500", "094407.892500", "094409.682500", "094408.090000", "094409.880000", "094408.290000", "094410.080000", "094408.687500", "094410.477500", "094408.887500", "094410.677500", "094409.085000", "094410.875000", "094409.285000", "094411.075000", "094408.490000", "094410.280000", "094407.692500", "094409.482500", "094407.892500", "094409.682500", "094408.090000", "094409.880000", "094408.290000", "094410.080000", "094408.687500", "094410.477500", "094408.887500", "094410.677500", "094409.085000", "094410.875000", "094409.285000", "094411.075000", "094408.490000", "094413.880000", "094411.292500", "094413.082500", "094411.492500", "094413.282500", "094411.690000", "094413.480000", "094411.890000", "094413.680000", "094412.287500", "094414.077500", "094412.487500", "094414.277500", "094412.685000", "094414.475000", "094412.885000", "094414.675000", "094412.090000", "094413.880000", "094411.292500", "094413.082500", "094411.492500", "094413.282500", "094411.690000", "094413.480000", "094411.890000", "094413.680000", "094412.287500", "094414.077500", "094412.487500", "094414.277500", "094412.685000", "094414.475000", "094412.885000", "094414.675000", "094412.090000", "094413.880000", "094411.292500", "094413.082500", "094411.492500", "094413.282500", "094411.690000", "094413.480000", "094411.890000", "094413.680000", "094412.287500", "094414.077500", "094412.487500", "094414.277500", "094412.685000", "094414.475000", "094412.885000", "094414.675000", "094412.090000", "094413.880000", "094411.292500", "094413.082500", "094411.492500", "094413.282500", "094411.690000", "094413.480000", "094411.890000", "094413.680000", "094412.287500", "094414.077500", "094412.487500", "094414.277500", "094412.685000", "094414.475000", "094412.885000", "094414.675000", "094412.090000", "094417.480000", "094414.892500", "094416.682500", "094415.092500", "094416.882500", "094415.290000", "094417.080000", "094415.490000", "094417.280000", "094415.887500", "094417.677500", "094416.087500", "094417.877500", "094416.285000", "094418.075000", "094416.485000", "094418.275000", "094415.690000", "094417.480000", "094414.892500", "094416.682500", "094415.092500", "094416.882500", "094415.290000", "094417.080000", "094415.490000", "094417.280000", "094415.887500", "094417.677500", "094416.087500", "094417.877500", "094416.285000", "094418.075000", "094416.485000", "094418.275000", "094415.690000", "094417.480000", "094414.892500", "094416.682500", "094415.092500", "094416.882500", "094415.290000", "094417.080000", "094415.490000", "094417.280000", "094415.887500", "094417.677500", "094416.087500", "094417.877500", "094416.285000", "094418.075000", "094416.485000", "094418.275000", "094415.690000", "094417.480000", "094414.892500", "094416.682500", "094415.092500", "094416.882500", "094415.290000", "094417.080000", "094415.490000", "094417.280000", "094415.887500", "094417.677500", "094416.087500", "094417.877500", "094416.285000", "094418.075000", "094416.485000", "094418.275000", "094415.690000", "094421.080000", "094418.492500", "094420.282500", "094418.692500", "094420.482500", "094418.890000", "094420.680000", "094419.090000", "094420.880000", "094419.487500", "094421.277500", "094419.687500", "094421.477500", "094419.885000", "094421.675000", "094420.085000", "094421.875000", "094419.290000", "094421.080000", "094418.492500", "094420.282500", "094418.692500", "094420.482500", "094418.890000", "094420.680000", "094419.090000", "094420.880000", "094419.487500", "094421.277500", "094419.687500", "094421.477500", "094419.885000", "094421.675000", "094420.085000", "094421.875000", "094419.290000", "094421.080000", "094418.492500", "094420.282500", "094418.692500", "094420.482500", "094418.890000", "094420.680000", "094419.090000", "094420.880000", "094419.487500", "094421.277500", "094419.687500", "094421.477500", "094419.885000", "094421.675000", "094420.085000", "094421.875000", "094419.290000", "094421.080000", "094418.492500", "094420.282500", "094418.692500", "094420.482500", "094418.890000", "094420.680000", "094419.090000", "094420.880000", "094419.487500", "094421.277500", "094419.687500", "094421.477500", "094419.885000", "094421.675000", "094420.085000", "094421.875000", "094419.290000", "094424.680000", "094422.092500", "094423.882500", "094422.292500", "094424.082500", "094422.490000", "094424.280000", "094422.690000", "094424.480000", "094423.087500", "094424.877500", "094423.287500", "094425.077500", "094423.485000", "094425.275000", "094423.685000", "094425.475000", "094422.890000", "094424.680000", "094422.092500", "094423.882500", "094422.292500", "094424.082500", "094422.490000", "094424.280000", "094422.690000", "094424.480000", "094423.087500", "094424.877500", "094423.287500", "094425.077500", "094423.485000", "094425.275000", "094423.685000", "094425.475000", "094422.890000", "094424.680000", "094422.092500", "094423.882500", "094422.292500", "094424.082500", "094422.490000", "094424.280000", "094422.690000", "094424.480000", "094423.087500", "094424.877500", "094423.287500", "094425.077500", "094423.485000", "094425.275000", "094423.685000", "094425.475000", "094422.890000", "094424.680000", "094422.092500", "094423.882500", "094422.292500", "094424.082500", "094422.490000", "094424.280000", "094422.690000", "094424.480000", "094423.087500", "094424.877500", "094423.287500", "094425.077500", "094423.485000", "094425.275000", "094423.685000", "094425.475000", "094422.890000", "094428.280000", "094425.692500", "094427.482500", "094425.892500", "094427.682500", "094426.090000", "094427.880000", "094426.290000", "094428.080000", "094426.687500", "094428.477500", "094426.887500", "094428.677500", "094427.085000", "094428.875000", "094427.285000", "094429.075000", "094426.490000", "094428.280000", "094425.692500", "094427.482500", "094425.892500", "094427.682500", "094426.090000", "094427.880000", "094426.290000", "094428.080000", "094426.687500", "094428.477500", "094426.887500", "094428.677500", "094427.085000", "094428.875000", "094427.285000", "094429.075000", "094426.490000", "094428.280000", "094425.692500", "094427.482500", "094425.892500", "094427.682500", "094426.090000", "094427.880000", "094426.290000", "094428.080000", "094426.687500", "094428.477500", "094426.887500", "094428.677500", "094427.085000", "094428.875000", "094427.285000", "094429.075000", "094426.490000", "094428.280000", "094425.692500", "094427.482500", "094425.892500", "094427.682500", "094426.090000", "094427.880000", "094426.290000", "094428.080000", "094426.687500", "094428.477500", "094426.887500", "094428.677500", "094427.085000", "094428.875000", "094427.285000", "094429.075000", "094426.490000", "094431.880000", "094429.292500", "094431.082500", "094429.492500", "094431.282500", "094429.690000", "094431.480000", "094429.890000", "094431.680000", "094430.287500", "094432.077500", "094430.487500", "094432.277500", "094430.685000", "094432.475000", "094430.885000", "094432.675000", "094430.090000", "094431.880000", "094429.292500", "094431.082500", "094429.492500", "094431.282500", "094429.690000", "094431.480000", "094429.890000", "094431.680000", "094430.287500", "094432.077500", "094430.487500", "094432.277500", "094430.685000", "094432.475000", "094430.885000", "094432.675000", "094430.090000", "094431.880000", "094429.292500", "094431.082500", "094429.492500", "094431.282500", "094429.690000", "094431.480000", "094429.890000", "094431.680000", "094430.287500", "094432.077500", "094430.487500", "094432.277500", "094430.685000", "094432.475000", "094430.885000", "094432.675000", "094430.090000", "094431.880000", "094429.292500", "094431.082500", "094429.492500", "094431.282500", "094429.690000", "094431.480000", "094429.890000", "094431.680000", "094430.287500", "094432.077500", "094430.487500", "094432.277500", "094430.685000", "094432.475000", "094430.885000", "094432.675000", "094430.090000", "094435.480000", "094432.892500", "094434.682500", "094433.092500", "094434.882500", "094433.290000", "094435.080000", "094433.490000", "094435.280000", "094433.887500", "094435.677500", "094434.087500", "094435.877500", "094434.285000", "094436.075000", "094434.485000", "094436.275000", "094433.690000", "094435.480000", "094432.892500", "094434.682500", "094433.092500", "094434.882500", "094433.290000", "094435.080000", "094433.490000", "094435.280000", "094433.887500", "094435.677500", "094434.087500", "094435.877500", "094434.285000", "094436.075000", "094434.485000", "094436.275000", "094433.690000", "094435.480000", "094432.892500", "094434.682500", "094433.092500", "094434.882500", "094433.290000", "094435.080000", "094433.490000", "094435.280000", "094433.887500", "094435.677500", "094434.087500", "094435.877500", "094434.285000", "094436.075000", "094434.485000", "094436.275000", "094433.690000", "094435.480000", "094432.892500", "094434.682500", "094433.092500", "094434.882500", "094433.290000", "094435.080000", "094433.490000", "094435.280000", "094433.887500", "094435.677500", "094434.087500", "094435.877500", "094434.285000", "094436.075000", "094434.485000", "094436.275000", "094433.690000", "094439.080000", "094436.492500", "094438.282500", "094436.692500", "094438.482500", "094436.890000", "094438.680000", "094437.090000", "094438.880000", "094437.487500", "094439.277500", "094437.687500", "094439.477500", "094437.885000", "094439.675000", "094438.085000", "094439.875000", "094437.290000", "094439.080000", "094436.492500", "094438.282500", "094436.692500", "094438.482500", "094436.890000", "094438.680000", "094437.090000", "094438.880000", "094437.487500", "094439.277500", "094437.687500", "094439.477500", "094437.885000", "094439.675000", "094438.085000", "094439.875000", "094437.290000", "094439.080000", "094436.492500", "094438.282500", "094436.692500", "094438.482500", "094436.890000", "094438.680000", "094437.090000", "094438.880000", "094437.487500", "094439.277500", "094437.687500", "094439.477500", "094437.885000", "094439.675000", "094438.085000", "094439.875000", "094437.290000", "094439.080000", "094436.492500", "094438.282500", "094436.692500", "094438.482500", "094436.890000", "094438.680000", "094437.090000", "094438.880000", "094437.487500", "094439.277500", "094437.687500", "094439.477500", "094437.885000", "094439.675000", "094438.085000", "094439.875000", "094437.290000", "094442.680000", "094440.092500", "094441.882500", "094440.292500", "094442.082500", "094440.490000", "094442.280000", "094440.690000", "094442.480000", "094441.087500", "094442.877500", "094441.287500", "094443.077500", "094441.485000", "094443.275000", "094441.685000", "094443.475000", "094440.890000", "094442.680000", "094440.092500", "094441.882500", "094440.292500", "094442.082500", "094440.490000", "094442.280000", "094440.690000", "094442.480000", "094441.087500", "094442.877500", "094441.287500", "094443.077500", "094441.485000", "094443.275000", "094441.685000", "094443.475000", "094440.890000", "094442.680000", "094440.092500", "094441.882500", "094440.292500", "094442.082500", "094440.490000", "094442.280000", "094440.690000", "094442.480000", "094441.087500", "094442.877500", "094441.287500", "094443.077500", "094441.485000", "094443.275000", "094441.685000", "094443.475000", "094440.890000", "094442.680000", "094440.092500", "094441.882500", "094440.292500", "094442.082500", "094440.490000", "094442.280000", "094440.690000", "094442.480000", "094441.087500", "094442.877500", "094441.287500", "094443.077500", "094441.485000", "094443.275000", "094441.685000", "094443.475000", "094440.890000", "094446.280000", "094443.692500", "094445.482500", "094443.892500", "094445.682500", "094444.090000", "094445.880000", "094444.290000", "094446.080000", "094444.687500", "094446.477500", "094444.887500", "094446.677500", "094445.085000", "094446.875000", "094445.285000", "094447.075000", "094444.490000", "094446.280000", "094443.692500", "094445.482500", "094443.892500", "094445.682500", "094444.090000", "094445.880000", "094444.290000", "094446.080000", "094444.687500", "094446.477500", "094444.887500", "094446.677500", "094445.085000", "094446.875000", "094445.285000", "094447.075000", "094444.490000", "094446.280000", "094443.692500", "094445.482500", "094443.892500", "094445.682500", "094444.090000", "094445.880000", "094444.290000", "094446.080000", "094444.687500", "094446.477500", "094444.887500", "094446.677500", "094445.085000", "094446.875000", "094445.285000", "094447.075000", "094444.490000", "094446.280000", "094443.692500", "094445.482500", "094443.892500", "094445.682500", "094444.090000", "094445.880000", "094444.290000", "094446.080000", "094444.687500", "094446.477500", "094444.887500", "094446.677500", "094445.085000", "094446.875000", "094445.285000", "094447.075000", "094444.490000", "094449.880000", "094447.292500", "094449.082500", "094447.492500", "094449.282500", "094447.690000", "094449.480000", "094447.890000", "094449.680000", "094448.287500", "094450.077500", "094448.487500", "094450.277500", "094448.685000", "094450.475000", "094448.885000", "094450.675000", "094448.090000", "094449.880000", "094447.292500", "094449.082500", "094447.492500", "094449.282500", "094447.690000", "094449.480000", "094447.890000", "094449.680000", "094448.287500", "094450.077500", "094448.487500", "094450.277500", "094448.685000", "094450.475000", "094448.885000", "094450.675000", "094448.090000", "094449.880000", "094447.292500", "094449.082500", "094447.492500", "094449.282500", "094447.690000", "094449.480000", "094447.890000", "094449.680000", "094448.287500", "094450.077500", "094448.487500", "094450.277500", "094448.685000", "094450.475000", "094448.885000", "094450.675000", "094448.090000", "094449.880000", "094447.292500", "094449.082500", "094447.492500", "094449.282500", "094447.690000", "094449.480000", "094447.890000", "094449.680000", "094448.287500", "094450.077500", "094448.487500", "094450.2775