{
  "AcquisitionMatrixPE": 122,
  "AcquisitionNumber": 1,
  "AcquisitionTime": "10:50:21.460000",
  "BandwidthPerPixelPhaseEncode": 27.785,
  "BaseResolution": 122,
  "BodyPartExamined": "BRAIN",
  "CoilCombinationMethod": "Adaptive Combine",
  "ConsistencyInfo": "N4_VE11C_LATEST_20160120",
  "ConversionSoftware": "dcm2niix",
  "ConversionSoftwareVersion": "v1.0.20220720",
  "DerivedVendorReportedEchoSpacing": 0.000590011,
  "DeviceSerialNumber": "66112",
  "DiffusionScheme": "Monopolar",
  "DwellTime": 2e-06,
  "EchoTime": 0.068,
  "EchoTrainLength": 61,
  "EffectiveEchoSpacing": 0.000295005,
  "FlipAngle": 90,
  "HeudiconvVersion": "0.13.1",
  "ImageOrientationPatientDICOM": [0.982255, -0.187538, 0.00226971, 0.178152, 0.936738, 0.301304],
  "ImageOrientationText": "Tra>Cor(17.2)>Sag(3.4)",
  "ImageType": [
    "ORIGINAL",
    "PRIMARY",
    "DIFFUSION",
    "NONE",
    "ND",
    "NORM"
],
  "ImagingFrequency": 123.253,
  "InPlanePhaseEncodingDirectionDICOM": "COL",
  "InstitutionAddress": "Maynard 3,Hanover,NH,US,03755",
  "InstitutionName": "Dartmouth College - PBS",
  "InstitutionalDepartmentName": "Department",
  "MRAcquisitionType": "2D",
  "MagneticFieldStrength": 3,
  "Manufacturer": "Siemens",
  "ManufacturersModelName": "Prisma",
  "Modality": "MR",
  "MultibandAccelerationFactor": 4,
  "NonlinearGradientCorrection": false,
  "ParallelReductionFactorInPlane": 2,
  "PartialFourier": 1,
  "PatientPosition": "HFS",
  "PercentPhaseFOV": 100,
  "PercentSampling": 100,
  "PhaseEncodingDirection": "j-",
  "PhaseEncodingSteps": 122,
  "PhaseResolution": 1,
  "PixelBandwidth": 2050,
  "ProcedureStepDescription": "dbic^QA",
  "ProtocolName": "dwi_acq-DTI-30-p2-s4",
  "PulseSequenceDetails": "%SiemensSeq%\\ep2d_diff",
  "ReceiveCoilActiveElements": "HEA;HEP",
  "ReceiveCoilName": "Head_32",
  "ReconMatrixPE": 122,
  "RefLinesPE": 38,
  "RepetitionTime": 3.6,
  "SAR": 0.159699,
  "ScanOptions": "FS",
  "ScanningSequence": "EP",
  "SequenceName": "*ep_b0",
  "SequenceVariant": "SK\\SP",
  "SeriesDescription": "dwi_acq-DTI-30-p2-s4",
  "SeriesNumber": 9,
  "ShimSetting": [4144, -7683, -7524, 228, -87, -103, -43, 92],
  "SliceThickness": 2,
  "SliceTiming": [2.58594, 0, 1.78906, 0.20312, 1.99219, 0.39844, 2.1875, 0.59375, 2.39062, 0.99219, 2.78125, 1.19531, 2.98438, 1.39062, 3.17969, 1.59375, 3.38281, 0.79688, 2.58594, 0, 1.78906, 0.20312, 1.99219, 0.39844, 2.1875, 0.59375, 2.39062, 0.99219, 2.78125, 1.19531, 2.98438, 1.39062, 3.17969, 1.59375, 3.38281, 0.79688, 2.58594, 0, 1.78906, 0.20312, 1.99219, 0.39844, 2.1875, 0.59375, 2.39062, 0.99219, 2.78125, 1.19531, 2.98438, 1.39062, 3.17969, 1.59375, 3.38281, 0.79688, 2.58594, 0, 1.78906, 0.20312, 1.99219, 0.39844, 2.1875, 0.59375, 2.39062, 0.99219, 2.78125, 1.19531, 2.98438, 1.39062, 3.17969, 1.59375, 3.38281, 0.79688],
  "SoftwareVersions": "syngo MR E11",
  "SpacingBetweenSlices": 2,
  "SpoilingState": true,
  "StationName": "AWP66112",
  "TotalReadoutTime": 0.0356956,
  "TxRefAmp": 229.293,
  "dcmmeta_affine": [
    [-1.9323042631149292, 0.35046258568763733, 0.1172642707824707, 90.71418762207031],
    [0.3689280152320862, 1.8427629470825195, 0.5911045074462891, -147.6097869873047],
    [0.004465009551495314, -0.592729389667511, 1.9070510864257812, -29.550466537475586],
    [0.0, 0.0, 0.0, 1.0]
],
  "dcmmeta_reorient_transform": [
    [0.0, -1.0, 0.0, 121.0],
    [1.0, 0.0, 0.0, 0.0],
    [0.0, 0.0, -1.0, 71.0],
    [0.0, 0.0, 0.0, 1.0]
],
  "dcmmeta_shape": [122, 122, 72, 31],
  "dcmmeta_slice_dim": 2,
  "dcmmeta_version": 0.6,
  "global": {
    "const": {
      "AccessionNumber": "qa",
      "AcquisitionMatrix": [122, 0, 0, 122],
      "AngioFlag": "N",
      "BitsAllocated": 16,
      "BitsStored": 12,
      "BodyPartExamined": "BRAIN",
      "Columns": 122,
      "EchoNumbers": 1,
      "EchoTime": 68.0,
      "EchoTrainLength": 61,
      "FlipAngle": 90.0,
      "HighBit": 11,
      "ImageOrientationPatient": [0.98225464863652, -0.1875384057588, 0.00226971306405, 0.17815181254888, 0.93673783345536, 0.30130410395298],
      "ImageType": [
        "ORIGINAL",
        "PRIMARY",
        "DIFFUSION",
        "NONE",
        "ND",
        "NORM"
],
      "ImagedNucleus": "1H",
      "ImagingFrequency": 123.25259,
      "InPlanePhaseEncodingDirection": "COL",
      "MRAcquisitionType": "2D",
      "MagneticFieldStrength": 3.0,
      "Manufacturer": "SIEMENS",
      "ManufacturerModelName": "Prisma",
      "Modality": "MR",
      "NumberOfAverages": 1.0,
      "NumberOfPhaseEncodingSteps": 122,
      "PercentPhaseFieldOfView": 100.0,
      "PercentSampling": 100.0,
      "PerformedProcedureStepStartTime": "102551.598000",
      "PhotometricInterpretation": "MONOCHROME2",
      "PixelBandwidth": 2050.0,
      "PixelRepresentation": 0,
      "PixelSpacing": [1.9672131538391, 1.9672131538391],
      "ProtocolName": "dwi_acq-DTI-30-p2-s4",
      "RepetitionTime": 3600.0,
      "Rows": 122,
      "SAR": 0.15969947149109,
      "SamplesPerPixel": 1,
      "ScanOptions": "FS",
      "ScanningSequence": "EP",
      "SequenceVariant": [
        "SK",
        "SP"
],
      "SeriesDescription": "dwi_acq-DTI-30-p2-s4",
      "SeriesNumber": 9,
      "SeriesTime": "105030.260000",
      "SliceThickness": 2.0,
      "SmallestImagePixelValue": 0,
      "SoftwareVersions": "syngo MR E11",
      "SpacingBetweenSlices": 2.0,
      "SpecificCharacterSet": "ISO_IR 100",
      "StudyID": "84",
      "StudyTime": "102551.522000",
      "TransmitCoilName": "Body",
      "VariableFlipAngleFlag": "N",
      "WindowCenterWidthExplanation": "Algo1",
      "dBdt": 0.0},
    "slices": {
      "AcquisitionTime": ["105021.460000", "105018.875000", "105020.665000", "105019.075000", "105020.865000", "105019.272500", "105021.062500", "105019.472500", "105021.262500", "105019.870000", "105021.660000", "105020.067500", "105021.857500", "105020.267500", "105022.057500", "105020.467500", "105022.257500", "105019.670000", "105021.460000", "105018.875000", "105020.665000", "105019.075000", "105020.865000", "105019.272500", "105021.062500", "105019.472500", "105021.262500", "105019.870000", "105021.660000", "105020.067500", "105021.857500", "105020.267500", "105022.057500", "105020.467500", "105022.257500", "105019.670000", "105021.460000", "105018.875000", "105020.665000", "105019.075000", "105020.865000", "105019.272500", "105021.062500", "105019.472500", "105021.262500", "105019.870000", "105021.660000", "105020.067500", "105021.857500", "105020.267500", "105022.057500", "105020.467500", "105022.257500", "105019.670000", "105021.460000", "105018.875000", "105020.665000", "105019.075000", "105020.865000", "105019.272500", "105021.062500", "105019.472500", "105021.262500", "105019.870000", "105021.660000", "105020.067500", "105021.857500", "105020.267500", "105022.057500", "105020.467500", "105022.257500", "105019.670000", "105025.060000", "105022.475000", "105024.265000", "105022.675000", "105024.465000", "105022.872500", "105024.662500", "105023.072500", "105024.862500", "105023.470000", "105025.260000", "105023.667500", "105025.457500", "105023.867500", "105025.657500", "105024.067500", "105025.857500", "105023.270000", "105025.060000", "105022.475000", "105024.265000", "105022.675000", "105024.465000", "105022.872500", "105024.662500", "105023.072500", "105024.862500", "105023.470000", "105025.260000", "105023.667500", "105025.457500", "105023.867500", "105025.657500", "105024.067500", "105025.857500", "105023.270000", "105025.060000", "105022.475000", "105024.265000", "105022.675000", "105024.465000", "105022.872500", "105024.662500", "105023.072500", "105024.862500", "105023.470000", "105025.260000", "105023.667500", "105025.457500", "105023.867500", "105025.657500", "105024.067500", "105025.857500", "105023.270000", "105025.060000", "105022.475000", "105024.265000", "105022.675000", "105024.465000", "105022.872500", "105024.662500", "105023.072500", "105024.862500", "105023.470000", "105025.260000", "105023.667500", "105025.457500", "105023.867500", "105025.657500", "105024.067500", "105025.857500", "105023.270000", "105028.660000", "105026.075000", "105027.865000", "105026.275000", "105028.065000", "105026.472500", "105028.262500", "105026.672500", "105028.462500", "105027.070000", "105028.860000", "105027.267500", "105029.057500", "105027.467500", "105029.257500", "105027.667500", "105029.457500", "105026.870000", "105028.660000", "105026.075000", "105027.865000", "105026.275000", "105028.065000", "105026.472500", "105028.262500", "105026.672500", "105028.462500", "105027.070000", "105028.860000", "105027.267500", "105029.057500", "105027.467500", "105029.257500", "105027.667500", "105029.457500", "105026.870000", "105028.660000", "105026.075000", "105027.865000", "105026.275000", "105028.065000", "105026.472500", "105028.262500", "105026.672500", "105028.462500", "105027.070000", "105028.860000", "105027.267500", "105029.057500", "105027.467500", "105029.257500", "105027.667500", "105029.457500", "105026.870000", "105028.660000", "105026.075000", "105027.865000", "105026.275000", "105028.065000", "105026.472500", "105028.262500", "105026.672500", "105028.462500", "105027.070000", "105028.860000", "105027.267500", "105029.057500", "105027.467500", "105029.257500", "105027.667500", "105029.457500", "105026.870000", "105032.260000", "105029.675000", "105031.465000", "105029.875000", "105031.665000", "105030.072500", "105031.862500", "105030.272500", "105032.062500", "105030.670000", "105032.460000", "105030.867500", "105032.657500", "105031.067500", "105032.857500", "105031.267500", "105033.057500", "105030.470000", "105032.260000", "105029.675000", "105031.465000", "105029.875000", "105031.665000", "105030.072500", "105031.862500", "105030.272500", "105032.062500", "105030.670000", "105032.460000", "105030.867500", "105032.657500", "105031.067500", "105032.857500", "105031.267500", "105033.057500", "105030.470000", "105032.260000", "105029.675000", "105031.465000", "105029.875000", "105031.665000", "105030.072500", "105031.862500", "105030.272500", "105032.062500", "105030.670000", "105032.460000", "105030.867500", "105032.657500", "105031.067500", "105032.857500", "105031.267500", "105033.057500", "105030.470000", "105032.260000", "105029.675000", "105031.465000", "105029.875000", "105031.665000", "105030.072500", "105031.862500", "105030.272500", "105032.062500", "105030.670000", "105032.460000", "105030.867500", "105032.657500", "105031.067500", "105032.857500", "105031.267500", "105033.057500", "105030.470000", "105035.860000", "105033.275000", "105035.065000", "105033.475000", "105035.265000", "105033.672500", "105035.462500", "105033.872500", "105035.662500", "105034.270000", "105036.060000", "105034.467500", "105036.257500", "105034.667500", "105036.457500", "105034.867500", "105036.657500", "105034.070000", "105035.860000", "105033.275000", "105035.065000", "105033.475000", "105035.265000", "105033.672500", "105035.462500", "105033.872500", "105035.662500", "105034.270000", "105036.060000", "105034.467500", "105036.257500", "105034.667500", "105036.457500", "105034.867500", "105036.657500", "105034.070000", "105035.860000", "105033.275000", "105035.065000", "105033.475000", "105035.265000", "105033.672500", "105035.462500", "105033.872500", "105035.662500", "105034.270000", "105036.060000", "105034.467500", "105036.257500", "105034.667500", "105036.457500", "105034.867500", "105036.657500", "105034.070000", "105035.860000", "105033.275000", "105035.065000", "105033.475000", "105035.265000", "105033.672500", "105035.462500", "105033.872500", "105035.662500", "105034.270000", "105036.060000", "105034.467500", "105036.257500", "105034.667500", "105036.457500", "105034.867500", "105036.657500", "105034.070000", "105039.460000", "105036.875000", "105038.665000", "105037.075000", "105038.865000", "105037.272500", "105039.062500", "105037.472500", "105039.262500", "105037.870000", "105039.660000", "105038.067500", "105039.857500", "105038.267500", "105040.057500", "105038.467500", "105040.257500", "105037.670000", "105039.460000", "105036.875000", "105038.665000", "105037.075000", "105038.865000", "105037.272500", "105039.062500", "105037.472500", "105039.262500", "105037.870000", "105039.660000", "105038.067500", "105039.857500", "105038.267500", "105040.057500", "105038.467500", "105040.257500", "105037.670000", "105039.460000", "105036.875000", "105038.665000", "105037.075000", "105038.865000", "105037.272500", "105039.062500", "105037.472500", "105039.262500", "105037.870000", "105039.660000", "105038.067500", "105039.857500", "105038.267500", "105040.057500", "105038.467500", "105040.257500", "105037.670000", "105039.460000", "105036.875000", "105038.665000", "105037.075000", "105038.865000", "105037.272500", "105039.062500", "105037.472500", "105039.262500", "105037.870000", "105039.660000", "105038.067500", "105039.857500", "105038.267500", "105040.057500", "105038.467500", "105040.257500", "105037.670000", "105043.060000", "105040.475000", "105042.265000", "105040.675000", "105042.465000", "105040.872500", "105042.662500", "105041.072500", "105042.862500", "105041.470000", "105043.260000", "105041.667500", "105043.457500", "105041.867500", "105043.657500", "105042.067500", "105043.857500", "105041.270000", "105043.060000", "105040.475000", "105042.265000", "105040.675000", "105042.465000", "105040.872500", "105042.662500", "105041.072500", "105042.862500", "105041.470000", "105043.260000", "105041.667500", "105043.457500", "105041.867500", "105043.657500", "105042.067500", "105043.857500", "105041.270000", "105043.060000", "105040.475000", "105042.265000", "105040.675000", "105042.465000", "105040.872500", "105042.662500", "105041.072500", "105042.862500", "105041.470000", "105043.260000", "105041.667500", "105043.457500", "105041.867500", "105043.657500", "105042.067500", "105043.857500", "105041.270000", "105043.060000", "105040.475000", "105042.265000", "105040.675000", "105042.465000", "105040.872500", "105042.662500", "105041.072500", "105042.862500", "105041.470000", "105043.260000", "105041.667500", "105043.457500", "105041.867500", "105043.657500", "105042.067500", "105043.857500", "105041.270000", "105046.660000", "105044.075000", "105045.865000", "105044.275000", "105046.065000", "105044.472500", "105046.262500", "105044.672500", "105046.462500", "105045.070000", "105046.860000", "105045.267500", "105047.057500", "105045.467500", "105047.257500", "105045.667500", "105047.457500", "105044.870000", "105046.660000", "105044.075000", "105045.865000", "105044.275000", "105046.065000", "105044.472500", "105046.262500", "105044.672500", "105046.462500", "105045.070000", "105046.860000", "105045.267500", "105047.057500", "105045.467500", "105047.257500", "105045.667500", "105047.457500", "105044.870000", "105046.660000", "105044.075000", "105045.865000", "105044.275000", "105046.065000", "105044.472500", "105046.262500", "105044.672500", "105046.462500", "105045.070000", "105046.860000", "105045.267500", "105047.057500", "105045.467500", "105047.257500", "105045.667500", "105047.457500", "105044.870000", "105046.660000", "105044.075000", "105045.865000", "105044.275000", "105046.065000", "105044.472500", "105046.262500", "105044.672500", "105046.462500", "105045.070000", "105046.860000", "105045.267500", "105047.057500", "105045.467500", "105047.257500", "105045.667500", "105047.457500", "105044.870000", "105050.260000", "105047.675000", "105049.465000", "105047.875000", "105049.665000", "105048.072500", "105049.862500", "105048.272500", "105050.062500", "105048.670000", "105050.460000", "105048.867500", "105050.657500", "105049.067500", "105050.857500", "105049.267500", "105051.057500", "105048.470000", "105050.260000", "105047.675000", "105049.465000", "105047.875000", "105049.665000", "105048.072500", "105049.862500", "105048.272500", "105050.062500", "105048.670000", "105050.460000", "105048.867500", "105050.657500", "105049.067500", "105050.857500", "105049.267500", "105051.057500", "105048.470000", "105050.260000", "105047.675000", "105049.465000", "105047.875000", "105049.665000", "105048.072500", "105049.862500", "105048.272500", "105050.062500", "105048.670000", "105050.460000", "105048.867500", "105050.657500", "105049.067500", "105050.857500", "105049.267500", "105051.057500", "105048.470000", "105050.260000", "105047.675000", "105049.465000", "105047.875000", "105049.665000", "105048.072500", "105049.862500", "105048.272500", "105050.062500", "105048.670000", "105050.460000", "105048.867500", "105050.657500", "105049.067500", "105050.857500", "105049.267500", "105051.057500", "105048.470000", "105053.860000", "105051.275000", "105053.065000", "105051.475000", "105053.265000", "105051.672500", "105053.462500", "105051.872500", "105053.662500", "105052.270000", "105054.060000", "105052.467500", "105054.257500", "105052.667500", "105054.457500", "105052.867500", "105054.657500", "105052.070000", "105053.860000", "105051.275000", "105053.065000", "105051.475000", "105053.265000", "105051.672500", "105053.462500", "105051.872500", "105053.662500", "105052.270000", "105054.060000", "105052.467500", "105054.257500", "105052.667500", "105054.457500", "105052.867500", "105054.657500", "105052.070000", "105053.860000", "105051.275000", "105053.065000", "105051.475000", "105053.265000", "105051.672500", "105053.462500", "105051.872500", "105053.662500", "105052.270000", "105054.060000", "105052.467500", "105054.257500", "105052.667500", "105054.457500", "105052.867500", "105054.657500", "105052.070000", "105053.860000", "105051.275000", "105053.065000", "105051.475000", "105053.265000", "105051.672500", "105053.462500", "105051.872500", "105053.662500", "105052.270000", "105054.060000", "105052.467500", "105054.257500", "105052.667500", "105054.457500", "105052.867500", "105054.657500", "105052.070000", "105057.460000", "105054.875000", "105056.665000", "105055.075000", "105056.865000", "105055.272500", "105057.062500", "105055.472500", "105057.262500", "105055.870000", "105057.660000", "105056.067500", "105057.857500", "105056.267500", "105058.057500", "105056.467500", "105058.257500", "105055.670000", "105057.460000", "105054.875000", "105056.665000", "105055.075000", "105056.865000", "105055.272500", "105057.062500", "105055.472500", "105057.262500", "105055.870000", "105057.660000", "105056.067500", "105057.857500", "105056.267500", "105058.057500", "105056.467500", "105058.257500", "105055.670000", "105057.460000", "105054.875000", "105056.665000", "105055.075000", "105056.865000", "105055.272500", "105057.062500", "105055.472500", "105057.262500", "105055.870000", "105057.660000", "105056.067500", "105057.857500", "105056.267500", "105058.057500", "105056.467500", "105058.257500", "105055.670000", "105057.460000", "105054.875000", "105056.665000", "105055.075000", "105056.865000", "105055.272500", "105057.062500", "105055.472500", "105057.262500", "105055.870000", "105057.660000", "105056.067500", "105057.857500", "105056.267500", "105058.057500", "105056.467500", "105058.257500", "105055.670000", "105101.060000", "105058.475000", "105100.265000", "105058.675000", "105100.465000", "105058.872500", "105100.662500", "105059.072500", "105100.862500", "105059.470000", "105101.260000", "105059.667500", "105101.457500", "105059.867500", "105101.657500", "105100.067500", "105101.857500", "105059.270000", "105101.060000", "105058.475000", "105100.265000", "105058.675000", "105100.465000", "105058.872500", "105100.662500", "105059.072500", "105100.862500", "105059.470000", "105101.260000", "105059.667500", "105101.457500", "105059.867500", "105101.657500", "105100.067500", "105101.857500", "105059.270000", "105101.060000", "105058.475000", "105100.265000", "105058.675000", "105100.465000", "105058.872500", "105100.662500", "105059.072500", "105100.862500", "105059.470000", "105101.260000", "105059.667500", "105101.457500", "105059.867500", "105101.657500", "105100.067500", "105101.857500", "105059.270000", "105101.060000", "105058.475000", "105100.265000", "105058.675000", "105100.465000", "105058.872500", "105100.662500", "105059.072500", "105100.862500", "105059.470000", "105101.260000", "105059.667500", "105101.457500", "105059.867500", "105101.657500", "105100.067500", "105101.857500", "105059.270000", "105104.660000", "105102.075000", "105103.865000", "105102.275000", "105104.065000", "105102.472500", "105104.262500", "105102.672500", "105104.462500", "105103.070000", "105104.860000", "105103.267500", "105105.057500", "105103.467500", "105105.257500", "105103.667500", "105105.457500", "105102.870000", "105104.660000", "105102.075000", "105103.865000", "105102.275000", "105104.065000", "105102.472500", "105104.262500", "105102.672500", "105104.462500", "105103.070000", "105104.860000", "105103.267500", "105105.057500", "105103.467500", "105105.257500", "105103.667500", "105105.457500", "105102.870000", "105104.660000", "105102.075000", "105103.865000", "105102.275000", "105104.065000", "105102.472500", "105104.262500", "105102.672500", "105104.462500", "105103.070000", "105104.860000", "105103.267500", "105105.057500", "105103.467500", "105105.257500", "105103.667500", "105105.457500", "105102.870000", "105104.660000", "105102.075000", "105103.865000", "105102.275000", "105104.065000", "105102.472500", "105104.262500", "105102.672500", "105104.462500", "105103.070000", "105104.860000", "105103.267500", "105105.057500", "105103.467500", "105105.257500", "105103.667500", "105105.457500", "105102.870000", "105108.260000", "105105.675000", "105107.465000", "105105.875000", "105107.665000", "105106.072500", "105107.862500", "105106.272500", "105108.062500", "105106.670000", "105108.460000", "105106.867500", "105108.657500", "105107.067500", "105108.857500", "105107.267500", "105109.057500", "105106.470000", "105108.260000", "105105.675000", "105107.465000", "105105.875000", "105107.665000", "105106.072500", "105107.862500", "105106.272500", "105108.062500", "105106.670000", "105108.460000", "105106.867500", "105108.657500", "105107.067500", "105108.857500", "105107.267500", "105109.057500", "105106.470000", "105108.260000", "105105.675000", "105107.465000", "105105.875000", "105107.665000", "105106.072500", "105107.862500", "105106.272500", "105108.062500", "105106.670000", "105108.460000", "105106.867500", "105108.657500", "105107.067500", "105108.857500", "105107.267500", "105109.057500", "105106.470000", "105108.260000", "105105.675000", "105107.465000", "105105.875000", "105107.665000", "105106.072500", "105107.862500", "105106.272500", "105108.062500", "105106.670000", "105108.460000", "105106.867500", "105108.657500", "105107.067500", "105108.857500", "105107.267500", "105109.057500", "105106.470000", "105111.860000", "105109.275000", "105111.065000", "105109.475000", "105111.265000", "105109.672500", "105111.462500", "105109.872500", "105111.662500", "105110.270000", "105112.060000", "105110.467500", "105112.257500", "105110.667500", "105112.457500", "105110.867500", "105112.657500", "105110.070000", "105111.860000", "105109.275000", "105111.065000", "105109.475000", "105111.265000", "105109.672500", "105111.462500", "105109.872500", "105111.662500", "105110.270000", "105112.060000", "105110.467500", "105112.257500", "105110.667500", "105112.457500", "105110.867500", "105112.657500", "105110.070000", "105111.860000", "105109.275000", "105111.065000", "105109.475000", "105111.265000", "105109.672500", "105111.462500", "105109.872500", "105111.662500", "105110.270000", "105112.060000", "105110.467500", "105112.257500", "105110.667500", "105112.457500", "105110.867500", "105112.657500", "105110.070000", "105111.860000", "105109.275000", "105111.065000", "105109.475000", "105111.265000", "105109.672500", "105111.462500", "105109.872500", "105111.662500", "105110.270000", "105112.060000", "105110.467500", "105112.257500", "105110.667500", "105112.457500", "105110.867500", "105112.657500", "105110.070000", "105115.460000", "105112.875000", "105114.665000", "105113.075000", "105114.865000", "105113.272500", "105115.062500", "105113.472500", "105115.262500", "105113.870000", "105115.660000", "105114.067500", "105115.857500", "105114.267500", "105116.057500", "105114.467500", "105116.257500", "105113.670000", "105115.460000", "105112.875000", "105114.665000", "105113.075000", "105114.865000", "105113.272500", "105115.062500", "105113.472500", "105115.262500", "105113.870000", "105115.660000", "105114.067500", "105115.857500", "105114.267500", "105116.057500", "105114.467500", "105116.257500", "105113.670000", "105115.460000", "105112.875000", "105114.665000", "105113.075000", "105114.865000", "105113.272500", "105115.062500", "105113.472500", "105115.262500", "105113.870000", "105115.660000", "105114.067500", "105115.857500", "105114.267500", "105116.057500", "105114.467500", "105116.257500", "105113.670000", "105115.460000", "105112.875000", "105114.665000", "105113.075000", "105114.865000", "105113.272500", "105115.062500", "105113.472500", "105115.262500", "105113.870000", "105115.660000", "105114.067500", "105115.857500", "105114.267500", "105116.057500", "105114.467500", "105116.257500", "105113.670000", "105119.060000", "105116.475000", "105118.265000", "105116.675000", "105118.465000", "105116.872500", "105118.662500", "105117.072500", "105118.862500", "105117.470000", "105119.260000", "105117.667500", "105119.457500", "105117.867500", "105119.657500", "105118.067500", "105119.857500", "105117.270000", "105119.060000", "105116.475000", "105118.265000", "105116.675000", "105118.465000", "105116.872500", "105118.662500", "105117.072500", "105118.862500", "105117.470000", "105119.260000", "105117.667500", "105119.457500", "105117.867500", "105119.657500", "105118.067500", "105119.857500", "105117.270000", "105119.060000", "105116.475000", "105118.265000", "105116.675000", "105118.465000", "105116.872500", "105118.662500", "105117.072500", "105118.862500", "105117.470000", "105119.260000", "105117.667500", "105119.457500", "105117.867500", "105119.657500", "105118.067500", "105119.857500", "105117.270000", "105119.060000", "105116.475000", "105118.265000", "105116.675000", "105118.465000", "105116.872500", "105118.662500", "105117.072500", "105118.862500", "105117.470000", "105119.260000", "105117.667500", "105119.457500", "105117.867500", "105119.657500", "105118.067500", "105119.857500", "105117.270000", "105122.660000", "105120.075000", "105121.865000", "105120.275000", "105122.065000", "105120.472500", "105122.262500", "105120.672500", "105122.462500", "105121.070000", "105122.860000", "105121.267500", "105123.057500", "105121.467500", "105123.257500", "105121.667500", "105123.457500", "105120.870000", "105122.660000", "105120.075000", "105121.865000", "105120.275000", "105122.065000", "105120.472500", "105122.262500", "105120.672500", "105122.462500", "105121.070000", "105122.860000", "105121.267500", "105123.057500", "105121.467500", "105123.257500", "105121.667500", "105123.457500", "105120.870000", "105122.660000", "105120.075000", "105121.865000", "105120.275000", "105122.065000", "105120.472500", "105122.262500", "105120.672500", "105122.462500", "105121.070000", "105122.860000", "105121.267500", "105123.057500", "105121.467500", "105123.257500", "105121.667500", "105123.457500", "105120.870000", "105122.660000", "105120.075000", "105121.865000", "105120.275000", "105122.065000", "105120.472500", "105122.262500", "105120.672500", "105122.462500", "105121.070000", "105122.860000", "105121.267500", "105123.057500", "105121.467500", "105123.257500", "105121.667500", "105123.457500", "105120.870000", "105126.260000", "105123.675000", "105125.465000", "105123.875000", "105125.665000", "105124.072500", "105125.862500", "105124.272500", "105126.062500", "105124.670000", "105126.460000", "105124.867500", "105126.657500", "105125.067500", "105126.857500", "105125.267500", "105127.057500", "105124.470000", "105126.260000", "105123.675000", "105125.465000", "105123.875000", "105125.665000", "105124.072500", "105125.862500", "105124.272500", "105126.062500", "105124.670000", "105126.460000", "105124.867500", "105126.657500", "105125.067500", "105126.857500", "105125.267500", "105127.057500", "105124.470000", "105126.260000", "105123.675000", "105125.465000", "105123.875000", "105125.665000", "105124.072500", "105125.862500", "105124.272500", "105126.062500", "105124.670000", "105126.460000", "105124.867500", "105126.657500", "105125.067500", "105126.857500", "105125.267500", "105127.057500", "105124.470000", "105126.260000", "105123.675000", "105125.465000", "105123.875000", "105125.665000", "105124.072500", "105125.862500", "105124.272500", "105126.062500", "105124.670000", "105126.460000", "105124.867500", "105126.657500", "105125.067500", "105126.857500", "105125.267500", "105127.057500", "105124.470000", "105129.860000", "105127.275000", "105129.065000", "105127.475000", "105129.265000", "105127.672500", "105129.462500", "105127.872500", "105129.662500", "105128.270000", "105130.060000", "105128.467500", "105130.257500", "105128.667500", "105130.457500", "105128.867500", "105130.657500", "105128.070000", "105129.860000", "105127.275000", "105129.065000", "105127.475000", "105129.265000", "105127.672500", "105129.462500", "105127.872500", "105129.662500", "105128.270000", "105130.060000", "105128.467500", "105130.257500", "105128.667500", "105130.457500", "105128.867500", "105130.657500", "105128.070000", "105129.860000", "105127.275000", "105129.065000", "105127.475000", "105129.265000", "105127.672500", "105129.462500", "105127.872500", "105129.662500", "105128.270000", "105130.060000", "105128.467500", "105130.257500", "105128.667500", "105130.457500", "105128.867500", "105130.657500", "105128.070000", "105129.860000", "105127.275000", "105129.065000", "105127.475000", "105129.265000", "105127.672500", "105129.462500", "105127.872500", "105129.662500", "105128.270000", "105130.060000", "105128