{
  "AcquisitionMatrixPE": 122,
  "AcquisitionNumber": 1,
  "AcquisitionTime": "10:45:59.182500",
  "BandwidthPerPixelPhaseEncode": 28.76,
  "BaseResolution": 122,
  "BodyPartExamined": "BRAIN",
  "CoilCombinationMethod": "Adaptive Combine",
  "ConsistencyInfo": "N4_VE11C_LATEST_20160120",
  "ConversionSoftware": "dcm2niix",
  "ConversionSoftwareVersion": "v1.0.20220720",
  "DerivedVendorReportedEchoSpacing": 0.000570008,
  "DeviceSerialNumber": "66112",
  "DiffusionScheme": "Monopolar",
  "DwellTime": 2e-06,
  "EchoTime": 0.075,
  "EchoTrainLength": 61,
  "EffectiveEchoSpacing": 0.000285004,
  "FlipAngle": 90,
  "HeudiconvVersion": "0.13.1",
  "ImageOrientationPatientDICOM": [0.982255, -0.187538, 0.00226971, 0.178152, 0.936738, 0.301304],
  "ImageOrientationText": "Tra>Cor(17.2)>Sag(3.4)",
  "ImageType": [
    "ORIGINAL",
    "PRIMARY",
    "DIFFUSION",
    "NONE",
    "ND",
    "NORM"
],
  "ImagingFrequency": 123.253,
  "InPlanePhaseEncodingDirectionDICOM": "COL",
  "InstitutionAddress": "Maynard 3,Hanover,NH,US,03755",
  "InstitutionName": "Dartmouth College - PBS",
  "InstitutionalDepartmentName": "Department",
  "MRAcquisitionType": "2D",
  "MagneticFieldStrength": 3,
  "Manufacturer": "Siemens",
  "ManufacturersModelName": "Prisma",
  "MatrixCoilMode": "GRAPPA",
  "Modality": "MR",
  "NonlinearGradientCorrection": false,
  "ParallelReductionFactorInPlane": 2,
  "PartialFourier": 1,
  "PatientPosition": "HFS",
  "PercentPhaseFOV": 100,
  "PercentSampling": 100,
  "PhaseEncodingDirection": "j-",
  "PhaseEncodingSteps": 122,
  "PhaseResolution": 1,
  "PixelBandwidth": 2050,
  "ProcedureStepDescription": "dbic^QA",
  "ProtocolName": "dwi_acq-DTI-30-p2",
  "PulseSequenceDetails": "%SiemensSeq%\\ep2d_diff",
  "ReceiveCoilActiveElements": "HEA;HEP",
  "ReceiveCoilName": "Head_32",
  "ReconMatrixPE": 122,
  "RefLinesPE": 38,
  "RepetitionTime": 7.7,
  "SAR": 0.101509,
  "ScanOptions": "FS",
  "ScanningSequence": "EP",
  "SequenceName": "*ep_b0",
  "SequenceVariant": "SK\\SP",
  "SeriesDescription": "dwi_acq-DTI-30-p2",
  "SeriesNumber": 8,
  "ShimSetting": [4144, -7683, -7524, 226, -89, -100, -43, 93],
  "SliceThickness": 2,
  "SliceTiming": [3.83594, 0, 3.94531, 0.10938, 4.0625, 0.21875, 4.17188, 0.32812, 4.28125, 0.4375, 4.39062, 0.54688, 4.5, 0.65625, 4.60938, 0.76562, 4.71875, 0.875, 4.82812, 0.98438, 4.9375, 1.09375, 5.04688, 1.20312, 5.15625, 1.3125, 5.26562, 1.42969, 5.375, 1.53906, 5.48438, 1.64844, 5.59375, 1.75, 5.70312, 1.86719, 5.8125, 1.97656, 5.92188, 2.08594, 6.03125, 2.19531, 6.14062, 2.30469, 6.25, 2.41406, 6.36719, 2.52344, 6.46875, 2.63281, 6.57812, 2.74219, 6.6875, 2.85156, 6.80469, 2.96094, 6.91406, 3.07031, 7.02344, 3.17969, 7.13281, 3.28906, 7.24219, 3.39844, 7.35156, 3.50781, 7.46094, 3.61719, 7.57031, 3.72656],
  "SoftwareVersions": "syngo MR E11",
  "SpacingBetweenSlices": 2,
  "SpoilingState": true,
  "StationName": "AWP66112",
  "TotalReadoutTime": 0.0344855,
  "TxRefAmp": 229.293,
  "dcmmeta_affine": [
    [-1.9323042631149292, 0.35046258568763733, 0.1172645092010498, 90.83143615722656],
    [0.3689280152320862, 1.8427629470825195, 0.5911064147949219, -147.01881408691406],
    [0.004465009551495314, -0.592729389667511, 1.9070510864257812, -27.643415451049805],
    [0.0, 0.0, 0.0, 1.0]
],
  "dcmmeta_reorient_transform": [
    [0.0, -1.0, 0.0, 121.0],
    [1.0, 0.0, 0.0, 0.0],
    [0.0, 0.0, -1.0, 69.0],
    [0.0, 0.0, 0.0, 1.0]
],
  "dcmmeta_shape": [122, 122, 70, 31],
  "dcmmeta_slice_dim": 2,
  "dcmmeta_version": 0.6,
  "global": {
    "const": {
      "AccessionNumber": "qa",
      "AcquisitionMatrix": [122, 0, 0, 122],
      "AngioFlag": "N",
      "BitsAllocated": 16,
      "BitsStored": 12,
      "BodyPartExamined": "BRAIN",
      "Columns": 122,
      "EchoNumbers": 1,
      "EchoTime": 75.0,
      "EchoTrainLength": 61,
      "FlipAngle": 90.0,
      "HighBit": 11,
      "ImageOrientationPatient": [0.98225464863652, -0.1875384057588, 0.00226971306405, 0.17815181254888, 0.93673783345536, 0.30130410395298],
      "ImageType": [
        "ORIGINAL",
        "PRIMARY",
        "DIFFUSION",
        "NONE",
        "ND",
        "NORM"
],
      "ImagedNucleus": "1H",
      "ImagingFrequency": 123.252587,
      "InPlanePhaseEncodingDirection": "COL",
      "MRAcquisitionType": "2D",
      "MagneticFieldStrength": 3.0,
      "Manufacturer": "SIEMENS",
      "ManufacturerModelName": "Prisma",
      "Modality": "MR",
      "NumberOfAverages": 1.0,
      "NumberOfPhaseEncodingSteps": 122,
      "PercentPhaseFieldOfView": 100.0,
      "PercentSampling": 100.0,
      "PerformedProcedureStepStartTime": "102551.598000",
      "PhotometricInterpretation": "MONOCHROME2",
      "PixelBandwidth": 2050.0,
      "PixelRepresentation": 0,
      "PixelSpacing": [1.9672131538391, 1.9672131538391],
      "ProtocolName": "dwi_acq-DTI-30-p2",
      "RepetitionTime": 7700.0,
      "Rows": 122,
      "SAR": 0.10150898594691,
      "SamplesPerPixel": 1,
      "ScanOptions": "FS",
      "ScanningSequence": "EP",
      "SequenceVariant": [
        "SK",
        "SP"
],
      "SeriesDescription": "dwi_acq-DTI-30-p2",
      "SeriesNumber": 8,
      "SeriesTime": "104612.479000",
      "SliceThickness": 2.0,
      "SmallestImagePixelValue": 0,
      "SoftwareVersions": "syngo MR E11",
      "SpacingBetweenSlices": 2.0,
      "SpecificCharacterSet": "ISO_IR 100",
      "StudyID": "84",
      "StudyTime": "102551.522000",
      "TransmitCoilName": "Body",
      "VariableFlipAngleFlag": "N",
      "WindowCenterWidthExplanation": "Algo1",
      "dBdt": 0.0},
    "slices": {
      "AcquisitionTime": ["104559.182500", "104555.342500", "104559.292500", "104555.452500", "104559.402500", "104555.562500", "104559.512500", "104555.672500", "104559.622500", "104555.782500", "104559.732500", "104555.892500", "104559.842500", "104556.002500", "104559.950000", "104556.110000", "104600.060000", "104556.220000", "104600.170000", "104556.330000", "104600.280000", "104556.440000", "104600.390000", "104556.550000", "104600.500000", "104556.660000", "104600.610000", "104556.770000", "104600.720000", "104556.880000", "104600.827500", "104556.990000", "104600.937500", "104557.097500", "104601.047500", "104557.207500", "104601.157500", "104557.317500", "104601.267500", "104557.427500", "104601.377500", "104557.537500", "104601.487500", "104557.647500", "104601.597500", "104557.757500", "104601.707500", "104557.867500", "104601.815000", "104557.975000", "104601.925000", "104558.085000", "104602.035000", "104558.195000", "104602.145000", "104558.305000", "104602.255000", "104558.415000", "104602.365000", "104558.525000", "104602.475000", "104558.635000", "104602.585000", "104558.745000", "104602.695000", "104558.855000", "104602.802500", "104558.962500", "104602.912500", "104559.072500", "104606.882500", "104603.042500", "104606.992500", "104603.152500", "104607.102500", "104603.262500", "104607.212500", "104603.372500", "104607.322500", "104603.482500", "104607.432500", "104603.592500", "104607.542500", "104603.702500", "104607.650000", "104603.810000", "104607.760000", "104603.920000", "104607.870000", "104604.030000", "104607.980000", "104604.140000", "104608.090000", "104604.250000", "104608.200000", "104604.360000", "104608.310000", "104604.470000", "104608.420000", "104604.580000", "104608.527500", "104604.690000", "104608.637500", "104604.797500", "104608.747500", "104604.907500", "104608.857500", "104605.017500", "104608.967500", "104605.127500", "104609.077500", "104605.237500", "104609.187500", "104605.347500", "104609.297500", "104605.457500", "104609.407500", "104605.567500", "104609.515000", "104605.675000", "104609.625000", "104605.785000", "104609.735000", "104605.895000", "104609.845000", "104606.005000", "104609.955000", "104606.115000", "104610.065000", "104606.225000", "104610.175000", "104606.335000", "104610.285000", "104606.445000", "104610.395000", "104606.555000", "104610.502500", "104606.662500", "104610.612500", "104606.772500", "104614.582500", "104610.742500", "104614.692500", "104610.852500", "104614.802500", "104610.962500", "104614.912500", "104611.072500", "104615.022500", "104611.182500", "104615.132500", "104611.292500", "104615.242500", "104611.402500", "104615.350000", "104611.510000", "104615.460000", "104611.620000", "104615.570000", "104611.730000", "104615.680000", "104611.840000", "104615.790000", "104611.950000", "104615.900000", "104612.060000", "104616.010000", "104612.170000", "104616.120000", "104612.280000", "104616.227500", "104612.390000", "104616.337500", "104612.497500", "104616.447500", "104612.607500", "104616.557500", "104612.717500", "104616.667500", "104612.827500", "104616.777500", "104612.937500", "104616.887500", "104613.047500", "104616.997500", "104613.157500", "104617.107500", "104613.267500", "104617.215000", "104613.375000", "104617.325000", "104613.485000", "104617.435000", "104613.595000", "104617.545000", "104613.705000", "104617.655000", "104613.815000", "104617.765000", "104613.925000", "104617.875000", "104614.035000", "104617.985000", "104614.145000", "104618.095000", "104614.255000", "104618.202500", "104614.362500", "104618.312500", "104614.472500", "104622.282500", "104618.442500", "104622.392500", "104618.552500", "104622.502500", "104618.662500", "104622.612500", "104618.772500", "104622.722500", "104618.882500", "104622.832500", "104618.992500", "104622.942500", "104619.102500", "104623.050000", "104619.210000", "104623.160000", "104619.320000", "104623.270000", "104619.430000", "104623.380000", "104619.540000", "104623.490000", "104619.650000", "104623.600000", "104619.760000", "104623.710000", "104619.870000", "104623.820000", "104619.980000", "104623.927500", "104620.090000", "104624.037500", "104620.197500", "104624.147500", "104620.307500", "104624.257500", "104620.417500", "104624.367500", "104620.527500", "104624.477500", "104620.637500", "104624.587500", "104620.747500", "104624.697500", "104620.857500", "104624.807500", "104620.967500", "104624.915000", "104621.075000", "104625.025000", "104621.185000", "104625.135000", "104621.295000", "104625.245000", "104621.405000", "104625.355000", "104621.515000", "104625.465000", "104621.625000", "104625.575000", "104621.735000", "104625.685000", "104621.845000", "104625.795000", "104621.955000", "104625.902500", "104622.062500", "104626.012500", "104622.172500", "104629.982500", "104626.142500", "104630.092500", "104626.252500", "104630.202500", "104626.362500", "104630.312500", "104626.472500", "104630.422500", "104626.582500", "104630.532500", "104626.692500", "104630.642500", "104626.802500", "104630.750000", "104626.910000", "104630.860000", "104627.020000", "104630.970000", "104627.130000", "104631.080000", "104627.240000", "104631.190000", "104627.350000", "104631.300000", "104627.460000", "104631.410000", "104627.570000", "104631.520000", "104627.680000", "104631.627500", "104627.790000", "104631.737500", "104627.897500", "104631.847500", "104628.007500", "104631.957500", "104628.117500", "104632.067500", "104628.227500", "104632.177500", "104628.337500", "104632.287500", "104628.447500", "104632.397500", "104628.557500", "104632.507500", "104628.667500", "104632.615000", "104628.775000", "104632.725000", "104628.885000", "104632.835000", "104628.995000", "104632.945000", "104629.105000", "104633.055000", "104629.215000", "104633.165000", "104629.325000", "104633.275000", "104629.435000", "104633.385000", "104629.545000", "104633.495000", "104629.655000", "104633.602500", "104629.762500", "104633.712500", "104629.872500", "104637.682500", "104633.842500", "104637.792500", "104633.952500", "104637.902500", "104634.062500", "104638.012500", "104634.172500", "104638.122500", "104634.282500", "104638.232500", "104634.392500", "104638.342500", "104634.502500", "104638.450000", "104634.610000", "104638.560000", "104634.720000", "104638.670000", "104634.830000", "104638.780000", "104634.940000", "104638.890000", "104635.050000", "104639.000000", "104635.160000", "104639.110000", "104635.270000", "104639.220000", "104635.380000", "104639.327500", "104635.490000", "104639.437500", "104635.597500", "104639.547500", "104635.707500", "104639.657500", "104635.817500", "104639.767500", "104635.927500", "104639.877500", "104636.037500", "104639.987500", "104636.147500", "104640.097500", "104636.257500", "104640.207500", "104636.367500", "104640.315000", "104636.475000", "104640.425000", "104636.585000", "104640.535000", "104636.695000", "104640.645000", "104636.805000", "104640.755000", "104636.915000", "104640.865000", "104637.025000", "104640.975000", "104637.135000", "104641.085000", "104637.245000", "104641.195000", "104637.355000", "104641.302500", "104637.462500", "104641.412500", "104637.572500", "104645.382500", "104641.542500", "104645.492500", "104641.652500", "104645.602500", "104641.762500", "104645.712500", "104641.872500", "104645.822500", "104641.982500", "104645.932500", "104642.092500", "104646.042500", "104642.202500", "104646.150000", "104642.310000", "104646.260000", "104642.420000", "104646.370000", "104642.530000", "104646.480000", "104642.640000", "104646.590000", "104642.750000", "104646.700000", "104642.860000", "104646.810000", "104642.970000", "104646.920000", "104643.080000", "104647.027500", "104643.190000", "104647.137500", "104643.297500", "104647.247500", "104643.407500", "104647.357500", "104643.517500", "104647.467500", "104643.627500", "104647.577500", "104643.737500", "104647.687500", "104643.847500", "104647.797500", "104643.957500", "104647.907500", "104644.067500", "104648.015000", "104644.175000", "104648.125000", "104644.285000", "104648.235000", "104644.395000", "104648.345000", "104644.505000", "104648.455000", "104644.615000", "104648.565000", "104644.725000", "104648.675000", "104644.835000", "104648.785000", "104644.945000", "104648.895000", "104645.055000", "104649.002500", "104645.162500", "104649.112500", "104645.272500", "104653.082500", "104649.242500", "104653.192500", "104649.352500", "104653.302500", "104649.462500", "104653.412500", "104649.572500", "104653.522500", "104649.682500", "104653.632500", "104649.792500", "104653.742500", "104649.902500", "104653.850000", "104650.010000", "104653.960000", "104650.120000", "104654.070000", "104650.230000", "104654.180000", "104650.340000", "104654.290000", "104650.450000", "104654.400000", "104650.560000", "104654.510000", "104650.670000", "104654.620000", "104650.780000", "104654.727500", "104650.890000", "104654.837500", "104650.997500", "104654.947500", "104651.107500", "104655.057500", "104651.217500", "104655.167500", "104651.327500", "104655.277500", "104651.437500", "104655.387500", "104651.547500", "104655.497500", "104651.657500", "104655.607500", "104651.767500", "104655.715000", "104651.875000", "104655.825000", "104651.985000", "104655.935000", "104652.095000", "104656.045000", "104652.205000", "104656.155000", "104652.315000", "104656.265000", "104652.425000", "104656.375000", "104652.535000", "104656.485000", "104652.645000", "104656.595000", "104652.755000", "104656.702500", "104652.862500", "104656.812500", "104652.972500", "104700.782500", "104656.942500", "104700.892500", "104657.052500", "104701.002500", "104657.162500", "104701.112500", "104657.272500", "104701.222500", "104657.382500", "104701.332500", "104657.492500", "104701.442500", "104657.602500", "104701.550000", "104657.710000", "104701.660000", "104657.820000", "104701.770000", "104657.930000", "104701.880000", "104658.040000", "104701.990000", "104658.150000", "104702.100000", "104658.260000", "104702.210000", "104658.370000", "104702.320000", "104658.480000", "104702.427500", "104658.590000", "104702.537500", "104658.697500", "104702.647500", "104658.807500", "104702.757500", "104658.917500", "104702.867500", "104659.027500", "104702.977500", "104659.137500", "104703.087500", "104659.247500", "104703.197500", "104659.357500", "104703.307500", "104659.467500", "104703.415000", "104659.575000", "104703.525000", "104659.685000", "104703.635000", "104659.795000", "104703.745000", "104659.905000", "104703.855000", "104700.015000", "104703.965000", "104700.125000", "104704.075000", "104700.235000", "104704.185000", "104700.345000", "104704.295000", "104700.455000", "104704.402500", "104700.562500", "104704.512500", "104700.672500", "104708.482500", "104704.642500", "104708.592500", "104704.752500", "104708.702500", "104704.862500", "104708.812500", "104704.972500", "104708.922500", "104705.082500", "104709.032500", "104705.192500", "104709.142500", "104705.302500", "104709.250000", "104705.410000", "104709.360000", "104705.520000", "104709.470000", "104705.630000", "104709.580000", "104705.740000", "104709.690000", "104705.850000", "104709.800000", "104705.960000", "104709.910000", "104706.070000", "104710.020000", "104706.180000", "104710.127500", "104706.290000", "104710.237500", "104706.397500", "104710.347500", "104706.507500", "104710.457500", "104706.617500", "104710.567500", "104706.727500", "104710.677500", "104706.837500", "104710.787500", "104706.947500", "104710.897500", "104707.057500", "104711.007500", "104707.167500", "104711.115000", "104707.275000", "104711.225000", "104707.385000", "104711.335000", "104707.495000", "104711.445000", "104707.605000", "104711.555000", "104707.715000", "104711.665000", "104707.825000", "104711.775000", "104707.935000", "104711.885000", "104708.045000", "104711.995000", "104708.155000", "104712.102500", "104708.262500", "104712.212500", "104708.372500", "104716.182500", "104712.342500", "104716.292500", "104712.452500", "104716.402500", "104712.562500", "104716.512500", "104712.672500", "104716.622500", "104712.782500", "104716.732500", "104712.892500", "104716.842500", "104713.002500", "104716.950000", "104713.110000", "104717.060000", "104713.220000", "104717.170000", "104713.330000", "104717.280000", "104713.440000", "104717.390000", "104713.550000", "104717.500000", "104713.660000", "104717.610000", "104713.770000", "104717.720000", "104713.880000", "104717.827500", "104713.990000", "104717.937500", "104714.097500", "104718.047500", "104714.207500", "104718.157500", "104714.317500", "104718.267500", "104714.427500", "104718.377500", "104714.537500", "104718.487500", "104714.647500", "104718.597500", "104714.757500", "104718.707500", "104714.867500", "104718.815000", "104714.975000", "104718.925000", "104715.085000", "104719.035000", "104715.195000", "104719.145000", "104715.305000", "104719.255000", "104715.415000", "104719.365000", "104715.525000", "104719.475000", "104715.635000", "104719.585000", "104715.745000", "104719.695000", "104715.855000", "104719.802500", "104715.962500", "104719.912500", "104716.072500", "104723.882500", "104720.042500", "104723.992500", "104720.152500", "104724.102500", "104720.262500", "104724.212500", "104720.372500", "104724.322500", "104720.482500", "104724.432500", "104720.592500", "104724.542500", "104720.702500", "104724.650000", "104720.810000", "104724.760000", "104720.920000", "104724.870000", "104721.030000", "104724.980000", "104721.140000", "104725.090000", "104721.250000", "104725.200000", "104721.360000", "104725.310000", "104721.470000", "104725.420000", "104721.580000", "104725.527500", "104721.690000", "104725.637500", "104721.797500", "104725.747500", "104721.907500", "104725.857500", "104722.017500", "104725.967500", "104722.127500", "104726.077500", "104722.237500", "104726.187500", "104722.347500", "104726.297500", "104722.457500", "104726.407500", "104722.567500", "104726.515000", "104722.675000", "104726.625000", "104722.785000", "104726.735000", "104722.895000", "104726.845000", "104723.005000", "104726.955000", "104723.115000", "104727.065000", "104723.225000", "104727.175000", "104723.335000", "104727.285000", "104723.445000", "104727.395000", "104723.555000", "104727.502500", "104723.662500", "104727.612500", "104723.772500", "104731.582500", "104727.742500", "104731.692500", "104727.852500", "104731.802500", "104727.962500", "104731.912500", "104728.072500", "104732.022500", "104728.182500", "104732.132500", "104728.292500", "104732.242500", "104728.402500", "104732.350000", "104728.510000", "104732.460000", "104728.620000", "104732.570000", "104728.730000", "104732.680000", "104728.840000", "104732.790000", "104728.950000", "104732.900000", "104729.060000", "104733.010000", "104729.170000", "104733.120000", "104729.280000", "104733.227500", "104729.390000", "104733.337500", "104729.497500", "104733.447500", "104729.607500", "104733.557500", "104729.717500", "104733.667500", "104729.827500", "104733.777500", "104729.937500", "104733.887500", "104730.047500", "104733.997500", "104730.157500", "104734.107500", "104730.267500", "104734.215000", "104730.375000", "104734.325000", "104730.485000", "104734.435000", "104730.595000", "104734.545000", "104730.705000", "104734.655000", "104730.815000", "104734.765000", "104730.925000", "104734.875000", "104731.035000", "104734.985000", "104731.145000", "104735.095000", "104731.255000", "104735.202500", "104731.362500", "104735.312500", "104731.472500", "104739.282500", "104735.442500", "104739.392500", "104735.552500", "104739.502500", "104735.662500", "104739.612500", "104735.772500", "104739.722500", "104735.882500", "104739.832500", "104735.992500", "104739.942500", "104736.102500", "104740.050000", "104736.210000", "104740.160000", "104736.320000", "104740.270000", "104736.430000", "104740.380000", "104736.540000", "104740.490000", "104736.650000", "104740.600000", "104736.760000", "104740.710000", "104736.870000", "104740.820000", "104736.980000", "104740.927500", "104737.090000", "104741.037500", "104737.197500", "104741.147500", "104737.307500", "104741.257500", "104737.417500", "104741.367500", "104737.527500", "104741.477500", "104737.637500", "104741.587500", "104737.747500", "104741.697500", "104737.857500", "104741.807500", "104737.967500", "104741.915000", "104738.075000", "104742.025000", "104738.185000", "104742.135000", "104738.295000", "104742.245000", "104738.405000", "104742.355000", "104738.515000", "104742.465000", "104738.625000", "104742.575000", "104738.735000", "104742.685000", "104738.845000", "104742.795000", "104738.955000", "104742.902500", "104739.062500", "104743.012500", "104739.172500", "104746.982500", "104743.142500", "104747.092500", "104743.252500", "104747.202500", "104743.362500", "104747.312500", "104743.472500", "104747.422500", "104743.582500", "104747.532500", "104743.692500", "104747.642500", "104743.802500", "104747.750000", "104743.910000", "104747.860000", "104744.020000", "104747.970000", "104744.130000", "104748.080000", "104744.240000", "104748.190000", "104744.350000", "104748.300000", "104744.460000", "104748.410000", "104744.570000", "104748.520000", "104744.680000", "104748.627500", "104744.790000", "104748.737500", "104744.897500", "104748.847500", "104745.007500", "104748.957500", "104745.117500", "104749.067500", "104745.227500", "104749.177500", "104745.337500", "104749.287500", "104745.447500", "104749.397500", "104745.557500", "104749.507500", "104745.667500", "104749.615000", "104745.775000", "104749.725000", "104745.885000", "104749.835000", "104745.995000", "104749.945000", "104746.105000", "104750.055000", "104746.215000", "104750.165000", "104746.325000", "104750.275000", "104746.435000", "104750.385000", "104746.545000", "104750.495000", "104746.655000", "104750.602500", "104746.762500", "104750.712500", "104746.872500", "104754.682500", "104750.842500", "104754.792500", "104750.952500", "104754.902500", "104751.062500", "104755.012500", "104751.172500", "104755.122500", "104751.282500", "104755.232500", "104751.392500", "104755.342500", "104751.502500", "104755.450000", "104751.610000", "104755.560000", "104751.720000", "104755.670000", "104751.830000", "104755.780000", "104751.940000", "104755.890000", "104752.050000", "104756.000000", "104752.160000", "104756.110000", "104752.270000", "104756.220000", "104752.380000", "104756.327500", "104752.490000", "104756.437500", "104752.597500", "104756.547500", "104752.707500", "104756.657500", "104752.817500", "104756.767500", "104752.927500", "104756.877500", "104753.037500", "104756.987500", "104753.147500", "104757.097500", "104753.257500", "104757.207500", "104753.367500", "104757.315000", "104753.475000", "104757.425000", "104753.585000", "104757.535000", "104753.695000", "104757.645000", "104753.805000", "104757.755000", "104753.915000", "104757.865000", "104754.025000", "104757.975000", "104754.135000", "104758.085000", "104754.245000", "104758.195000", "104754.355000", "104758.302500", "104754.462500", "104758.412500", "104754.572500", "104802.382500", "104758.542500", "104802.492500", "104758.652500", "104802.602500", "104758.762500", "104802.712500", "104758.872500", "104802.822500", "104758.982500", "104802.932500", "104759.092500", "104803.042500", "104759.202500", "104803.150000", "104759.310000", "104803.260000", "104759.420000", "104803.370000", "104759.530000", "104803.480000", "104759.640000", "104803.590000", "104759.750000", "104803.700000", "104759.860000", "104803.810000", "104759.970000", "104803.920000", "104800.080000", "104804.027500", "104800.190000", "104804.137500", "104800.297500", "104804.247500", "104800.407500", "104804.357500", "104800.517500", "104804.467500", "104800.627500", "104804.577500", "104800.737500", "104804.687500", "104800.847500", "104804.797500", "104800.957500", "104804.907500", "104801.067500", "104805.015000", "104801.175000", "104805.125000", "104801.285000", "104805.235000", "104801.395000", "104805.345000", "104801.505000", "104805.455000", "104801.615000", "104805.565000", "104801.725000", "104805.675000", "104801.835000", "104805.785000", "104801.945000", "104805.895000", "104802.055000", "104806.002500", "104802.162500", "104806.112500", "104802.272500", "104810.082500", "104806.242500", "104810.192500", "104806.352500", "104810.302500", "104806.462500", "104810.412500", "104806.572500", "104810.522500", "104806.682500", "104810.632500", "104806.792500", "104810.742500", "104806.902500", "104810.850000", "104807.010000", "104810.960000", "104807.120000", "104811.070000", "104807.230000", "104811.180000", "104807.340000", "104811.290000", "104807.450000", "104811.400000", "104807.560000", "104811.510000", "104807.670000", "104811.620000", "104807.780000", "104811.727500", "104807.890000", "104811.837500", "104807.997500", "104811.947500", "104808.107500", "104812.057500", "104808.217500", "104812.167500", "104808.327500", "104812.277500", "104808.437500", "104812.387500", "104808.547500", "104812.497500", "104808.657500", "104812.607500", "104808.767500", "104812.715000", "104808.875000", "104812.825000", "104808.985000", "104812.935000", "104809.095000", "104813.045000", "104809.205000", "104813.155000", "104809.315000", "104813.265000", "104809.425000", "104813.375000", "104809.535000", "104813.485000", "104809.645000", "104813.595000", "104809.755000", "104813.702500", "104809.862500", "104813.812500", "104809.972500", "104817.782500", "104813.942500", "104817.892500", "104814.052500", "104818.002500", "104814.162500", "104818.112500", "104814.272500", "104818.222500", "104814.382500", "104818.332500", "104814.492500", "104818.442500", "104814.602500", "104818.550000", "104814.710000", "104818.660000", "104814.820000", "104818.770000", "104814.930000", "104818.880000", "104815.040000", "104818.990000", "104815.150000", "104819.100000", "104815.260000", "104819.210000", "104815.370000", "104819.320000", "104815.480000", "104819.427500", "104815.590000", "104819.537500", "104815.697500", "104819.647500", "104815.807500", "104819.757500", "104815.917500", "104819.867500", "104816.027500", "104819.977500", "104816.137500", "104820.087500", "104816.247500", "104820.197500", "104816.357500", "104820.307500", "104816.467500", "104820.415000", "104816.575000", "104820.525000", "104816.685000", "104820.635000", "104816.795000", "104820.745000", "104816.905000", "104820.855000", "104817.015000", "104820.965000", "104817.125000", "104821.075000", "104817.235000", "104821.185000", "104817.345000", "104821.295000", "104817.455000", "104821.402500", "104817.562500", "104821.512500", "104817.672500", "104825.482500", "104821.642500", "104825.592500", "104821.752500", "104825.702500", "104821.862500", "104825.812500", "104821.972500", "104825.922500", "104822.082500", "104826.032500", "104822.192500", "104826.142500", "104822.302500", "104826.250000", "104822.410000", "104826.360000", "104822.520000", "104826.470000", "104822.630000", "104826.580000", "104822.740000", "104826.690000", "104822.850000", "104826.800000", "104822.960000", "104826.910000", "104823.070000", "104827.020000", "104823.180000", "104827.127500", "104823.290000", "104827.237500", "104823.397500", "104827.347500", "104823.507500", "104827.457500", "104823.617500", "104827.567500", "104823.727500", "104827.677500", "104823.837500", "104827.787500", "104823.947500", "104827.897500", "104824.057500", "104828.007500", "104824.167500", "104828.115000", "104824.275000", "104828.225000", "104824.385000", "104828.335000", "104824.495000", "104828.445000", "104824.605000", "104828.555000", "104824.715000", "104828.665000", "104824.825000", "104828.775000", "104824.935000", "104828.885000", "104825.045000", "104828.995000", "104825.155000", "104829.102500", "104825.262500", "104829.212500", "104825.372500", "104833.182500", "104829.342500", "104833.292500", "104829.452500", "104833.402500", "104829.562500", "104833.512500", "104829.672500", "104833.622500", "104829.782500", "104833.732500", "104829.892500", "104833.842500", "104830.002500", "104833.950000", "104830.110000", "104834.060000", "104830.220000", "104834.170000", "104830.330000", "104834.280000", "104830.440000", "104834.390000", "104830.550000", "104834.500000", "104830.660000", "104834.610000", "104830.770000", "104834.720000", "104830.880000", "104834.827500", "104830.990000", "104834.937500", "104831.097500", "104835.047500", "10483