{
  "AcquisitionMatrixPE": 80,
  "AcquisitionNumber": 1,
  "AcquisitionTime": "09:56:42.127500",
  "BandwidthPerPixelPhaseEncode": 44.643,
  "BaseResolution": 80,
  "BodyPartExamined": "BRAIN",
  "CoilCombinationMethod": "Sum of Squares",
  "ConsistencyInfo": "N4_VE11C_LATEST_20160120",
  "ConversionSoftware": "dcm2niix",
  "ConversionSoftwareVersion": "v1.0.20220720",
  "DerivedVendorReportedEchoSpacing": 0.000559998,
  "DeviceSerialNumber": "66112",
  "DwellTime": 2.7e-06,
  "EchoTime": 0.035,
  "EchoTrainLength": 39,
  "EffectiveEchoSpacing": 0.000279999,
  "FlipAngle": 90,
  "HeudiconvVersion": "0.13.1",
  "ImageOrientationPatientDICOM": [0.98215, -0.187892, -0.0088227, 0.179727, 0.923563, 0.338718],
  "ImageOrientationText": "Tra>Cor(19.6)>Sag(3.2)",
  "ImageType": [
    "ORIGINAL",
    "PRIMARY",
    "M",
    "ND",
    "NORM",
    "MOSAIC"
],
  "ImagingFrequency": 123.252,
  "InPlanePhaseEncodingDirectionDICOM": "COL",
  "InstitutionAddress": "Maynard 3,Hanover,NH,US,03755",
  "InstitutionName": "Dartmouth College - PBS",
  "InstitutionalDepartmentName": "Department",
  "MRAcquisitionType": "2D",
  "MagneticFieldStrength": 3,
  "Manufacturer": "Siemens",
  "ManufacturersModelName": "Prisma",
  "Modality": "MR",
  "MultibandAccelerationFactor": 4,
  "NonlinearGradientCorrection": false,
  "ParallelReductionFactorInPlane": 2,
  "PartialFourier": 1,
  "PatientPosition": "HFS",
  "PercentPhaseFOV": 100,
  "PercentSampling": 100,
  "PhaseEncodingDirection": "j-",
  "PhaseEncodingSteps": 79,
  "PhaseResolution": 1,
  "PixelBandwidth": 2315,
  "ProcedureStepDescription": "dbic^QA",
  "ProtocolName": "func-bold_task-rest_acq-p2-s4-3.5mm",
  "PulseSequenceDetails": "%SiemensSeq%\\ep2d_bold",
  "ReceiveCoilActiveElements": "HEA;HEP",
  "ReceiveCoilName": "Head_32",
  "ReconMatrixPE": 80,
  "RefLinesPE": 24,
  "RepetitionTime": 2,
  "SAR": 0.0209284,
  "ScanOptions": "FS",
  "ScanningSequence": "EP",
  "SequenceName": "*epfid2d1_80",
  "SequenceVariant": "SK",
  "SeriesDescription": "func-bold_task-rest_acq-p2-s4-3.5mm",
  "SeriesNumber": 7,
  "ShimSetting": [4151, -7709, -7512, 270, -50, -230, 7, 95],
  "SliceThickness": 3.5,
  "SliceTiming": [1.485, 0, 0.99, 0.2475, 1.2375, 0.7425, 1.7325, 0.495, 1.485, 0, 0.99, 0.2475, 1.2375, 0.7425, 1.7325, 0.495, 1.485, 0, 0.99, 0.2475, 1.2375, 0.7425, 1.7325, 0.495, 1.485, 0, 0.99, 0.2475, 1.2375, 0.7425, 1.7325, 0.495],
  "SoftwareVersions": "syngo MR E11",
  "SpacingBetweenSlices": 3.99,
  "StationName": "AWP66112",
  "TaskName": "rest",
  "TotalReadoutTime": 0.0221199,
  "TxRefAmp": 229.6,
  "dcmmeta_affine": [
    [-2.9464499950408936, 0.539180338382721, 0.2214219570159912, 93.46763610839844],
    [0.563676655292511, 2.77068829536438, 1.3336890935897827, -144.71133422851562],
    [-0.026468101888895035, -1.0161551237106323, 3.7539772987365723, -10.042949676513672],
    [0.0, 0.0, 0.0, 1.0]
],
  "dcmmeta_reorient_transform": [
    [0.0, -1.0, 0.0, 79.0],
    [1.0, 0.0, 0.0, 0.0],
    [0.0, 0.0, 1.0, 0.0],
    [0.0, 0.0, 0.0, 1.0]
],
  "dcmmeta_shape": [80, 80, 32, 200],
  "dcmmeta_slice_dim": 2,
  "dcmmeta_version": 0.6,
  "global": {
    "const": {
      "AccessionNumber": "qa",
      "AcquisitionMatrix": [80, 0, 0, 80],
      "AngioFlag": "N",
      "BitsAllocated": 16,
      "BitsStored": 12,
      "BodyPartExamined": "BRAIN",
      "Columns": 480,
      "EchoNumbers": 1,
      "EchoTime": 35.0,
      "EchoTrainLength": 39,
      "FlipAngle": 90.0,
      "HighBit": 11,
      "ImageOrientationPatient": [0.98215002795634, -0.1878922098818, -0.0088227008946, 0.17972677456503, 0.9235627484537, 0.33871837294884],
      "ImagePositionPatient": [-833.18896022612, -515.57536494307, -288.25660766443],
      "ImageType": [
        "ORIGINAL",
        "PRIMARY",
        "M",
        "ND",
        "NORM",
        "MOSAIC"
],
      "ImagedNucleus": "1H",
      "ImagingFrequency": 123.25245,
      "InPlanePhaseEncodingDirection": "COL",
      "MRAcquisitionType": "2D",
      "MagneticFieldStrength": 3.0,
      "Manufacturer": "SIEMENS",
      "ManufacturerModelName": "Prisma",
      "Modality": "MR",
      "NumberOfAverages": 1.0,
      "NumberOfPhaseEncodingSteps": 79,
      "PercentPhaseFieldOfView": 100.0,
      "PercentSampling": 100.0,
      "PerformedProcedureStepStartTime": "094808.852000",
      "PhotometricInterpretation": "MONOCHROME2",
      "PixelBandwidth": 2315.0,
      "PixelRepresentation": 0,
      "PixelSpacing": [3.0, 3.0],
      "ProtocolName": "func-bold_task-rest_acq-p2-s4-3.5mm",
      "RepetitionTime": 2000.0,
      "Rows": 480,
      "SAR": 0.02092839551924,
      "SamplesPerPixel": 1,
      "ScanOptions": "FS",
      "ScanningSequence": "EP",
      "SequenceName": "*epfid2d1_80",
      "SequenceVariant": "SK",
      "SeriesDescription": "func-bold_task-rest_acq-p2-s4-3.5mm",
      "SeriesNumber": 7,
      "SeriesTime": "095725.175000",
      "SliceLocation": -52.632870066223,
      "SliceThickness": 3.5,
      "SmallestImagePixelValue": 0,
      "SoftwareVersions": "syngo MR E11",
      "SpacingBetweenSlices": 3.9899999709175,
      "SpecificCharacterSet": "ISO_IR 100",
      "StudyID": "7",
      "StudyTime": "094808.715000",
      "TransmitCoilName": "Body",
      "VariableFlipAngleFlag": "N",
      "WindowCenter": 944.0,
      "WindowCenterWidthExplanation": "Algo1",
      "dBdt": 0.0},
    "slices": {}
  },
  "time": {
    "samples": {
      "AcquisitionNumber": [1, 2, 3, 4, 5, 6, 7, 8, 9, 10, 11, 12, 13, 14, 15, 16, 17, 18, 19, 20, 21, 22, 23, 24, 25, 26, 27, 28, 29, 30, 31, 32, 33, 34, 35, 36, 37, 38, 39, 40, 41, 42, 43, 44, 45, 46, 47, 48, 49, 50, 51, 52, 53, 54, 55, 56, 57, 58, 59, 60, 61, 62, 63, 64, 65, 66, 67, 68, 69, 70, 71, 72, 73, 74, 75, 76, 77, 78, 79, 80, 81, 82, 83, 84, 85, 86, 87, 88, 89, 90, 91, 92, 93, 94, 95, 96, 97, 98, 99, 100, 101, 102, 103, 104, 105, 106, 107, 108, 109, 110, 111, 112, 113, 114, 115, 116, 117, 118, 119, 120, 121, 122, 123, 124, 125, 126, 127, 128, 129, 130, 131, 132, 133, 134, 135, 136, 137, 138, 139, 140, 141, 142, 143, 144, 145, 146, 147, 148, 149, 150, 151, 152, 153, 154, 155, 156, 157, 158, 159, 160, 161, 162, 163, 164, 165, 166, 167, 168, 169, 170, 171, 172, 173, 174, 175, 176, 177, 178, 179, 180, 181, 182, 183, 184, 185, 186, 187, 188, 189, 190, 191, 192, 193, 194, 195, 196, 197, 198, 199, 200],
      "AcquisitionTime": ["095642.127500", "095644.127500", "095646.127500", "095648.127500", "095650.127500", "095652.127500", "095654.127500", "095656.127500", "095658.127500", "095700.127500", "095702.127500", "095704.127500", "095706.127500", "095708.127500", "095710.127500", "095712.127500", "095714.127500", "095716.127500", "095718.127500", "095720.127500", "095722.127500", "095724.127500", "095726.127500", "095728.127500", "095730.127500", "095732.127500", "095734.127500", "095736.127500", "095738.127500", "095740.127500", "095742.127500", "095744.127500", "095746.127500", "095748.127500", "095750.127500", "095752.127500", "095754.127500", "095756.127500", "095758.127500", "095800.127500", "095802.127500", "095804.127500", "095806.127500", "095808.127500", "095810.127500", "095812.127500", "095814.127500", "095816.127500", "095818.127500", "095820.127500", "095822.127500", "095824.127500", "095826.127500", "095828.127500", "095830.127500", "095832.127500", "095834.127500", "095836.127500", "095838.127500", "095840.127500", "095842.127500", "095844.127500", "095846.127500", "095848.127500", "095850.127500", "095852.127500", "095854.127500", "095856.127500", "095858.127500", "095900.127500", "095902.127500", "095904.127500", "095906.127500", "095908.127500", "095910.127500", "095912.127500", "095914.127500", "095916.127500", "095918.127500", "095920.127500", "095922.127500", "095924.127500", "095926.127500", "095928.127500", "095930.127500", "095932.127500", "095934.127500", "095936.127500", "095938.127500", "095940.127500", "095942.127500", "095944.127500", "095946.127500", "095948.127500", "095950.127500", "095952.127500", "095954.127500", "095956.127500", "095958.127500", "100000.127500", "100002.127500", "100004.127500", "100006.127500", "100008.127500", "100010.127500", "100012.127500", "100014.127500", "100016.127500", "100018.127500", "100020.127500", "100022.127500", "100024.127500", "100026.127500", "100028.127500", "100030.127500", "100032.127500", "100034.127500", "100036.127500", "100038.127500", "100040.127500", "100042.127500", "100044.127500", "100046.127500", "100048.127500", "100050.127500", "100052.127500", "100054.127500", "100056.127500", "100058.127500", "100100.127500", "100102.127500", "100104.127500", "100106.127500", "100108.127500", "100110.127500", "100112.127500", "100114.127500", "100116.127500", "100118.127500", "100120.127500", "100122.127500", "100124.127500", "100126.127500", "100128.127500", "100130.127500", "100132.127500", "100134.127500", "100136.127500", "100138.127500", "100140.127500", "100142.127500", "100144.127500", "100146.127500", "100148.127500", "100150.127500", "100152.127500", "100154.127500", "100156.127500", "100158.127500", "100200.127500", "100202.127500", "100204.127500", "100206.127500", "100208.127500", "100210.127500", "100212.127500", "100214.127500", "100216.127500", "100218.127500", "100220.127500", "100222.127500", "100224.127500", "100226.127500", "100228.127500", "100230.127500", "100232.127500", "100234.127500", "100236.127500", "100238.127500", "100240.127500", "100242.127500", "100244.127500", "100246.127500", "100248.127500", "100250.127500", "100252.127500", "100254.127500", "100256.127500", "100258.127500", "100300.127500", "100302.127500", "100304.127500", "100306.127500", "100308.127500", "100310.127500", "100312.127500", "100314.127500", "100316.127500", "100318.127500", "100320.127500"],
      "ContentTime": ["095725.178000", "095725.182000", "095725.184000", "095725.187000", "095725.189000", "095725.192000", "095725.194000", "095725.207000", "095725.209000", "095725.212000", "095725.214000", "095725.219000", "095725.221000", "095725.224000", "095725.226000", "095725.229000", "095725.232000", "095725.234000", "095725.237000", "095725.239000", "095725.242000", "095725.244000", "095805.173000", "095805.176000", "095805.179000", "095805.181000", "095805.184000", "095805.186000", "095805.189000", "095805.192000", "095805.194000", "095805.197000", "095805.199000", "095805.202000", "095805.204000", "095805.207000", "095805.209000", "095805.212000", "095805.215000", "095805.217000", "095805.220000", "095805.238000", "095845.173000", "095845.176000", "095845.179000", "095845.181000", "095845.184000", "095845.187000", "095845.193000", "095845.196000", "095845.198000", "095845.201000", "095845.203000", "095845.206000", "095845.208000", "095845.211000", "095845.213000", "095845.216000", "095845.219000", "095845.222000", "095845.224000", "095845.227000", "095925.173000", "095925.176000", "095925.179000", "095925.181000", "095925.184000", "095925.187000", "095925.189000", "095925.192000", "095925.194000", "095925.197000", "095925.199000", "095925.202000", "095925.204000", "095925.207000", "095925.209000", "095925.212000", "095925.214000", "095925.217000", "095925.220000", "095925.222000", "100005.173000", "100005.176000", "100005.179000", "100005.181000", "100005.184000", "100005.186000", "100005.189000", "100005.192000", "100005.194000", "100005.197000", "100005.199000", "100005.202000", "100005.204000", "100005.207000", "100005.209000", "100005.212000", "100005.214000", "100005.217000", "100005.220000", "100005.222000", "100045.173000", "100045.176000", "100045.179000", "100045.184000", "100045.186000", "100045.189000", "100045.191000", "100045.194000", "100045.197000", "100045.199000", "100045.202000", "100045.204000", "100045.207000", "100045.209000", "100045.212000", "100045.215000", "100045.217000", "100045.220000", "100045.222000", "100045.225000", "100125.175000", "100125.177000", "100125.180000", "100125.183000", "100125.185000", "100125.188000", "100125.190000", "100125.193000", "100125.195000", "100125.198000", "100125.200000", "100125.203000", "100125.206000", "100125.208000", "100125.211000", "100125.213000", "100125.216000", "100125.219000", "100125.221000", "100125.224000", "100205.173000", "100205.176000", "100205.179000", "100205.181000", "100205.184000", "100205.186000", "100205.189000", "100205.191000", "100205.194000", "100205.197000", "100205.199000", "100205.202000", "100205.204000", "100205.207000", "100205.209000", "100205.212000", "100205.215000", "100205.217000", "100205.220000", "100205.222000", "100245.174000", "100245.176000", "100245.194000", "100245.196000", "100245.199000", "100245.202000", "100245.204000", "100245.207000", "100245.209000", "100245.212000", "100245.215000", "100245.217000", "100245.220000", "100245.222000", "100245.225000", "100245.227000", "100245.230000", "100245.232000", "100245.235000", "100245.238000", "100321.198000", "100321.201000", "100321.204000", "100321.207000", "100321.210000", "100321.212000", "100321.216000", "100321.218000", "100321.221000", "100321.224000", "100321.226000", "100321.230000", "100321.235000", "100321.238000", "100321.241000", "100321.244000", "100321.247000", "100321.250000"],
      "InstanceCreationTime": ["095725.178000", "095725.182000", "095725.184000", "095725.187000", "095725.189000", "095725.192000", "095725.194000", "095725.207000", "095725.209000", "095725.212000", "095725.214000", "095725.219000", "095725.221000", "095725.224000", "095725.226000", "095725.229000", "095725.232000", "095725.234000", "095725.237000", "095725.239000", "095725.242000", "095725.244000", "095805.173000", "095805.176000", "095805.179000", "095805.181000", "095805.184000", "095805.186000", "095805.189000", "095805.192000", "095805.194000", "095805.197000", "095805.199000", "095805.202000", "095805.204000", "095805.207000", "095805.209000", "095805.212000", "095805.215000", "095805.217000", "095805.220000", "095805.238000", "095845.173000", "095845.176000", "095845.179000", "095845.181000", "095845.184000", "095845.187000", "095845.193000", "095845.196000", "095845.198000", "095845.201000", "095845.203000", "095845.206000", "095845.208000", "095845.211000", "095845.213000", "095845.216000", "095845.219000", "095845.222000", "095845.224000", "095845.227000", "095925.173000", "095925.176000", "095925.179000", "095925.181000", "095925.184000", "095925.187000", "095925.189000", "095925.192000", "095925.194000", "095925.197000", "095925.199000", "095925.202000", "095925.204000", "095925.207000", "095925.209000", "095925.212000", "095925.214000", "095925.217000", "095925.220000", "095925.222000", "100005.173000", "100005.176000", "100005.179000", "100005.181000", "100005.184000", "100005.186000", "100005.189000", "100005.192000", "100005.194000", "100005.197000", "100005.199000", "100005.202000", "100005.204000", "100005.207000", "100005.209000", "100005.212000", "100005.214000", "100005.217000", "100005.220000", "100005.222000", "100045.173000", "100045.176000", "100045.179000", "100045.184000", "100045.186000", "100045.189000", "100045.191000", "100045.194000", "100045.197000", "100045.199000", "100045.202000", "100045.204000", "100045.207000", "100045.209000", "100045.212000", "100045.215000", "100045.217000", "100045.220000", "100045.222000", "100045.225000", "100125.175000", "100125.177000", "100125.180000", "100125.183000", "100125.185000", "100125.188000", "100125.190000", "100125.193000", "100125.195000", "100125.198000", "100125.200000", "100125.203000", "100125.206000", "100125.208000", "100125.211000", "100125.213000", "100125.216000", "100125.219000", "100125.221000", "100125.224000", "100205.173000", "100205.176000", "100205.179000", "100205.181000", "100205.184000", "100205.186000", "100205.189000", "100205.191000", "100205.194000", "100205.197000", "100205.199000", "100205.202000", "100205.204000", "100205.207000", "100205.209000", "100205.212000", "100205.215000", "100205.217000", "100205.220000", "100205.222000", "100245.174000", "100245.176000", "100245.194000", "100245.196000", "100245.199000", "100245.202000", "100245.204000", "100245.207000", "100245.209000", "100245.212000", "100245.215000", "100245.217000", "100245.220000", "100245.222000", "100245.225000", "100245.227000", "100245.230000", "100245.232000", "100245.235000", "100245.238000", "100321.198000", "100321.201000", "100321.204000", "100321.207000", "100321.210000", "100321.212000", "100321.216000", "100321.218000", "100321.221000", "100321.224000", "100321.226000", "100321.230000", "100321.235000", "100321.238000", "100321.241000", "100321.244000", "100321.247000", "100321.250000"],
      "InstanceNumber": [1, 2, 3, 4, 5, 6, 7, 8, 9, 10, 11, 12, 13, 14, 15, 16, 17, 18, 19, 20, 21, 22, 23, 24, 25, 26, 27, 28, 29, 30, 31, 32, 33, 34, 35, 36, 37, 38, 39, 40, 41, 42, 43, 44, 45, 46, 47, 48, 49, 50, 51, 52, 53, 54, 55, 56, 57, 58, 59, 60, 61, 62, 63, 64, 65, 66, 67, 68, 69, 70, 71, 72, 73, 74, 75, 76, 77, 78, 79, 80, 81, 82, 83, 84, 85, 86, 87, 88, 89, 90, 91, 92, 93, 94, 95, 96, 97, 98, 99, 100, 101, 102, 103, 104, 105, 106, 107, 108, 109, 110, 111, 112, 113, 114, 115, 116, 117, 118, 119, 120, 121, 122, 123, 124, 125, 126, 127, 128, 129, 130, 131, 132, 133, 134, 135, 136, 137, 138, 139, 140, 141, 142, 143, 144, 145, 146, 147, 148, 149, 150, 151, 152, 153, 154, 155, 156, 157, 158, 159, 160, 161, 162, 163, 164, 165, 166, 167, 168, 169, 170, 171, 172, 173, 174, 175, 176, 177, 178, 179, 180, 181, 182, 183, 184, 185, 186, 187, 188, 189, 190, 191, 192, 193, 194, 195, 196, 197, 198, 199, 200],
      "LargestImagePixelValue": [2220, 2216, 2211, 2214, 2212, 2214, 2210, 2212, 2217, 2214, 2215, 2214, 2217, 2216, 2216, 2211, 2211, 2213, 2217, 2210, 2222, 2222, 2213, 2221, 2216, 2212, 2206, 2211, 2214, 2218, 2216, 2212, 2222, 2217, 2216, 2214, 2212, 2215, 2214, 2215, 2218, 2221, 2211, 2214, 2211, 2213, 2208, 2212, 2212, 2219, 2213, 2212, 2210, 2206, 2218, 2220, 2214, 2210, 2209, 2211, 2217, 2211, 2211, 2212, 2208, 2218, 2215, 2215, 2220, 2209, 2210, 2215, 2208, 2214, 2208, 2209, 2217, 2213, 2215, 2216, 2218, 2216, 2209, 2216, 2214, 2212, 2210, 2212, 2214, 2214, 2209, 2211, 2210, 2213, 2216, 2218, 2213, 2216, 2221, 2215, 2213, 2208, 2214, 2207, 2216, 2209, 2216, 2217, 2213, 2212, 2216, 2212, 2215, 2213, 2210, 2210, 2204, 2211, 2212, 2207, 2208, 2207, 2207, 2207, 2210, 2210, 2218, 2210, 2214, 2215, 2209, 2207, 2216, 2215, 2219, 2216, 2211, 2221, 2222, 2212, 2212, 2205, 2211, 2212, 2211, 2210, 2208, 2211, 2211, 2215, 2217, 2211, 2214, 2215, 2212, 2212, 2215, 2212, 2210, 2210, 2208, 2221, 2212, 2216, 2209, 2210, 2216, 2212, 2210, 2214, 2210, 2211, 2215, 2210, 2218, 2214, 2210, 2209, 2213, 2217, 2212, 2212, 2212, 2213, 2215, 2216, 2212, 2208, 2211, 2211, 2217, 2211, 2208, 2211, 2208, 2213, 2212, 2210, 2209, 2213],
      "WindowWidth": [2172.0, 2171.0, 2171.0, 2172.0, 2172.0, 2172.0, 2172.0, 2172.0, 2172.0, 2172.0, 2172.0, 2172.0, 2172.0, 2171.0, 2172.0, 2172.0, 2172.0, 2172.0, 2172.0, 2172.0, 2172.0, 2172.0, 2172.0, 2172.0, 2172.0, 2172.0, 2172.0, 2172.0, 2172.0, 2172.0, 2172.0, 2172.0, 2172.0, 2172.0, 2172.0, 2172.0, 2172.0, 2172.0, 2172.0, 2172.0, 2172.0, 2172.0, 2172.0, 2172.0, 2172.0, 2172.0, 2172.0, 2172.0, 2172.0, 2172.0, 2172.0, 2172.0, 2172.0, 2172.0, 2172.0, 2172.0, 2172.0, 2172.0, 2172.0, 2172.0, 2172.0, 2172.0, 2172.0, 2172.0, 2172.0, 2172.0, 2172.0, 2172.0, 2172.0, 2172.0, 2172.0, 2172.0, 2172.0, 2172.0, 2172.0, 2172.0, 2172.0, 2172.0, 2172.0, 2172.0, 2172.0, 2172.0, 2172.0, 2172.0, 2172.0, 2172.0, 2172.0, 2172.0, 2172.0, 2172.0, 2172.0, 2172.0, 2171.0, 2172.0, 2172.0, 2172.0, 2172.0, 2172.0, 2172.0, 2172.0, 2172.0, 2172.0, 2172.0, 2172.0, 2172.0, 2172.0, 2172.0, 2172.0, 2172.0, 2172.0, 2172.0, 2172.0, 2172.0, 2172.0, 2172.0, 2172.0, 2172.0, 2172.0, 2172.0, 2172.0, 2172.0, 2172.0, 2172.0, 2172.0, 2172.0, 2172.0, 2172.0, 2172.0, 2172.0, 2172.0, 2172.0, 2172.0, 2172.0, 2172.0, 2172.0, 2172.0, 2172.0, 2172.0, 2172.0, 2172.0, 2172.0, 2172.0, 2172.0, 2172.0, 2172.0, 2172.0, 2172.0, 2172.0, 2172.0, 2172.0, 2172.0, 2172.0, 2172.0, 2172.0, 2172.0, 2172.0, 2172.0, 2172.0, 2172.0, 2172.0, 2172.0, 2172.0, 2172.0, 2172.0, 2172.0, 2172.0, 2172.0, 2172.0, 2172.0, 2172.0, 2172.0, 2172.0, 2172.0, 2172.0, 2172.0, 2172.0, 2172.0, 2171.0, 2172.0, 2172.0, 2172.0, 2172.0, 2172.0, 2172.0, 2172.0, 2172.0, 2172.0, 2172.0, 2172.0, 2172.0, 2172.0, 2172.0, 2171.0, 2172.0, 2171.0, 2172.0, 2172.0, 2172.0, 2172.0, 2172.0]
    },
    "slices": {}
  }
}