{
  "AcquisitionMatrixPE": 80,
  "AcquisitionNumber": 1,
  "AcquisitionTime": "11:11:40.772500",
  "BandwidthPerPixelPhaseEncode": 48.077,
  "BaseResolution": 80,
  "BodyPartExamined": "BRAIN",
  "CoilCombinationMethod": "Sum of Squares",
  "ConsistencyInfo": "N4_VE11E_LATEST_20181129",
  "ConversionSoftware": "dcm2niix",
  "ConversionSoftwareVersion": "v1.0.20220720",
  "DerivedVendorReportedEchoSpacing": 0.000519999,
  "DeviceSerialNumber": "66112",
  "DwellTime": 2.7e-06,
  "EchoTime": 0.035,
  "EchoTrainLength": 39,
  "EffectiveEchoSpacing": 0.00026,
  "FlipAngle": 90,
  "HeudiconvVersion": "0.13.1",
  "ImageOrientationPatientDICOM": [0.986598, 0.162883, 0.009624, -0.158027, 0.939174, 0.304927],
  "ImageOrientationText": "Tra>Cor(17.6)>Sag(-2.3)",
  "ImageType": [
    "ORIGINAL",
    "PRIMARY",
    "M",
    "ND",
    "NORM",
    "MOSAIC"
],
  "ImagingFrequency": 123.259,
  "InPlanePhaseEncodingDirectionDICOM": "COL",
  "InstitutionAddress": "Maynard 3,Hanover,NH,US,03755",
  "InstitutionName": "Dartmouth College - PBS",
  "InstitutionalDepartmentName": "Department",
  "MRAcquisitionType": "2D",
  "MagneticFieldStrength": 3,
  "Manufacturer": "Siemens",
  "ManufacturersModelName": "Prisma",
  "MatrixCoilMode": "GRAPPA",
  "Modality": "MR",
  "NonlinearGradientCorrection": false,
  "ParallelReductionFactorInPlane": 2,
  "PartialFourier": 1,
  "PatientPosition": "HFS",
  "PercentPhaseFOV": 100,
  "PercentSampling": 100,
  "PhaseEncodingDirection": "j-",
  "PhaseEncodingSteps": 79,
  "PhaseResolution": 1,
  "PixelBandwidth": 2315,
  "ProcedureStepDescription": "dbic^QA",
  "ProtocolName": "func-bold_task-rest_acq-p2",
  "PulseSequenceDetails": "%SiemensSeq%\\ep2d_bold",
  "ReceiveCoilActiveElements": "HEA;HEP",
  "ReceiveCoilName": "Head_32",
  "ReconMatrixPE": 80,
  "RefLinesPE": 24,
  "RepetitionTime": 2,
  "SAR": 0.0551388,
  "ScanOptions": "FS",
  "ScanningSequence": "EP",
  "SequenceName": "*epfid2d1_80",
  "SequenceVariant": "SK",
  "SeriesDescription": "func-bold_task-rest_acq-p2",
  "SeriesNumber": 5,
  "ShimSetting": [4220, -7737, -7494, -49, -142, -148, -28, 61],
  "SliceThickness": 3.5,
  "SliceTiming": [0.99, 0, 1.055, 0.065, 1.1225, 0.1325, 1.1875, 0.1975, 1.255, 0.265, 1.32, 0.33, 1.385, 0.395, 1.4525, 0.4625, 1.5175, 0.5275, 1.585, 0.595, 1.65, 0.66, 1.715, 0.725, 1.7825, 0.7925, 1.8475, 0.8575, 1.915, 0.925],
  "SoftwareVersions": "syngo MR E11",
  "SpacingBetweenSlices": 3.99,
  "StationName": "AWP66112",
  "TaskName": "rest",
  "TotalReadoutTime": 0.02054,
  "TxRefAmp": 227.279,
  "dcmmeta_affine": [
    [-2.9597954750061035, -0.4740823805332184, -0.16210852563381195, 140.75991821289062],
    [-0.4886478781700134, 2.8175203800201416, 1.2064218521118164, -111.91316986083984],
    [0.028871988877654076, -0.9147809743881226, 3.7997851371765137, -28.633817672729492],
    [0.0, 0.0, 0.0, 1.0]
],
  "dcmmeta_reorient_transform": [
    [0.0, -1.0, 0.0, 79.0],
    [1.0, 0.0, 0.0, 0.0],
    [0.0, 0.0, 1.0, 0.0],
    [0.0, 0.0, 0.0, 1.0]
],
  "dcmmeta_shape": [80, 80, 30, 200],
  "dcmmeta_slice_dim": 2,
  "dcmmeta_version": 0.6,
  "global": {
    "const": {
      "AccessionNumber": "qa",
      "AcquisitionMatrix": [80, 0, 0, 80],
      "AngioFlag": "N",
      "BitsAllocated": 16,
      "BitsStored": 12,
      "BodyPartExamined": "BRAIN",
      "Columns": 480,
      "EchoNumbers": 1,
      "EchoTime": 35.0,
      "EchoTrainLength": 39,
      "FlipAngle": 90.0,
      "HighBit": 11,
      "ImageOrientationPatient": [0.9865985151893, 0.16288262191768, 0.00962399623271, -0.1580274601012, 0.93917349505928, 0.30492698803502],
      "ImagePositionPatient": [-600.4500473168, -771.90461572549, -289.63210418057],
      "ImageType": [
        "ORIGINAL",
        "PRIMARY",
        "M",
        "ND",
        "NORM",
        "MOSAIC"
],
      "ImagedNucleus": "1H",
      "ImagingFrequency": 123.259123,
      "InPlanePhaseEncodingDirection": "COL",
      "MRAcquisitionType": "2D",
      "MagneticFieldStrength": 3.0,
      "Manufacturer": "SIEMENS",
      "ManufacturerModelName": "Prisma",
      "Modality": "MR",
      "NumberOfAverages": 1.0,
      "NumberOfPhaseEncodingSteps": 79,
      "PercentPhaseFieldOfView": 100.0,
      "PercentSampling": 100.0,
      "PerformedProcedureStepStartTime": "104434.102000",
      "PhotometricInterpretation": "MONOCHROME2",
      "PixelBandwidth": 2315.0,
      "PixelRepresentation": 0,
      "PixelSpacing": [3.0, 3.0],
      "ProtocolName": "func-bold_task-rest_acq-p2",
      "RepetitionTime": 2000.0,
      "Rows": 480,
      "SAR": 0.05513876584077,
      "SamplesPerPixel": 1,
      "ScanOptions": "FS",
      "ScanningSequence": "EP",
      "SequenceName": "*epfid2d1_80",
      "SequenceVariant": "SK",
      "SeriesDescription": "func-bold_task-rest_acq-p2",
      "SeriesNumber": 5,
      "SeriesTime": "111201.874000",
      "SliceLocation": -66.825873965069,
      "SliceThickness": 3.5,
      "SmallestImagePixelValue": 0,
      "SoftwareVersions": "syngo MR E11",
      "SpacingBetweenSlices": 3.9899999465337,
      "SpecificCharacterSet": "ISO_IR 100",
      "StudyID": "11",
      "StudyTime": "104433.950000",
      "TransmitCoilName": "Body",
      "VariableFlipAngleFlag": "N",
      "WindowCenterWidthExplanation": "Algo1"
    },
    "slices": {}
  },
  "time": {
    "samples": {
      "AcquisitionNumber": [1, 2, 3, 4, 5, 6, 7, 8, 9, 10, 11, 12, 13, 14, 15, 16, 17, 18, 19, 20, 21, 22, 23, 24, 25, 26, 27, 28, 29, 30, 31, 32, 33, 34, 35, 36, 37, 38, 39, 40, 41, 42, 43, 44, 45, 46, 47, 48, 49, 50, 51, 52, 53, 54, 55, 56, 57, 58, 59, 60, 61, 62, 63, 64, 65, 66, 67, 68, 69, 70, 71, 72, 73, 74, 75, 76, 77, 78, 79, 80, 81, 82, 83, 84, 85, 86, 87, 88, 89, 90, 91, 92, 93, 94, 95, 96, 97, 98, 99, 100, 101, 102, 103, 104, 105, 106, 107, 108, 109, 110, 111, 112, 113, 114, 115, 116, 117, 118, 119, 120, 121, 122, 123, 124, 125, 126, 127, 128, 129, 130, 131, 132, 133, 134, 135, 136, 137, 138, 139, 140, 141, 142, 143, 144, 145, 146, 147, 148, 149, 150, 151, 152, 153, 154, 155, 156, 157, 158, 159, 160, 161, 162, 163, 164, 165, 166, 167, 168, 169, 170, 171, 172, 173, 174, 175, 176, 177, 178, 179, 180, 181, 182, 183, 184, 185, 186, 187, 188, 189, 190, 191, 192, 193, 194, 195, 196, 197, 198, 199, 200],
      "AcquisitionTime": ["111140.772500", "111142.772500", "111144.772500", "111146.772500", "111148.772500", "111150.772500", "111152.772500", "111154.772500", "111156.772500", "111158.772500", "111200.772500", "111202.772500", "111204.772500", "111206.772500", "111208.772500", "111210.772500", "111212.772500", "111214.772500", "111216.772500", "111218.772500", "111220.772500", "111222.772500", "111224.772500", "111226.772500", "111228.772500", "111230.772500", "111232.772500", "111234.772500", "111236.772500", "111238.772500", "111240.772500", "111242.772500", "111244.772500", "111246.772500", "111248.772500", "111250.772500", "111252.772500", "111254.772500", "111256.772500", "111258.772500", "111300.772500", "111302.772500", "111304.772500", "111306.772500", "111308.772500", "111310.772500", "111312.772500", "111314.772500", "111316.772500", "111318.772500", "111320.772500", "111322.772500", "111324.772500", "111326.772500", "111328.772500", "111330.772500", "111332.772500", "111334.772500", "111336.772500", "111338.772500", "111340.772500", "111342.772500", "111344.772500", "111346.772500", "111348.772500", "111350.772500", "111352.772500", "111354.772500", "111356.772500", "111358.772500", "111400.772500", "111402.772500", "111404.772500", "111406.772500", "111408.772500", "111410.772500", "111412.772500", "111414.772500", "111416.772500", "111418.772500", "111420.772500", "111422.772500", "111424.772500", "111426.772500", "111428.772500", "111430.772500", "111432.772500", "111434.772500", "111436.772500", "111438.772500", "111440.772500", "111442.772500", "111444.772500", "111446.772500", "111448.772500", "111450.772500", "111452.772500", "111454.772500", "111456.772500", "111458.772500", "111500.772500", "111502.772500", "111504.772500", "111506.772500", "111508.772500", "111510.772500", "111512.772500", "111514.772500", "111516.772500", "111518.772500", "111520.772500", "111522.772500", "111524.772500", "111526.772500", "111528.772500", "111530.772500", "111532.772500", "111534.772500", "111536.772500", "111538.772500", "111540.772500", "111542.772500", "111544.772500", "111546.772500", "111548.772500", "111550.772500", "111552.772500", "111554.772500", "111556.772500", "111558.772500", "111600.772500", "111602.772500", "111604.772500", "111606.772500", "111608.772500", "111610.772500", "111612.772500", "111614.772500", "111616.772500", "111618.772500", "111620.772500", "111622.772500", "111624.772500", "111626.772500", "111628.772500", "111630.772500", "111632.772500", "111634.772500", "111636.772500", "111638.772500", "111640.772500", "111642.772500", "111644.772500", "111646.772500", "111648.772500", "111650.772500", "111652.772500", "111654.772500", "111656.772500", "111658.772500", "111700.772500", "111702.772500", "111704.772500", "111706.772500", "111708.772500", "111710.772500", "111712.772500", "111714.772500", "111716.772500", "111718.772500", "111720.772500", "111722.772500", "111724.772500", "111726.772500", "111728.772500", "111730.772500", "111732.772500", "111734.772500", "111736.772500", "111738.772500", "111740.772500", "111742.772500", "111744.772500", "111746.772500", "111748.772500", "111750.772500", "111752.772500", "111754.772500", "111756.772500", "111758.772500", "111800.772500", "111802.772500", "111804.772500", "111806.772500", "111808.772500", "111810.772500", "111812.772500", "111814.772500", "111816.772500", "111818.772500"],
      "ContentTime": ["111201.878000", "111201.881000", "111201.883000", "111201.894000", "111201.896000", "111201.899000", "111201.901000", "111201.904000", "111201.906000", "111201.908000", "111241.872000", "111241.875000", "111241.877000", "111241.879000", "111241.882000", "111241.884000", "111241.886000", "111241.889000", "111241.891000", "111241.893000", "111241.896000", "111241.898000", "111241.900000", "111241.910000", "111241.912000", "111241.916000", "111241.927000", "111241.929000", "111241.931000", "111241.934000", "111321.872000", "111321.875000", "111321.877000", "111321.879000", "111321.882000", "111321.889000", "111321.891000", "111321.894000", "111321.896000", "111321.898000", "111321.900000", "111321.903000", "111321.905000", "111321.907000", "111321.910000", "111321.914000", "111321.916000", "111321.919000", "111321.921000", "111321.924000", "111401.872000", "111401.875000", "111401.877000", "111401.880000", "111401.882000", "111401.885000", "111401.887000", "111401.890000", "111401.892000", "111401.895000", "111401.897000", "111401.900000", "111401.902000", "111401.905000", "111401.907000", "111401.910000", "111401.912000", "111401.915000", "111401.918000", "111401.920000", "111441.872000", "111441.875000", "111441.878000", "111441.880000", "111441.883000", "111441.885000", "111441.887000", "111441.890000", "111441.892000", "111441.894000", "111441.897000", "111441.899000", "111441.901000", "111441.904000", "111441.906000", "111441.908000", "111441.911000", "111441.914000", "111441.916000", "111441.919000", "111521.872000", "111521.877000", "111521.879000", "111521.882000", "111521.884000", "111521.886000", "111521.888000", "111521.891000", "111521.893000", "111521.896000", "111521.898000", "111521.900000", "111521.903000", "111521.905000", "111521.907000", "111521.918000", "111521.920000", "111521.922000", "111521.925000", "111521.927000", "111601.873000", "111601.876000", "111601.878000", "111601.881000", "111601.883000", "111601.886000", "111601.888000", "111601.890000", "111601.893000", "111601.895000", "111601.898000", "111601.900000", "111601.902000", "111601.905000", "111601.907000", "111601.910000", "111601.912000", "111601.916000", "111601.918000", "111601.920000", "111641.872000", "111641.875000", "111641.877000", "111641.880000", "111641.882000", "111641.884000", "111641.894000", "111641.896000", "111641.899000", "111641.901000", "111641.904000", "111641.906000", "111641.908000", "111641.911000", "111641.915000", "111641.917000", "111641.920000", "111641.922000", "111641.924000", "111641.927000", "111721.872000", "111721.875000", "111721.877000", "111721.879000", "111721.882000", "111721.884000", "111721.887000", "111721.889000", "111721.892000", "111721.894000", "111721.897000", "111721.899000", "111721.902000", "111721.904000", "111721.907000", "111721.909000", "111721.913000", "111721.915000", "111721.918000", "111721.920000", "111801.872000", "111801.972000", "111801.975000", "111801.977000", "111801.979000", "111801.982000", "111801.984000", "111801.986000", "111801.989000", "111801.991000", "111801.993000", "111801.996000", "111801.998000", "111802.001000", "111802.004000", "111802.006000", "111802.009000", "111802.016000", "111802.018000", "111802.021000", "111819.942000", "111819.944000", "111819.947000", "111819.949000", "111819.952000", "111819.955000", "111819.957000", "111819.959000", "111819.962000", "111819.964000"],
      "InstanceCreationTime": ["111201.878000", "111201.881000", "111201.883000", "111201.894000", "111201.896000", "111201.899000", "111201.901000", "111201.904000", "111201.906000", "111201.908000", "111241.872000", "111241.875000", "111241.877000", "111241.879000", "111241.882000", "111241.884000", "111241.886000", "111241.889000", "111241.891000", "111241.893000", "111241.896000", "111241.898000", "111241.900000", "111241.910000", "111241.912000", "111241.916000", "111241.927000", "111241.929000", "111241.931000", "111241.934000", "111321.872000", "111321.875000", "111321.877000", "111321.879000", "111321.882000", "111321.889000", "111321.891000", "111321.894000", "111321.896000", "111321.898000", "111321.900000", "111321.903000", "111321.905000", "111321.907000", "111321.910000", "111321.914000", "111321.916000", "111321.919000", "111321.921000", "111321.924000", "111401.872000", "111401.875000", "111401.877000", "111401.880000", "111401.882000", "111401.885000", "111401.887000", "111401.890000", "111401.892000", "111401.895000", "111401.897000", "111401.900000", "111401.902000", "111401.905000", "111401.907000", "111401.910000", "111401.912000", "111401.915000", "111401.918000", "111401.920000", "111441.872000", "111441.875000", "111441.878000", "111441.880000", "111441.883000", "111441.885000", "111441.887000", "111441.890000", "111441.892000", "111441.894000", "111441.897000", "111441.899000", "111441.901000", "111441.904000", "111441.906000", "111441.908000", "111441.911000", "111441.914000", "111441.916000", "111441.919000", "111521.872000", "111521.877000", "111521.879000", "111521.882000", "111521.884000", "111521.886000", "111521.888000", "111521.891000", "111521.893000", "111521.896000", "111521.898000", "111521.900000", "111521.903000", "111521.905000", "111521.907000", "111521.918000", "111521.920000", "111521.922000", "111521.925000", "111521.927000", "111601.873000", "111601.876000", "111601.878000", "111601.881000", "111601.883000", "111601.886000", "111601.888000", "111601.890000", "111601.893000", "111601.895000", "111601.898000", "111601.900000", "111601.902000", "111601.905000", "111601.907000", "111601.910000", "111601.912000", "111601.916000", "111601.918000", "111601.920000", "111641.872000", "111641.875000", "111641.877000", "111641.880000", "111641.882000", "111641.884000", "111641.894000", "111641.896000", "111641.899000", "111641.901000", "111641.904000", "111641.906000", "111641.908000", "111641.911000", "111641.915000", "111641.917000", "111641.920000", "111641.922000", "111641.924000", "111641.927000", "111721.872000", "111721.875000", "111721.877000", "111721.879000", "111721.882000", "111721.884000", "111721.887000", "111721.889000", "111721.892000", "111721.894000", "111721.897000", "111721.899000", "111721.902000", "111721.904000", "111721.907000", "111721.909000", "111721.913000", "111721.915000", "111721.918000", "111721.920000", "111801.872000", "111801.972000", "111801.975000", "111801.977000", "111801.979000", "111801.982000", "111801.984000", "111801.986000", "111801.989000", "111801.991000", "111801.993000", "111801.996000", "111801.998000", "111802.001000", "111802.004000", "111802.006000", "111802.009000", "111802.016000", "111802.018000", "111802.021000", "111819.942000", "111819.944000", "111819.947000", "111819.949000", "111819.952000", "111819.955000", "111819.957000", "111819.959000", "111819.962000", "111819.964000"],
      "InstanceNumber": [1, 2, 3, 4, 5, 6, 7, 8, 9, 10, 11, 12, 13, 14, 15, 16, 17, 18, 19, 20, 21, 22, 23, 24, 25, 26, 27, 28, 29, 30, 31, 32, 33, 34, 35, 36, 37, 38, 39, 40, 41, 42, 43, 44, 45, 46, 47, 48, 49, 50, 51, 52, 53, 54, 55, 56, 57, 58, 59, 60, 61, 62, 63, 64, 65, 66, 67, 68, 69, 70, 71, 72, 73, 74, 75, 76, 77, 78, 79, 80, 81, 82, 83, 84, 85, 86, 87, 88, 89, 90, 91, 92, 93, 94, 95, 96, 97, 98, 99, 100, 101, 102, 103, 104, 105, 106, 107, 108, 109, 110, 111, 112, 113, 114, 115, 116, 117, 118, 119, 120, 121, 122, 123, 124, 125, 126, 127, 128, 129, 130, 131, 132, 133, 134, 135, 136, 137, 138, 139, 140, 141, 142, 143, 144, 145, 146, 147, 148, 149, 150, 151, 152, 153, 154, 155, 156, 157, 158, 159, 160, 161, 162, 163, 164, 165, 166, 167, 168, 169, 170, 171, 172, 173, 174, 175, 176, 177, 178, 179, 180, 181, 182, 183, 184, 185, 186, 187, 188, 189, 190, 191, 192, 193, 194, 195, 196, 197, 198, 199, 200],
      "LargestImagePixelValue": [2171, 2169, 2168, 2174, 2176, 2180, 2169, 2170, 2171, 2177, 2173, 2181, 2181, 2169, 2163, 2176, 2170, 2168, 2166, 2176, 2176, 2176, 2173, 2176, 2170, 2175, 2174, 2169, 2172, 2165, 2173, 2176, 2172, 2173, 2170, 2172, 2170, 2176, 2173, 2171, 2177, 2172, 2175, 2175, 2168, 2172, 2166, 2174, 2162, 2169, 2163, 2171, 2176, 2177, 2169, 2175, 2169, 2165, 2171, 2169, 2171, 2173, 2176, 2171, 2161, 2170, 2167, 2169, 2166, 2168, 2165, 2177, 2174, 2171, 2168, 2171, 2175, 2166, 2167, 2171, 2174, 2179, 2177, 2174, 2173, 2170, 2167, 2170, 2166, 2168, 2168, 2164, 2168, 2162, 2173, 2177, 2180, 2166, 2164, 2165, 2169, 2171, 2167, 2178, 2170, 2167, 2171, 2168, 2169, 2176, 2163, 2168, 2169, 2168, 2165, 2166, 2165, 2175, 2170, 2166, 2170, 2172, 2165, 2168, 2162, 2160, 2174, 2162, 2172, 2168, 2167, 2166, 2173, 2168, 2167, 2172, 2175, 2167, 2170, 2161, 2167, 2163, 2161, 2164, 2168, 2162, 2175, 2173, 2165, 2165, 2168, 2168, 2165, 2164, 2173, 2165, 2175, 2167, 2174, 2168, 2165, 2172, 2165, 2169, 2164, 2167, 2170, 2169, 2166, 2174, 2167, 2168, 2169, 2176, 2169, 2176, 2170, 2166, 2175, 2163, 2161, 2172, 2165, 2161, 2163, 2164, 2160, 2157, 2174, 2168, 2164, 2173, 2169, 2166, 2169, 2165, 2163, 2163, 2161, 2161],
      "WindowCenter": [1010.0, 1010.0, 1010.0, 1010.0, 1010.0, 1010.0, 1010.0, 1010.0, 1010.0, 1010.0, 1010.0, 1010.0, 1010.0, 1010.0, 1010.0, 1010.0, 1010.0, 1010.0, 1010.0, 1010.0, 1010.0, 1009.0, 1009.0, 1010.0, 1010.0, 1009.0, 1009.0, 1010.0, 1009.0, 1009.0, 1009.0, 1010.0, 1009.0, 1010.0, 1009.0, 1010.0, 1009.0, 1009.0, 1009.0, 1009.0, 1009.0, 1010.0, 1009.0, 1009.0, 1010.0, 1009.0, 1009.0, 1009.0, 1010.0, 1009.0, 1009.0, 1009.0, 1009.0, 1009.0, 1009.0, 1009.0, 1010.0, 1009.0, 1009.0, 1010.0, 1009.0, 1009.0, 1009.0, 1009.0, 1009.0, 1010.0, 1009.0, 1009.0, 1009.0, 1009.0, 1009.0, 1009.0, 1009.0, 1009.0, 1010.0, 1009.0, 1009.0, 1009.0, 1009.0, 1010.0, 1009.0, 1009.0, 1009.0, 1009.0, 1009.0, 1009.0, 1009.0, 1010.0, 1009.0, 1010.0, 1009.0, 1009.0, 1009.0, 1010.0, 1009.0, 1009.0, 1009.0, 1009.0, 1009.0, 1009.0, 1009.0, 1009.0, 1009.0, 1009.0, 1009.0, 1009.0, 1010.0, 1009.0, 1010.0, 1009.0, 1009.0, 1009.0, 1009.0, 1009.0, 1009.0, 1010.0, 1009.0, 1009.0, 1009.0, 1009.0, 1009.0, 1009.0, 1009.0, 1009.0, 1009.0, 1009.0, 1009.0, 1009.0, 1009.0, 1009.0, 1009.0, 1009.0, 1009.0, 1009.0, 1010.0, 1009.0, 1009.0, 1009.0, 1009.0, 1009.0, 1010.0, 1009.0, 1009.0, 1009.0, 1009.0, 1009.0, 1009.0, 1009.0, 1009.0, 1009.0, 1009.0, 1009.0, 1009.0, 1009.0, 1009.0, 1009.0, 1009.0, 1009.0, 1009.0, 1009.0, 1009.0, 1009.0, 1009.0, 1009.0, 1009.0, 1009.0, 1009.0, 1010.0, 1009.0, 1010.0, 1009.0, 1009.0, 1009.0, 1010.0, 1009.0, 1009.0, 1009.0, 1009.0, 1009.0, 1009.0, 1009.0, 1009.0, 1009.0, 1009.0, 1009.0, 1009.0, 1009.0, 1009.0, 1009.0, 1009.0, 1009.0, 1009.0, 1009.0, 1009.0, 1009.0, 1009.0, 1009.0, 1009.0, 1009.0, 1009.0],
      "WindowWidth": [2233.0, 2232.0, 2233.0, 2233.0, 2232.0, 2232.0, 2232.0, 2232.0, 2232.0, 2232.0, 2232.0, 2232.0, 2233.0, 2232.0, 2232.0, 2232.0, 2232.0, 2232.0, 2232.0, 2233.0, 2232.0, 2232.0, 2232.0, 2232.0, 2232.0, 2232.0, 2232.0, 2232.0, 2232.0, 2232.0, 2232.0, 2232.0, 2232.0, 2232.0, 2232.0, 2232.0, 2232.0, 2232.0, 2232.0, 2232.0, 2232.0, 2232.0, 2232.0, 2232.0, 2233.0, 2232.0, 2231.0, 2231.0, 2233.0, 2232.0, 2231.0, 2232.0, 2231.0, 2232.0, 2232.0, 2232.0, 2232.0, 2232.0, 2231.0, 2232.0, 2232.0, 2232.0, 2232.0, 2232.0, 2231.0, 2232.0, 2231.0, 2231.0, 2232.0, 2231.0, 2231.0, 2231.0, 2231.0, 2231.0, 2232.0, 2232.0, 2231.0, 2231.0, 2231.0, 2232.0, 2231.0, 2231.0, 2231.0, 2231.0, 2231.0, 2231.0, 2231.0, 2232.0, 2231.0, 2232.0, 2231.0, 2231.0, 2231.0, 2232.0, 2231.0, 2231.0, 2231.0, 2231.0, 2231.0, 2231.0, 2231.0, 2231.0, 2231.0, 2231.0, 2231.0, 2231.0, 2232.0, 2231.0, 2231.0, 2231.0, 2231.0, 2231.0, 2231.0, 2231.0, 2231.0, 2232.0, 2231.0, 2231.0, 2231.0, 2231.0, 2231.0, 2231.0, 2231.0, 2231.0, 2231.0, 2231.0, 2231.0, 2231.0, 2231.0, 2231.0, 2231.0, 2231.0, 2231.0, 2231.0, 2231.0, 2231.0, 2231.0, 2231.0, 2231.0, 2230.0, 2231.0, 2231.0, 2230.0, 2231.0, 2231.0, 2231.0, 2231.0, 2231.0, 2231.0, 2231.0, 2231.0, 2231.0, 2231.0, 2231.0, 2230.0, 2230.0, 2231.0, 2231.0, 2230.0, 2231.0, 2231.0, 2230.0, 2230.0, 2231.0, 2230.0, 2231.0, 2230.0, 2231.0, 2230.0, 2231.0, 2230.0, 2230.0, 2231.0, 2231.0, 2230.0, 2231.0, 2231.0, 2231.0, 2231.0, 2230.0, 2230.0, 2231.0, 2230.0, 2230.0, 2230.0, 2230.0, 2231.0, 2230.0, 2230.0, 2230.0, 2230.0, 2230.0, 2230.0, 2230.0, 2230.0, 2230.0, 2230.0, 2230.0, 2230.0, 2230.0]
    },
    "slices": {}
  }
}