{
  "AcquisitionMatrixPE": 80,
  "AcquisitionNumber": 1,
  "AcquisitionTime": "12:06:58.547500",
  "BandwidthPerPixelPhaseEncode": 25,
  "BaseResolution": 80,
  "BodyPartExamined": "BRAIN",
  "CoilCombinationMethod": "Sum of Squares",
  "ConsistencyInfo": "N4_VE11C_LATEST_20160120",
  "ConversionSoftware": "dcm2niix",
  "ConversionSoftwareVersion": "v1.0.20220720",
  "DerivedVendorReportedEchoSpacing": 0.0005,
  "DeviceSerialNumber": "66112",
  "DwellTime": 2.7e-06,
  "EchoTime": 0.03,
  "EchoTrainLength": 80,
  "EffectiveEchoSpacing": 0.0005,
  "FlipAngle": 10,
  "HeudiconvVersion": "0.13.1",
  "ImageOrientationPatientDICOM": [0.987926, -0.154489, -0.0116241, 0.150645, 0.940404, 0.304871],
  "ImageOrientationText": "Tra>Cor(17.6)>Sag(2.1)",
  "ImageType": [
    "ORIGINAL",
    "PRIMARY",
    "M",
    "ND",
    "NORM",
    "MOSAIC"
],
  "ImagingFrequency": 123.252,
  "InPlanePhaseEncodingDirectionDICOM": "COL",
  "InstitutionAddress": "Maynard 3,Hanover,NH,US,03755",
  "InstitutionName": "Dartmouth College - PBS",
  "InstitutionalDepartmentName": "Department",
  "MRAcquisitionType": "2D",
  "MagneticFieldStrength": 3,
  "Manufacturer": "Siemens",
  "ManufacturersModelName": "Prisma",
  "MatrixCoilMode": "SENSE",
  "Modality": "MR",
  "NonlinearGradientCorrection": false,
  "PartialFourier": 1,
  "PatientPosition": "HFS",
  "PercentPhaseFOV": 100,
  "PercentSampling": 100,
  "PhaseEncodingDirection": "j-",
  "PhaseEncodingSteps": 80,
  "PhaseResolution": 1,
  "PixelBandwidth": 2315,
  "ProcedureStepDescription": "dbic^QA",
  "ProtocolName": "func-bold_fa-10",
  "PulseSequenceDetails": "%SiemensSeq%\\ep2d_bold",
  "ReceiveCoilActiveElements": "HC1-7;NC1,2",
  "ReceiveCoilName": "HeadNeck_64",
  "ReconMatrixPE": 80,
  "RepetitionTime": 2,
  "SAR": 0.00712408,
  "ScanOptions": "FS",
  "ScanningSequence": "EP",
  "SequenceName": "*epfid2d1_80",
  "SequenceVariant": "SK",
  "SeriesDescription": "func-bold_fa-10",
  "SeriesNumber": 9,
  "ShimSetting": [4142, -7667, -7511, 231, -92, -389, -22, 110],
  "SliceThickness": 3.5,
  "SliceTiming": [0.99, 0, 1.0575, 0.0675, 1.1225, 0.1325, 1.1875, 0.1975, 1.255, 0.265, 1.32, 0.33, 1.3875, 0.3975, 1.4525, 0.4625, 1.5175, 0.5275, 1.585, 0.595, 1.65, 0.66, 1.715, 0.7275, 1.7825, 0.7925, 1.8475, 0.8575, 1.915, 0.925],
  "SoftwareVersions": "syngo MR E11",
  "SpacingBetweenSlices": 3.99,
  "StationName": "AWP66112",
  "TotalReadoutTime": 0.0395,
  "TxRefAmp": 220.802,
  "dcmmeta_affine": [
    [-2.963778495788574, 0.4519338011741638, 0.14430958032608032, 96.77278137207031],
    [0.4634663760662079, 2.8212122917175293, 1.2087349891662598, -132.5767059326172],
    [-0.03487223759293556, -0.914612889289856, 3.79976749420166, -43.37165451049805],
    [0.0, 0.0, 0.0, 1.0]
],
  "dcmmeta_reorient_transform": [
    [0.0, -1.0, 0.0, 79.0],
    [1.0, 0.0, 0.0, 0.0],
    [0.0, 0.0, 1.0, 0.0],
    [0.0, 0.0, 0.0, 1.0]
],
  "dcmmeta_shape": [80, 80, 30, 200],
  "dcmmeta_slice_dim": 2,
  "dcmmeta_version": 0.6,
  "global": {
    "const": {
      "AccessionNumber": "qa64",
      "AcquisitionMatrix": [80, 0, 0, 80],
      "AngioFlag": "N",
      "BitsAllocated": 16,
      "BitsStored": 12,
      "BodyPartExamined": "BRAIN",
      "Columns": 480,
      "EchoNumbers": 1,
      "EchoTime": 30.0,
      "EchoTrainLength": 80,
      "FlipAngle": 10.0,
      "HighBit": 11,
      "ImageOrientationPatient": [0.98792615845834, -0.1544887899367, -0.0116240792175, 0.15064459707696, 0.94040411538706, 0.30487096472869],
      "ImagePositionPatient": [-815.61800132795, -561.84826924859, -291.57420471161],
      "ImageType": [
        "ORIGINAL",
        "PRIMARY",
        "M",
        "ND",
        "NORM",
        "MOSAIC"
],
      "ImagedNucleus": "1H",
      "ImagingFrequency": 123.252357,
      "InPlanePhaseEncodingDirection": "COL",
      "MRAcquisitionType": "2D",
      "MagneticFieldStrength": 3.0,
      "Manufacturer": "SIEMENS",
      "ManufacturerModelName": "Prisma",
      "Modality": "MR",
      "NumberOfAverages": 1.0,
      "NumberOfPhaseEncodingSteps": 80,
      "PercentPhaseFieldOfView": 100.0,
      "PercentSampling": 100.0,
      "PerformedProcedureStepStartTime": "114446.587000",
      "PhotometricInterpretation": "MONOCHROME2",
      "PixelBandwidth": 2315.0,
      "PixelRepresentation": 0,
      "PixelSpacing": [3.0, 3.0],
      "ProtocolName": "func-bold_fa-10",
      "RepetitionTime": 2000.0,
      "Rows": 480,
      "SAR": 0.00712408065692,
      "SamplesPerPixel": 1,
      "ScanOptions": "FS",
      "ScanningSequence": "EP",
      "SequenceName": "*epfid2d1_80",
      "SequenceVariant": "SK",
      "SeriesDescription": "func-bold_fa-10",
      "SeriesNumber": 9,
      "SeriesTime": "120749.837000",
      "SliceLocation": -77.966685130362,
      "SliceThickness": 3.5,
      "SmallestImagePixelValue": 0,
      "SoftwareVersions": "syngo MR E11",
      "SpacingBetweenSlices": 3.9899999255669,
      "SpecificCharacterSet": "ISO_IR 100",
      "StudyID": "4",
      "StudyTime": "114446.533000",
      "TransmitCoilName": "Body",
      "VariableFlipAngleFlag": "N",
      "WindowCenterWidthExplanation": "Algo1",
      "dBdt": 0.0},
    "slices": {}
  },
  "time": {
    "samples": {
      "AcquisitionNumber": [1, 2, 3, 4, 5, 6, 7, 8, 9, 10, 11, 12, 13, 14, 15, 16, 17, 18, 19, 20, 21, 22, 23, 24, 25, 26, 27, 28, 29, 30, 31, 32, 33, 34, 35, 36, 37, 38, 39, 40, 41, 42, 43, 44, 45, 46, 47, 48, 49, 50, 51, 52, 53, 54, 55, 56, 57, 58, 59, 60, 61, 62, 63, 64, 65, 66, 67, 68, 69, 70, 71, 72, 73, 74, 75, 76, 77, 78, 79, 80, 81, 82, 83, 84, 85, 86, 87, 88, 89, 90, 91, 92, 93, 94, 95, 96, 97, 98, 99, 100, 101, 102, 103, 104, 105, 106, 107, 108, 109, 110, 111, 112, 113, 114, 115, 116, 117, 118, 119, 120, 121, 122, 123, 124, 125, 126, 127, 128, 129, 130, 131, 132, 133, 134, 135, 136, 137, 138, 139, 140, 141, 142, 143, 144, 145, 146, 147, 148, 149, 150, 151, 152, 153, 154, 155, 156, 157, 158, 159, 160, 161, 162, 163, 164, 165, 166, 167, 168, 169, 170, 171, 172, 173, 174, 175, 176, 177, 178, 179, 180, 181, 182, 183, 184, 185, 186, 187, 188, 189, 190, 191, 192, 193, 194, 195, 196, 197, 198, 199, 200],
      "AcquisitionTime": ["120658.547500", "120700.547500", "120702.547500", "120704.547500", "120706.547500", "120708.547500", "120710.547500", "120712.547500", "120714.547500", "120716.547500", "120718.547500", "120720.547500", "120722.547500", "120724.547500", "120726.547500", "120728.547500", "120730.547500", "120732.547500", "120734.547500", "120736.547500", "120738.547500", "120740.547500", "120742.547500", "120744.547500", "120746.547500", "120748.547500", "120750.547500", "120752.547500", "120754.547500", "120756.547500", "120758.547500", "120800.547500", "120802.547500", "120804.547500", "120806.547500", "120808.547500", "120810.547500", "120812.547500", "120814.547500", "120816.547500", "120818.547500", "120820.547500", "120822.547500", "120824.547500", "120826.547500", "120828.547500", "120830.547500", "120832.547500", "120834.547500", "120836.547500", "120838.547500", "120840.547500", "120842.547500", "120844.547500", "120846.547500", "120848.547500", "120850.547500", "120852.547500", "120854.547500", "120856.547500", "120858.547500", "120900.547500", "120902.547500", "120904.547500", "120906.547500", "120908.547500", "120910.547500", "120912.547500", "120914.547500", "120916.547500", "120918.547500", "120920.547500", "120922.547500", "120924.547500", "120926.547500", "120928.547500", "120930.547500", "120932.547500", "120934.547500", "120936.547500", "120938.547500", "120940.547500", "120942.547500", "120944.547500", "120946.547500", "120948.547500", "120950.547500", "120952.547500", "120954.547500", "120956.547500", "120958.547500", "121000.547500", "121002.547500", "121004.547500", "121006.547500", "121008.547500", "121010.547500", "121012.547500", "121014.547500", "121016.547500", "121018.547500", "121020.547500", "121022.547500", "121024.547500", "121026.547500", "121028.547500", "121030.547500", "121032.547500", "121034.547500", "121036.547500", "121038.547500", "121040.547500", "121042.547500", "121044.547500", "121046.547500", "121048.547500", "121050.547500", "121052.547500", "121054.547500", "121056.547500", "121058.547500", "121100.547500", "121102.547500", "121104.547500", "121106.547500", "121108.547500", "121110.547500", "121112.547500", "121114.547500", "121116.547500", "121118.547500", "121120.547500", "121122.547500", "121124.547500", "121126.547500", "121128.547500", "121130.547500", "121132.547500", "121134.547500", "121136.547500", "121138.547500", "121140.547500", "121142.547500", "121144.547500", "121146.547500", "121148.547500", "121150.547500", "121152.547500", "121154.547500", "121156.547500", "121158.547500", "121200.547500", "121202.547500", "121204.547500", "121206.547500", "121208.547500", "121210.547500", "121212.547500", "121214.547500", "121216.547500", "121218.547500", "121220.547500", "121222.547500", "121224.547500", "121226.547500", "121228.547500", "121230.547500", "121232.547500", "121234.547500", "121236.547500", "121238.547500", "121240.547500", "121242.547500", "121244.547500", "121246.547500", "121248.547500", "121250.547500", "121252.547500", "121254.547500", "121256.547500", "121258.547500", "121300.547500", "121302.547500", "121304.547500", "121306.547500", "121308.547500", "121310.547500", "121312.547500", "121314.547500", "121316.547500", "121318.547500", "121320.547500", "121322.547500", "121324.547500", "121326.547500", "121328.547500", "121330.547500", "121332.547500", "121334.547500", "121336.547500"],
      "ContentTime": ["120749.840000", "120749.844000", "120749.846000", "120749.849000", "120749.851000", "120749.854000", "120749.857000", "120749.859000", "120749.862000", "120749.864000", "120749.867000", "120749.869000", "120749.872000", "120749.875000", "120749.877000", "120749.880000", "120749.882000", "120749.885000", "120749.887000", "120749.890000", "120749.892000", "120749.895000", "120749.898000", "120749.900000", "120749.903000", "120829.835000", "120829.838000", "120829.841000", "120829.843000", "120829.846000", "120829.849000", "120829.851000", "120829.854000", "120829.856000", "120829.859000", "120829.861000", "120829.864000", "120829.867000", "120829.869000", "120829.872000", "120829.874000", "120829.877000", "120829.879000", "120829.882000", "120829.884000", "120909.834000", "120909.837000", "120909.840000", "120909.842000", "120909.845000", "120909.848000", "120909.850000", "120909.853000", "120909.855000", "120909.858000", "120909.860000", "120909.863000", "120909.865000", "120909.868000", "120909.871000", "120909.873000", "120909.876000", "120909.878000", "120909.881000", "120909.884000", "120949.835000", "120949.843000", "120949.845000", "120949.848000", "120949.851000", "120949.853000", "120949.856000", "120949.858000", "120949.861000", "120949.864000", "120949.866000", "120949.869000", "120949.871000", "120949.874000", "120949.876000", "120949.879000", "120949.881000", "120949.884000", "120949.887000", "120949.889000", "121009.836000", "121009.842000", "121009.845000", "121009.847000", "121009.850000", "121009.853000", "121009.855000", "121009.858000", "121009.860000", "121009.865000", "121049.835000", "121049.838000", "121049.841000", "121049.843000", "121049.846000", "121049.848000", "121049.851000", "121049.853000", "121049.856000", "121049.858000", "121049.861000", "121049.863000", "121049.866000", "121049.868000", "121049.871000", "121049.873000", "121049.876000", "121049.878000", "121049.881000", "121049.883000", "121129.834000", "121129.837000", "121129.840000", "121129.842000", "121129.845000", "121129.847000", "121129.850000", "121129.859000", "121129.861000", "121129.864000", "121129.866000", "121129.869000", "121129.871000", "121129.874000", "121129.876000", "121129.879000", "121129.881000", "121129.884000", "121129.886000", "121129.889000", "121209.835000", "121209.838000", "121209.841000", "121209.843000", "121209.846000", "121209.848000", "121209.851000", "121209.854000", "121209.856000", "121209.859000", "121209.861000", "121209.864000", "121209.867000", "121209.869000", "121209.872000", "121209.874000", "121209.877000", "121209.879000", "121209.882000", "121209.884000", "121249.835000", "121249.838000", "121249.841000", "121249.843000", "121249.846000", "121249.848000", "121249.851000", "121249.853000", "121249.856000", "121249.859000", "121249.861000", "121249.864000", "121249.866000", "121249.869000", "121249.871000", "121249.874000", "121249.876000", "121249.879000", "121249.881000", "121249.884000", "121329.834000", "121329.838000", "121329.840000", "121329.843000", "121329.845000", "121329.848000", "121329.850000", "121329.853000", "121329.855000", "121329.858000", "121329.861000", "121329.863000", "121329.866000", "121329.868000", "121329.871000", "121329.873000", "121329.876000", "121329.879000", "121329.881000", "121329.884000", "121338.181000", "121338.184000", "121338.187000", "121338.189000", "121338.192000"],
      "InstanceCreationTime": ["120749.840000", "120749.844000", "120749.846000", "120749.849000", "120749.851000", "120749.854000", "120749.857000", "120749.859000", "120749.862000", "120749.864000", "120749.867000", "120749.869000", "120749.872000", "120749.875000", "120749.877000", "120749.880000", "120749.882000", "120749.885000", "120749.887000", "120749.890000", "120749.892000", "120749.895000", "120749.898000", "120749.900000", "120749.903000", "120829.835000", "120829.838000", "120829.841000", "120829.843000", "120829.846000", "120829.849000", "120829.851000", "120829.854000", "120829.856000", "120829.859000", "120829.861000", "120829.864000", "120829.867000", "120829.869000", "120829.872000", "120829.874000", "120829.877000", "120829.879000", "120829.882000", "120829.884000", "120909.834000", "120909.837000", "120909.840000", "120909.842000", "120909.845000", "120909.848000", "120909.850000", "120909.853000", "120909.855000", "120909.858000", "120909.860000", "120909.863000", "120909.865000", "120909.868000", "120909.871000", "120909.873000", "120909.876000", "120909.878000", "120909.881000", "120909.884000", "120949.835000", "120949.843000", "120949.845000", "120949.848000", "120949.851000", "120949.853000", "120949.856000", "120949.858000", "120949.861000", "120949.864000", "120949.866000", "120949.869000", "120949.871000", "120949.874000", "120949.876000", "120949.879000", "120949.881000", "120949.884000", "120949.887000", "120949.889000", "121009.836000", "121009.842000", "121009.845000", "121009.847000", "121009.850000", "121009.853000", "121009.855000", "121009.858000", "121009.860000", "121009.865000", "121049.835000", "121049.838000", "121049.841000", "121049.843000", "121049.846000", "121049.848000", "121049.851000", "121049.853000", "121049.856000", "121049.858000", "121049.861000", "121049.863000", "121049.866000", "121049.868000", "121049.871000", "121049.873000", "121049.876000", "121049.878000", "121049.881000", "121049.883000", "121129.834000", "121129.837000", "121129.840000", "121129.842000", "121129.845000", "121129.847000", "121129.850000", "121129.859000", "121129.861000", "121129.864000", "121129.866000", "121129.869000", "121129.871000", "121129.874000", "121129.876000", "121129.879000", "121129.881000", "121129.884000", "121129.886000", "121129.889000", "121209.835000", "121209.838000", "121209.841000", "121209.843000", "121209.846000", "121209.848000", "121209.851000", "121209.854000", "121209.856000", "121209.859000", "121209.861000", "121209.864000", "121209.867000", "121209.869000", "121209.872000", "121209.874000", "121209.877000", "121209.879000", "121209.882000", "121209.884000", "121249.835000", "121249.838000", "121249.841000", "121249.843000", "121249.846000", "121249.848000", "121249.851000", "121249.853000", "121249.856000", "121249.859000", "121249.861000", "121249.864000", "121249.866000", "121249.869000", "121249.871000", "121249.874000", "121249.876000", "121249.879000", "121249.881000", "121249.884000", "121329.834000", "121329.838000", "121329.840000", "121329.843000", "121329.845000", "121329.848000", "121329.850000", "121329.853000", "121329.855000", "121329.858000", "121329.861000", "121329.863000", "121329.866000", "121329.868000", "121329.871000", "121329.873000", "121329.876000", "121329.879000", "121329.881000", "121329.884000", "121338.181000", "121338.184000", "121338.187000", "121338.189000", "121338.192000"],
      "InstanceNumber": [1, 2, 3, 4, 5, 6, 7, 8, 9, 10, 11, 12, 13, 14, 15, 16, 17, 18, 19, 20, 21, 22, 23, 24, 25, 26, 27, 28, 29, 30, 31, 32, 33, 34, 35, 36, 37, 38, 39, 40, 41, 42, 43, 44, 45, 46, 47, 48, 49, 50, 51, 52, 53, 54, 55, 56, 57, 58, 59, 60, 61, 62, 63, 64, 65, 66, 67, 68, 69, 70, 71, 72, 73, 74, 75, 76, 77, 78, 79, 80, 81, 82, 83, 84, 85, 86, 87, 88, 89, 90, 91, 92, 93, 94, 95, 96, 97, 98, 99, 100, 101, 102, 103, 104, 105, 106, 107, 108, 109, 110, 111, 112, 113, 114, 115, 116, 117, 118, 119, 120, 121, 122, 123, 124, 125, 126, 127, 128, 129, 130, 131, 132, 133, 134, 135, 136, 137, 138, 139, 140, 141, 142, 143, 144, 145, 146, 147, 148, 149, 150, 151, 152, 153, 154, 155, 156, 157, 158, 159, 160, 161, 162, 163, 164, 165, 166, 167, 168, 169, 170, 171, 172, 173, 174, 175, 176, 177, 178, 179, 180, 181, 182, 183, 184, 185, 186, 187, 188, 189, 190, 191, 192, 193, 194, 195, 196, 197, 198, 199, 200],
      "LargestImagePixelValue": [786, 794, 792, 790, 788, 789, 793, 794, 791, 789, 790, 791, 790, 789, 793, 794, 789, 793, 792, 789, 790, 789, 788, 788, 790, 790, 791, 788, 790, 788, 787, 786, 788, 792, 792, 789, 791, 788, 789, 786, 788, 786, 788, 785, 792, 792, 789, 789, 790, 786, 788, 786, 793, 790, 789, 789, 792, 790, 790, 789, 788, 790, 789, 789, 788, 790, 789, 789, 791, 791, 789, 789, 788, 791, 789, 792, 789, 788, 789, 791, 789, 786, 788, 791, 789, 786, 789, 784, 788, 788, 787, 788, 788, 789, 790, 791, 789, 784, 788, 788, 789, 788, 789, 787, 789, 788, 792, 790, 788, 788, 787, 782, 790, 790, 792, 785, 788, 790, 787, 789, 790, 787, 786, 785, 788, 789, 790, 788, 789, 787, 789, 786, 789, 787, 788, 784, 787, 789, 787, 786, 785, 786, 785, 785, 790, 787, 789, 785, 785, 784, 790, 786, 787, 788, 787, 787, 788, 788, 787, 789, 791, 791, 787, 788, 788, 787, 790, 785, 788, 787, 788, 792, 785, 790, 792, 787, 789, 787, 786, 786, 791, 786, 788, 781, 790, 785, 784, 793, 785, 786, 791, 789, 786, 789, 785, 788, 788, 787, 788, 790],
      "WindowCenter": [480.0, 480.0, 480.0, 480.0, 480.0, 480.0, 480.0, 480.0, 480.0, 480.0, 480.0, 480.0, 480.0, 480.0, 480.0, 480.0, 479.0, 480.0, 480.0, 479.0, 480.0, 479.0, 479.0, 479.0, 480.0, 480.0, 480.0, 479.0, 479.0, 479.0, 479.0, 479.0, 479.0, 479.0, 479.0, 479.0, 479.0, 479.0, 479.0, 479.0, 479.0, 479.0, 479.0, 479.0, 479.0, 479.0, 479.0, 479.0, 479.0, 479.0, 479.0, 479.0, 479.0, 479.0, 479.0, 479.0, 479.0, 479.0, 479.0, 479.0, 479.0, 479.0, 479.0, 479.0, 479.0, 479.0, 479.0, 479.0, 479.0, 479.0, 479.0, 479.0, 479.0, 479.0, 479.0, 479.0, 479.0, 479.0, 479.0, 479.0, 479.0, 479.0, 479.0, 479.0, 479.0, 479.0, 479.0, 479.0, 479.0, 479.0, 479.0, 479.0, 479.0, 479.0, 479.0, 479.0, 479.0, 479.0, 479.0, 479.0, 479.0, 479.0, 479.0, 479.0, 479.0, 479.0, 479.0, 479.0, 479.0, 479.0, 479.0, 479.0, 479.0, 479.0, 479.0, 479.0, 479.0, 479.0, 479.0, 479.0, 479.0, 479.0, 479.0, 479.0, 479.0, 479.0, 479.0, 479.0, 479.0, 479.0, 479.0, 479.0, 479.0, 479.0, 479.0, 479.0, 479.0, 479.0, 479.0, 479.0, 479.0, 479.0, 479.0, 479.0, 479.0, 479.0, 479.0, 479.0, 479.0, 479.0, 479.0, 479.0, 479.0, 479.0, 479.0, 479.0, 478.0, 479.0, 479.0, 479.0, 479.0, 479.0, 478.0, 479.0, 479.0, 478.0, 478.0, 478.0, 478.0, 478.0, 478.0, 478.0, 478.0, 478.0, 478.0, 478.0, 478.0, 478.0, 478.0, 478.0, 478.0, 478.0, 478.0, 478.0, 478.0, 478.0, 478.0, 478.0, 478.0, 478.0, 478.0, 478.0, 478.0, 478.0, 478.0, 478.0, 478.0, 478.0, 478.0, 478.0],
      "WindowWidth": [992.0, 992.0, 992.0, 992.0, 992.0, 991.0, 992.0, 992.0, 992.0, 991.0, 992.0, 992.0, 992.0, 991.0, 992.0, 992.0, 991.0, 992.0, 992.0, 991.0, 992.0, 991.0, 991.0, 991.0, 991.0, 991.0, 991.0, 991.0, 991.0, 991.0, 991.0, 991.0, 991.0, 991.0, 991.0, 991.0, 991.0, 991.0, 991.0, 990.0, 990.0, 990.0, 990.0, 990.0, 990.0, 990.0, 990.0, 990.0, 990.0, 990.0, 990.0, 990.0, 990.0, 990.0, 990.0, 990.0, 990.0, 990.0, 990.0, 990.0, 990.0, 990.0, 990.0, 990.0, 990.0, 990.0, 990.0, 990.0, 990.0, 990.0, 990.0, 989.0, 989.0, 990.0, 989.0, 990.0, 989.0, 989.0, 989.0, 990.0, 989.0, 989.0, 989.0, 990.0, 989.0, 989.0, 990.0, 989.0, 989.0, 989.0, 989.0, 989.0, 989.0, 989.0, 990.0, 990.0, 989.0, 989.0, 989.0, 989.0, 989.0, 989.0, 989.0, 989.0, 989.0, 989.0, 990.0, 990.0, 989.0, 989.0, 989.0, 989.0, 989.0, 989.0, 990.0, 989.0, 989.0, 989.0, 989.0, 989.0, 989.0, 989.0, 989.0, 989.0, 989.0, 989.0, 989.0, 989.0, 989.0, 989.0, 989.0, 989.0, 989.0, 989.0, 989.0, 989.0, 989.0, 989.0, 989.0, 989.0, 989.0, 989.0, 989.0, 989.0, 989.0, 989.0, 989.0, 989.0, 989.0, 989.0, 990.0, 989.0, 989.0, 989.0, 989.0, 989.0, 988.0, 989.0, 989.0, 989.0, 989.0, 989.0, 989.0, 989.0, 989.0, 989.0, 989.0, 989.0, 989.0, 989.0, 989.0, 989.0, 989.0, 989.0, 989.0, 989.0, 988.0, 988.0, 988.0, 988.0, 989.0, 988.0, 988.0, 988.0, 989.0, 988.0, 988.0, 989.0, 989.0, 989.0, 989.0, 988.0, 989.0, 988.0, 989.0, 988.0, 988.0, 988.0, 988.0, 989.0]
    },
    "slices": {}
  }
}