{
  "AcquisitionMatrixPE": 80,
  "AcquisitionNumber": 1,
  "AcquisitionTime": "12:00:11.530000",
  "BandwidthPerPixelPhaseEncode": 25,
  "BaseResolution": 80,
  "BodyPartExamined": "BRAIN",
  "CoilCombinationMethod": "Sum of Squares",
  "ConsistencyInfo": "N4_VE11C_LATEST_20160120",
  "ConversionSoftware": "dcm2niix",
  "ConversionSoftwareVersion": "v1.0.20220720",
  "DerivedVendorReportedEchoSpacing": 0.0005,
  "DeviceSerialNumber": "66112",
  "DwellTime": 2.7e-06,
  "EchoTime": 0.03,
  "EchoTrainLength": 80,
  "EffectiveEchoSpacing": 0.0005,
  "FlipAngle": 77,
  "HeudiconvVersion": "0.13.1",
  "ImageOrientationPatientDICOM": [0.987926, -0.154489, -0.0116241, 0.150645, 0.940404, 0.304871],
  "ImageOrientationText": "Tra>Cor(17.6)>Sag(2.1)",
  "ImageType": [
    "ORIGINAL",
    "PRIMARY",
    "M",
    "ND",
    "NORM",
    "MOSAIC"
],
  "ImagingFrequency": 123.252,
  "InPlanePhaseEncodingDirectionDICOM": "COL",
  "InstitutionAddress": "Maynard 3,Hanover,NH,US,03755",
  "InstitutionName": "Dartmouth College - PBS",
  "InstitutionalDepartmentName": "Department",
  "MRAcquisitionType": "2D",
  "MagneticFieldStrength": 3,
  "Manufacturer": "Siemens",
  "ManufacturersModelName": "Prisma",
  "MatrixCoilMode": "SENSE",
  "Modality": "MR",
  "NonlinearGradientCorrection": false,
  "PartialFourier": 1,
  "PatientPosition": "HFS",
  "PercentPhaseFOV": 100,
  "PercentSampling": 100,
  "PhaseEncodingDirection": "j-",
  "PhaseEncodingSteps": 80,
  "PhaseResolution": 1,
  "PixelBandwidth": 2315,
  "ProcedureStepDescription": "dbic^QA",
  "ProtocolName": "func-bold_fa-77",
  "PulseSequenceDetails": "%SiemensSeq%\\ep2d_bold",
  "ReceiveCoilActiveElements": "HC1-7;NC1,2",
  "ReceiveCoilName": "HeadNeck_64",
  "ReconMatrixPE": 80,
  "RepetitionTime": 2,
  "SAR": 0.0265577,
  "ScanOptions": "FS",
  "ScanningSequence": "EP",
  "SequenceName": "*epfid2d1_80",
  "SequenceVariant": "SK",
  "SeriesDescription": "func-bold_fa-77",
  "SeriesNumber": 7,
  "ShimSetting": [4142, -7667, -7511, 231, -92, -389, -22, 110],
  "SliceThickness": 3.5,
  "SliceTiming": [0.99, 0, 1.055, 0.065, 1.1225, 0.1325, 1.1875, 0.1975, 1.255, 0.265, 1.32, 0.33, 1.385, 0.395, 1.4525, 0.4625, 1.5175, 0.5275, 1.585, 0.595, 1.65, 0.66, 1.715, 0.725, 1.7825, 0.7925, 1.8475, 0.8575, 1.915, 0.925],
  "SoftwareVersions": "syngo MR E11",
  "SpacingBetweenSlices": 3.99,
  "StationName": "AWP66112",
  "TotalReadoutTime": 0.0395,
  "TxRefAmp": 220.802,
  "dcmmeta_affine": [
    [-2.963778495788574, 0.4519338011741638, 0.14430958032608032, 96.77278137207031],
    [0.4634663760662079, 2.8212122917175293, 1.2087349891662598, -132.5767059326172],
    [-0.03487223759293556, -0.914612889289856, 3.79976749420166, -43.37165451049805],
    [0.0, 0.0, 0.0, 1.0]
],
  "dcmmeta_reorient_transform": [
    [0.0, -1.0, 0.0, 79.0],
    [1.0, 0.0, 0.0, 0.0],
    [0.0, 0.0, 1.0, 0.0],
    [0.0, 0.0, 0.0, 1.0]
],
  "dcmmeta_shape": [80, 80, 30, 200],
  "dcmmeta_slice_dim": 2,
  "dcmmeta_version": 0.6,
  "global": {
    "const": {
      "AccessionNumber": "qa64",
      "AcquisitionMatrix": [80, 0, 0, 80],
      "AngioFlag": "N",
      "BitsAllocated": 16,
      "BitsStored": 12,
      "BodyPartExamined": "BRAIN",
      "Columns": 480,
      "EchoNumbers": 1,
      "EchoTime": 30.0,
      "EchoTrainLength": 80,
      "FlipAngle": 77.0,
      "HighBit": 11,
      "ImageOrientationPatient": [0.98792615845834, -0.1544887899367, -0.0116240792175, 0.15064459707696, 0.94040411538706, 0.30487096472869],
      "ImagePositionPatient": [-815.61800132795, -561.84826924859, -291.57420471161],
      "ImageType": [
        "ORIGINAL",
        "PRIMARY",
        "M",
        "ND",
        "NORM",
        "MOSAIC"
],
      "ImagedNucleus": "1H",
      "ImagingFrequency": 123.252355,
      "InPlanePhaseEncodingDirection": "COL",
      "LargestImagePixelValue": 4095,
      "MRAcquisitionType": "2D",
      "MagneticFieldStrength": 3.0,
      "Manufacturer": "SIEMENS",
      "ManufacturerModelName": "Prisma",
      "Modality": "MR",
      "NumberOfAverages": 1.0,
      "NumberOfPhaseEncodingSteps": 80,
      "PercentPhaseFieldOfView": 100.0,
      "PercentSampling": 100.0,
      "PerformedProcedureStepStartTime": "114446.587000",
      "PhotometricInterpretation": "MONOCHROME2",
      "PixelBandwidth": 2315.0,
      "PixelRepresentation": 0,
      "PixelSpacing": [3.0, 3.0],
      "ProtocolName": "func-bold_fa-77",
      "RepetitionTime": 2000.0,
      "Rows": 480,
      "SAR": 0.02655770519672,
      "SamplesPerPixel": 1,
      "ScanOptions": "FS",
      "ScanningSequence": "EP",
      "SequenceName": "*epfid2d1_80",
      "SequenceVariant": "SK",
      "SeriesDescription": "func-bold_fa-77",
      "SeriesNumber": 7,
      "SeriesTime": "120109.766000",
      "SliceLocation": -77.966685130362,
      "SliceThickness": 3.5,
      "SmallestImagePixelValue": 0,
      "SoftwareVersions": "syngo MR E11",
      "SpacingBetweenSlices": 3.9899999255669,
      "SpecificCharacterSet": "ISO_IR 100",
      "StudyID": "4",
      "StudyTime": "114446.533000",
      "TransmitCoilName": "Body",
      "VariableFlipAngleFlag": "N",
      "WindowCenterWidthExplanation": "Algo1",
      "dBdt": 0.0},
    "slices": {}
  },
  "time": {
    "samples": {
      "AcquisitionNumber": [1, 2, 3, 4, 5, 6, 7, 8, 9, 10, 11, 12, 13, 14, 15, 16, 17, 18, 19, 20, 21, 22, 23, 24, 25, 26, 27, 28, 29, 30, 31, 32, 33, 34, 35, 36, 37, 38, 39, 40, 41, 42, 43, 44, 45, 46, 47, 48, 49, 50, 51, 52, 53, 54, 55, 56, 57, 58, 59, 60, 61, 62, 63, 64, 65, 66, 67, 68, 69, 70, 71, 72, 73, 74, 75, 76, 77, 78, 79, 80, 81, 82, 83, 84, 85, 86, 87, 88, 89, 90, 91, 92, 93, 94, 95, 96, 97, 98, 99, 100, 101, 102, 103, 104, 105, 106, 107, 108, 109, 110, 111, 112, 113, 114, 115, 116, 117, 118, 119, 120, 121, 122, 123, 124, 125, 126, 127, 128, 129, 130, 131, 132, 133, 134, 135, 136, 137, 138, 139, 140, 141, 142, 143, 144, 145, 146, 147, 148, 149, 150, 151, 152, 153, 154, 155, 156, 157, 158, 159, 160, 161, 162, 163, 164, 165, 166, 167, 168, 169, 170, 171, 172, 173, 174, 175, 176, 177, 178, 179, 180, 181, 182, 183, 184, 185, 186, 187, 188, 189, 190, 191, 192, 193, 194, 195, 196, 197, 198, 199, 200],
      "AcquisitionTime": ["120011.530000", "120013.530000", "120015.530000", "120017.530000", "120019.530000", "120021.530000", "120023.530000", "120025.530000", "120027.530000", "120029.530000", "120031.530000", "120033.530000", "120035.530000", "120037.530000", "120039.530000", "120041.530000", "120043.530000", "120045.530000", "120047.530000", "120049.530000", "120051.530000", "120053.530000", "120055.530000", "120057.530000", "120059.530000", "120101.530000", "120103.530000", "120105.530000", "120107.530000", "120109.530000", "120111.530000", "120113.530000", "120115.530000", "120117.530000", "120119.530000", "120121.530000", "120123.530000", "120125.530000", "120127.530000", "120129.530000", "120131.530000", "120133.530000", "120135.530000", "120137.530000", "120139.530000", "120141.530000", "120143.530000", "120145.530000", "120147.530000", "120149.530000", "120151.530000", "120153.530000", "120155.530000", "120157.530000", "120159.530000", "120201.530000", "120203.530000", "120205.530000", "120207.530000", "120209.530000", "120211.530000", "120213.530000", "120215.530000", "120217.530000", "120219.530000", "120221.530000", "120223.530000", "120225.530000", "120227.530000", "120229.530000", "120231.530000", "120233.530000", "120235.530000", "120237.530000", "120239.530000", "120241.530000", "120243.530000", "120245.530000", "120247.530000", "120249.530000", "120251.530000", "120253.530000", "120255.530000", "120257.530000", "120259.530000", "120301.530000", "120303.530000", "120305.530000", "120307.530000", "120309.530000", "120311.530000", "120313.530000", "120315.530000", "120317.530000", "120319.530000", "120321.530000", "120323.530000", "120325.530000", "120327.530000", "120329.530000", "120331.530000", "120333.530000", "120335.530000", "120337.530000", "120339.530000", "120341.530000", "120343.530000", "120345.530000", "120347.530000", "120349.530000", "120351.530000", "120353.530000", "120355.530000", "120357.530000", "120359.530000", "120401.530000", "120403.530000", "120405.530000", "120407.530000", "120409.530000", "120411.530000", "120413.530000", "120415.530000", "120417.530000", "120419.530000", "120421.530000", "120423.530000", "120425.530000", "120427.530000", "120429.530000", "120431.530000", "120433.530000", "120435.530000", "120437.530000", "120439.530000", "120441.530000", "120443.530000", "120445.530000", "120447.530000", "120449.530000", "120451.530000", "120453.530000", "120455.530000", "120457.530000", "120459.530000", "120501.530000", "120503.530000", "120505.530000", "120507.530000", "120509.530000", "120511.530000", "120513.530000", "120515.530000", "120517.530000", "120519.530000", "120521.530000", "120523.530000", "120525.530000", "120527.530000", "120529.530000", "120531.530000", "120533.530000", "120535.530000", "120537.530000", "120539.530000", "120541.530000", "120543.530000", "120545.530000", "120547.530000", "120549.530000", "120551.530000", "120553.530000", "120555.530000", "120557.530000", "120559.530000", "120601.530000", "120603.530000", "120605.530000", "120607.530000", "120609.530000", "120611.530000", "120613.530000", "120615.530000", "120617.530000", "120619.530000", "120621.530000", "120623.530000", "120625.530000", "120627.530000", "120629.530000", "120631.530000", "120633.530000", "120635.530000", "120637.530000", "120639.530000", "120641.530000", "120643.530000", "120645.530000", "120647.530000", "120649.530000"],
      "ContentTime": ["120109.769000", "120109.773000", "120109.775000", "120109.778000", "120109.780000", "120109.783000", "120109.786000", "120109.788000", "120109.791000", "120109.793000", "120109.796000", "120109.798000", "120109.801000", "120109.803000", "120109.806000", "120109.809000", "120109.811000", "120109.814000", "120109.816000", "120109.819000", "120109.821000", "120109.824000", "120109.826000", "120109.829000", "120109.832000", "120109.845000", "120109.847000", "120109.850000", "120109.852000", "120149.764000", "120149.772000", "120149.775000", "120149.777000", "120149.787000", "120149.789000", "120149.792000", "120149.800000", "120149.805000", "120149.808000", "120149.810000", "120149.817000", "120149.819000", "120149.822000", "120149.824000", "120149.827000", "120149.830000", "120149.832000", "120149.835000", "120149.838000", "120229.764000", "120229.767000", "120229.770000", "120229.772000", "120229.775000", "120229.778000", "120229.780000", "120229.783000", "120229.800000", "120229.803000", "120229.805000", "120229.808000", "120229.810000", "120229.813000", "120229.815000", "120229.818000", "120229.821000", "120229.823000", "120229.826000", "120229.828000", "120309.764000", "120309.767000", "120309.770000", "120309.772000", "120309.775000", "120309.778000", "120309.780000", "120309.783000", "120309.786000", "120309.788000", "120309.791000", "120309.793000", "120309.796000", "120309.798000", "120309.801000", "120309.811000", "120309.814000", "120309.816000", "120309.824000", "120309.826000", "120349.764000", "120349.767000", "120349.770000", "120349.772000", "120349.775000", "120349.778000", "120349.780000", "120349.783000", "120349.785000", "120349.788000", "120349.791000", "120349.793000", "120349.796000", "120349.798000", "120349.801000", "120349.803000", "120349.806000", "120349.809000", "120349.811000", "120349.814000", "120429.763000", "120429.766000", "120429.769000", "120429.771000", "120429.774000", "120429.777000", "120429.779000", "120429.782000", "120429.785000", "120429.787000", "120429.790000", "120429.792000", "120429.795000", "120429.797000", "120429.800000", "120429.802000", "120429.805000", "120429.808000", "120429.810000", "120429.813000", "120509.765000", "120509.768000", "120509.770000", "120509.773000", "120509.775000", "120509.778000", "120509.780000", "120509.783000", "120509.786000", "120509.788000", "120509.791000", "120509.793000", "120509.796000", "120509.799000", "120509.801000", "120509.804000", "120509.806000", "120509.809000", "120509.812000", "120509.814000", "120549.764000", "120549.767000", "120549.770000", "120549.772000", "120549.775000", "120549.778000", "120549.780000", "120549.783000", "120549.786000", "120549.788000", "120549.791000", "120549.793000", "120549.796000", "120549.798000", "120549.801000", "120549.803000", "120549.806000", "120549.809000", "120549.811000", "120549.814000", "120629.763000", "120629.766000", "120629.769000", "120629.771000", "120629.774000", "120629.777000", "120629.779000", "120629.782000", "120629.785000", "120629.787000", "120629.790000", "120629.792000", "120629.795000", "120629.797000", "120629.800000", "120629.802000", "120629.805000", "120629.808000", "120629.810000", "120629.813000", "120651.249000", "120651.252000", "120651.254000", "120651.257000", "120651.260000", "120651.262000", "120651.265000", "120651.268000", "120651.270000", "120651.273000", "120651.275000"],
      "InstanceCreationTime": ["120109.769000", "120109.773000", "120109.775000", "120109.778000", "120109.780000", "120109.783000", "120109.786000", "120109.788000", "120109.791000", "120109.793000", "120109.796000", "120109.798000", "120109.801000", "120109.803000", "120109.806000", "120109.809000", "120109.811000", "120109.814000", "120109.816000", "120109.819000", "120109.821000", "120109.824000", "120109.826000", "120109.829000", "120109.832000", "120109.845000", "120109.847000", "120109.850000", "120109.852000", "120149.764000", "120149.772000", "120149.775000", "120149.777000", "120149.787000", "120149.789000", "120149.792000", "120149.800000", "120149.805000", "120149.808000", "120149.810000", "120149.817000", "120149.819000", "120149.822000", "120149.824000", "120149.827000", "120149.830000", "120149.832000", "120149.835000", "120149.838000", "120229.764000", "120229.767000", "120229.770000", "120229.772000", "120229.775000", "120229.778000", "120229.780000", "120229.783000", "120229.800000", "120229.803000", "120229.805000", "120229.808000", "120229.810000", "120229.813000", "120229.815000", "120229.818000", "120229.821000", "120229.823000", "120229.826000", "120229.828000", "120309.764000", "120309.767000", "120309.770000", "120309.772000", "120309.775000", "120309.778000", "120309.780000", "120309.783000", "120309.786000", "120309.788000", "120309.791000", "120309.793000", "120309.796000", "120309.798000", "120309.801000", "120309.811000", "120309.814000", "120309.816000", "120309.824000", "120309.826000", "120349.764000", "120349.767000", "120349.770000", "120349.772000", "120349.775000", "120349.778000", "120349.780000", "120349.783000", "120349.785000", "120349.788000", "120349.791000", "120349.793000", "120349.796000", "120349.798000", "120349.801000", "120349.803000", "120349.806000", "120349.809000", "120349.811000", "120349.814000", "120429.763000", "120429.766000", "120429.769000", "120429.771000", "120429.774000", "120429.777000", "120429.779000", "120429.782000", "120429.785000", "120429.787000", "120429.790000", "120429.792000", "120429.795000", "120429.797000", "120429.800000", "120429.802000", "120429.805000", "120429.808000", "120429.810000", "120429.813000", "120509.765000", "120509.768000", "120509.770000", "120509.773000", "120509.775000", "120509.778000", "120509.780000", "120509.783000", "120509.786000", "120509.788000", "120509.791000", "120509.793000", "120509.796000", "120509.799000", "120509.801000", "120509.804000", "120509.806000", "120509.809000", "120509.812000", "120509.814000", "120549.764000", "120549.767000", "120549.770000", "120549.772000", "120549.775000", "120549.778000", "120549.780000", "120549.783000", "120549.786000", "120549.788000", "120549.791000", "120549.793000", "120549.796000", "120549.798000", "120549.801000", "120549.803000", "120549.806000", "120549.809000", "120549.811000", "120549.814000", "120629.763000", "120629.766000", "120629.769000", "120629.771000", "120629.774000", "120629.777000", "120629.779000", "120629.782000", "120629.785000", "120629.787000", "120629.790000", "120629.792000", "120629.795000", "120629.797000", "120629.800000", "120629.802000", "120629.805000", "120629.808000", "120629.810000", "120629.813000", "120651.249000", "120651.252000", "120651.254000", "120651.257000", "120651.260000", "120651.262000", "120651.265000", "120651.268000", "120651.270000", "120651.273000", "120651.275000"],
      "InstanceNumber": [1, 2, 3, 4, 5, 6, 7, 8, 9, 10, 11, 12, 13, 14, 15, 16, 17, 18, 19, 20, 21, 22, 23, 24, 25, 26, 27, 28, 29, 30, 31, 32, 33, 34, 35, 36, 37, 38, 39, 40, 41, 42, 43, 44, 45, 46, 47, 48, 49, 50, 51, 52, 53, 54, 55, 56, 57, 58, 59, 60, 61, 62, 63, 64, 65, 66, 67, 68, 69, 70, 71, 72, 73, 74, 75, 76, 77, 78, 79, 80, 81, 82, 83, 84, 85, 86, 87, 88, 89, 90, 91, 92, 93, 94, 95, 96, 97, 98, 99, 100, 101, 102, 103, 104, 105, 106, 107, 108, 109, 110, 111, 112, 113, 114, 115, 116, 117, 118, 119, 120, 121, 122, 123, 124, 125, 126, 127, 128, 129, 130, 131, 132, 133, 134, 135, 136, 137, 138, 139, 140, 141, 142, 143, 144, 145, 146, 147, 148, 149, 150, 151, 152, 153, 154, 155, 156, 157, 158, 159, 160, 161, 162, 163, 164, 165, 166, 167, 168, 169, 170, 171, 172, 173, 174, 175, 176, 177, 178, 179, 180, 181, 182, 183, 184, 185, 186, 187, 188, 189, 190, 191, 192, 193, 194, 195, 196, 197, 198, 199, 200],
      "WindowCenter": [1481.0, 1481.0, 1482.0, 1481.0, 1481.0, 1481.0, 1481.0, 1481.0, 1481.0, 1481.0, 1481.0, 1481.0, 1481.0, 1481.0, 1481.0, 1481.0, 1481.0, 1481.0, 1480.0, 1480.0, 1481.0, 1481.0, 1481.0, 1481.0, 1481.0, 1481.0, 1480.0, 1480.0, 1480.0, 1481.0, 1480.0, 1480.0, 1481.0, 1480.0, 1479.0, 1480.0, 1480.0, 1480.0, 1481.0, 1480.0, 1480.0, 1480.0, 1480.0, 1480.0, 1480.0, 1480.0, 1480.0, 1480.0, 1479.0, 1479.0, 1479.0, 1480.0, 1479.0, 1479.0, 1480.0, 1480.0, 1480.0, 1480.0, 1480.0, 1479.0, 1480.0, 1479.0, 1479.0, 1479.0, 1479.0, 1479.0, 1479.0, 1479.0, 1479.0, 1479.0, 1480.0, 1479.0, 1479.0, 1479.0, 1479.0, 1479.0, 1479.0, 1479.0, 1478.0, 1479.0, 1478.0, 1478.0, 1478.0, 1478.0, 1479.0, 1479.0, 1479.0, 1479.0, 1478.0, 1479.0, 1479.0, 1478.0, 1479.0, 1479.0, 1479.0, 1479.0, 1477.0, 1478.0, 1478.0, 1478.0, 1478.0, 1479.0, 1479.0, 1478.0, 1478.0, 1478.0, 1478.0, 1478.0, 1478.0, 1478.0, 1478.0, 1479.0, 1478.0, 1478.0, 1478.0, 1477.0, 1477.0, 1477.0, 1478.0, 1477.0, 1478.0, 1477.0, 1477.0, 1477.0, 1478.0, 1477.0, 1478.0, 1477.0, 1478.0, 1477.0, 1477.0, 1478.0, 1477.0, 1477.0, 1477.0, 1478.0, 1478.0, 1477.0, 1477.0, 1477.0, 1477.0, 1477.0, 1477.0, 1477.0, 1477.0, 1477.0, 1477.0, 1477.0, 1477.0, 1477.0, 1477.0, 1477.0, 1477.0, 1477.0, 1477.0, 1477.0, 1476.0, 1476.0, 1476.0, 1476.0, 1477.0, 1476.0, 1477.0, 1477.0, 1476.0, 1477.0, 1476.0, 1477.0, 1477.0, 1476.0, 1476.0, 1477.0, 1476.0, 1477.0, 1476.0, 1476.0, 1475.0, 1476.0, 1477.0, 1476.0, 1476.0, 1476.0, 1475.0, 1476.0, 1476.0, 1476.0, 1476.0, 1476.0, 1476.0, 1476.0, 1476.0, 1476.0, 1476.0, 1475.0, 1475.0, 1475.0, 1476.0, 1476.0, 1476.0, 1475.0],
      "WindowWidth": [3437.0, 3438.0, 3438.0, 3438.0, 3438.0, 3437.0, 3437.0, 3437.0, 3437.0, 3437.0, 3437.0, 3437.0, 3437.0, 3437.0, 3437.0, 3437.0, 3437.0, 3437.0, 3437.0, 3437.0, 3437.0, 3437.0, 3437.0, 3437.0, 3437.0, 3437.0, 3437.0, 3437.0, 3437.0, 3437.0, 3437.0, 3437.0, 3437.0, 3437.0, 3437.0, 3437.0, 3437.0, 3437.0, 3436.0, 3436.0, 3436.0, 3436.0, 3436.0, 3436.0, 3437.0, 3436.0, 3436.0, 3436.0, 3436.0, 3436.0, 3436.0, 3436.0, 3436.0, 3436.0, 3436.0, 3436.0, 3436.0, 3436.0, 3436.0, 3436.0, 3436.0, 3436.0, 3436.0, 3436.0, 3436.0, 3436.0, 3436.0, 3436.0, 3436.0, 3436.0, 3435.0, 3436.0, 3436.0, 3436.0, 3436.0, 3436.0, 3436.0, 3436.0, 3436.0, 3436.0, 3436.0, 3436.0, 3435.0, 3436.0, 3435.0, 3435.0, 3435.0, 3435.0, 3435.0, 3435.0, 3435.0, 3435.0, 3435.0, 3435.0, 3435.0, 3435.0, 3435.0, 3435.0, 3435.0, 3435.0, 3435.0, 3435.0, 3435.0, 3435.0, 3435.0, 3435.0, 3435.0, 3435.0, 3435.0, 3435.0, 3435.0, 3435.0, 3435.0, 3435.0, 3434.0, 3435.0, 3435.0, 3435.0, 3435.0, 3435.0, 3435.0, 3435.0, 3435.0, 3435.0, 3434.0, 3435.0, 3434.0, 3435.0, 3435.0, 3435.0, 3435.0, 3434.0, 3434.0, 3434.0, 3434.0, 3434.0, 3434.0, 3434.0, 3434.0, 3434.0, 3434.0, 3434.0, 3434.0, 3434.0, 3434.0, 3434.0, 3434.0, 3434.0, 3434.0, 3434.0, 3434.0, 3434.0, 3434.0, 3434.0, 3434.0, 3434.0, 3434.0, 3434.0, 3434.0, 3434.0, 3433.0, 3434.0, 3433.0, 3433.0, 3434.0, 3434.0, 3434.0, 3433.0, 3434.0, 3434.0, 3434.0, 3433.0, 3434.0, 3433.0, 3434.0, 3434.0, 3434.0, 3433.0, 3433.0, 3434.0, 3433.0, 3433.0, 3434.0, 3433.0, 3433.0, 3433.0, 3433.0, 3434.0, 3433.0, 3433.0, 3433.0, 3433.0, 3433.0, 3433.0, 3433.0, 3433.0, 3433.0, 3433.0, 3433.0, 3433.0]
    },
    "slices": {}
  }
}