{
  "AcquisitionMatrixPE": 80,
  "AcquisitionNumber": 1,
  "AcquisitionTime": "11:53:22.850000",
  "BandwidthPerPixelPhaseEncode": 48.077,
  "BaseResolution": 80,
  "BodyPartExamined": "BRAIN",
  "CoilCombinationMethod": "Sum of Squares",
  "ConsistencyInfo": "N4_VE11C_LATEST_20160120",
  "ConversionSoftware": "dcm2niix",
  "ConversionSoftwareVersion": "v1.0.20220720",
  "DerivedVendorReportedEchoSpacing": 0.000519999,
  "DeviceSerialNumber": "66112",
  "DwellTime": 2.7e-06,
  "EchoTime": 0.035,
  "EchoTrainLength": 39,
  "EffectiveEchoSpacing": 0.00026,
  "FlipAngle": 90,
  "HeudiconvVersion": "0.13.1",
  "ImageOrientationPatientDICOM": [0.987926, -0.154489, -0.0116241, 0.150645, 0.940404, 0.304871],
  "ImageOrientationText": "Tra>Cor(17.6)>Sag(2.1)",
  "ImageType": [
    "ORIGINAL",
    "PRIMARY",
    "M",
    "ND",
    "NORM",
    "MOSAIC"
],
  "ImagingFrequency": 123.252,
  "InPlanePhaseEncodingDirectionDICOM": "COL",
  "InstitutionAddress": "Maynard 3,Hanover,NH,US,03755",
  "InstitutionName": "Dartmouth College - PBS",
  "InstitutionalDepartmentName": "Department",
  "MRAcquisitionType": "2D",
  "MagneticFieldStrength": 3,
  "Manufacturer": "Siemens",
  "ManufacturersModelName": "Prisma",
  "MatrixCoilMode": "GRAPPA",
  "Modality": "MR",
  "NonlinearGradientCorrection": false,
  "ParallelReductionFactorInPlane": 2,
  "PartialFourier": 1,
  "PatientPosition": "HFS",
  "PercentPhaseFOV": 100,
  "PercentSampling": 100,
  "PhaseEncodingDirection": "j-",
  "PhaseEncodingSteps": 79,
  "PhaseResolution": 1,
  "PixelBandwidth": 2315,
  "ProcedureStepDescription": "dbic^QA",
  "ProtocolName": "func-bold_task-rest_acq-p2",
  "PulseSequenceDetails": "%SiemensSeq%\\ep2d_bold",
  "ReceiveCoilActiveElements": "HC1-7;NC1,2",
  "ReceiveCoilName": "HeadNeck_64",
  "ReconMatrixPE": 80,
  "RefLinesPE": 24,
  "RepetitionTime": 2,
  "SAR": 0.0337949,
  "ScanOptions": "FS",
  "ScanningSequence": "EP",
  "SequenceName": "*epfid2d1_80",
  "SequenceVariant": "SK",
  "SeriesDescription": "func-bold_task-rest_acq-p2",
  "SeriesNumber": 5,
  "ShimSetting": [4142, -7667, -7511, 232, -92, -389, -21, 110],
  "SliceThickness": 3.5,
  "SliceTiming": [0.99, 0, 1.055, 0.065, 1.12, 0.13, 1.1875, 0.1975, 1.2525, 0.2625, 1.32, 0.33, 1.385, 0.395, 1.45, 0.46, 1.5175, 0.5275, 1.5825, 0.5925, 1.65, 0.66, 1.715, 0.725, 1.78, 0.79, 1.8475, 0.8575, 1.9125, 0.9225],
  "SoftwareVersions": "syngo MR E11",
  "SpacingBetweenSlices": 3.99,
  "StationName": "AWP66112",
  "TaskName": "rest",
  "TotalReadoutTime": 0.02054,
  "TxRefAmp": 220.802,
  "dcmmeta_affine": [
    [-2.963778495788574, 0.4519338011741638, 0.14430958032608032, 98.06941223144531],
    [0.4634663760662079, 2.8212122917175293, 1.2087349891662598, -128.51222229003906],
    [-0.03487223759293556, -0.914612889289856, 3.7997677326202393, -44.51509475708008],
    [0.0, 0.0, 0.0, 1.0]
],
  "dcmmeta_reorient_transform": [
    [0.0, -1.0, 0.0, 79.0],
    [1.0, 0.0, 0.0, 0.0],
    [0.0, 0.0, 1.0, 0.0],
    [0.0, 0.0, 0.0, 1.0]
],
  "dcmmeta_shape": [80, 80, 30, 200],
  "dcmmeta_slice_dim": 2,
  "dcmmeta_version": 0.6,
  "global": {
    "const": {
      "AccessionNumber": "qa64",
      "AcquisitionMatrix": [80, 0, 0, 80],
      "AngioFlag": "N",
      "BitsAllocated": 16,
      "BitsStored": 12,
      "BodyPartExamined": "BRAIN",
      "Columns": 480,
      "EchoNumbers": 1,
      "EchoTime": 35.0,
      "EchoTrainLength": 39,
      "FlipAngle": 90.0,
      "HighBit": 11,
      "ImageOrientationPatient": [0.98792615845834, -0.1544887899367, -0.0116240792175, 0.15064459707696, 0.94040411538706, 0.30487096472869],
      "ImagePositionPatient": [-816.91463433309, -565.91274562685, -292.71764495819],
      "ImageType": [
        "ORIGINAL",
        "PRIMARY",
        "M",
        "ND",
        "NORM",
        "MOSAIC"
],
      "ImagedNucleus": "1H",
      "ImagingFrequency": 123.252357,
      "InPlanePhaseEncodingDirection": "COL",
      "LargestImagePixelValue": 4095,
      "MRAcquisitionType": "2D",
      "MagneticFieldStrength": 3.0,
      "Manufacturer": "SIEMENS",
      "ManufacturerModelName": "Prisma",
      "Modality": "MR",
      "NumberOfAverages": 1.0,
      "NumberOfPhaseEncodingSteps": 79,
      "PercentPhaseFieldOfView": 100.0,
      "PercentSampling": 100.0,
      "PerformedProcedureStepStartTime": "114446.587000",
      "PhotometricInterpretation": "MONOCHROME2",
      "PixelBandwidth": 2315.0,
      "PixelRepresentation": 0,
      "PixelSpacing": [3.0, 3.0],
      "ProtocolName": "func-bold_task-rest_acq-p2",
      "RepetitionTime": 2000.0,
      "Rows": 480,
      "SAR": 0.03379488417897,
      "SamplesPerPixel": 1,
      "ScanOptions": "FS",
      "ScanningSequence": "EP",
      "SequenceName": "*epfid2d1_80",
      "SequenceVariant": "SK",
      "SeriesDescription": "func-bold_task-rest_acq-p2",
      "SeriesNumber": 5,
      "SeriesTime": "115409.696000",
      "SliceLocation": -77.777415913439,
      "SliceThickness": 3.5,
      "SmallestImagePixelValue": 0,
      "SoftwareVersions": "syngo MR E11",
      "SpacingBetweenSlices": 3.9900000044846,
      "SpecificCharacterSet": "ISO_IR 100",
      "StudyID": "4",
      "StudyTime": "114446.533000",
      "TransmitCoilName": "Body",
      "VariableFlipAngleFlag": "N",
      "WindowCenterWidthExplanation": "Algo1",
      "dBdt": 0.0},
    "slices": {}
  },
  "time": {
    "samples": {
      "AcquisitionNumber": [1, 2, 3, 4, 5, 6, 7, 8, 9, 10, 11, 12, 13, 14, 15, 16, 17, 18, 19, 20, 21, 22, 23, 24, 25, 26, 27, 28, 29, 30, 31, 32, 33, 34, 35, 36, 37, 38, 39, 40, 41, 42, 43, 44, 45, 46, 47, 48, 49, 50, 51, 52, 53, 54, 55, 56, 57, 58, 59, 60, 61, 62, 63, 64, 65, 66, 67, 68, 69, 70, 71, 72, 73, 74, 75, 76, 77, 78, 79, 80, 81, 82, 83, 84, 85, 86, 87, 88, 89, 90, 91, 92, 93, 94, 95, 96, 97, 98, 99, 100, 101, 102, 103, 104, 105, 106, 107, 108, 109, 110, 111, 112, 113, 114, 115, 116, 117, 118, 119, 120, 121, 122, 123, 124, 125, 126, 127, 128, 129, 130, 131, 132, 133, 134, 135, 136, 137, 138, 139, 140, 141, 142, 143, 144, 145, 146, 147, 148, 149, 150, 151, 152, 153, 154, 155, 156, 157, 158, 159, 160, 161, 162, 163, 164, 165, 166, 167, 168, 169, 170, 171, 172, 173, 174, 175, 176, 177, 178, 179, 180, 181, 182, 183, 184, 185, 186, 187, 188, 189, 190, 191, 192, 193, 194, 195, 196, 197, 198, 199, 200],
      "AcquisitionTime": ["115322.850000", "115324.850000", "115326.850000", "115328.850000", "115330.850000", "115332.850000", "115334.850000", "115336.850000", "115338.850000", "115340.850000", "115342.850000", "115344.850000", "115346.850000", "115348.850000", "115350.850000", "115352.850000", "115354.850000", "115356.850000", "115358.850000", "115400.850000", "115402.850000", "115404.850000", "115406.850000", "115408.850000", "115410.850000", "115412.850000", "115414.850000", "115416.850000", "115418.850000", "115420.850000", "115422.850000", "115424.850000", "115426.850000", "115428.850000", "115430.850000", "115432.850000", "115434.850000", "115436.850000", "115438.850000", "115440.850000", "115442.850000", "115444.850000", "115446.850000", "115448.850000", "115450.850000", "115452.850000", "115454.850000", "115456.850000", "115458.850000", "115500.850000", "115502.850000", "115504.850000", "115506.850000", "115508.850000", "115510.850000", "115512.850000", "115514.850000", "115516.850000", "115518.850000", "115520.850000", "115522.850000", "115524.850000", "115526.850000", "115528.850000", "115530.850000", "115532.850000", "115534.850000", "115536.850000", "115538.850000", "115540.850000", "115542.850000", "115544.850000", "115546.850000", "115548.850000", "115550.850000", "115552.850000", "115554.850000", "115556.850000", "115558.850000", "115600.850000", "115602.850000", "115604.850000", "115606.850000", "115608.850000", "115610.850000", "115612.850000", "115614.850000", "115616.850000", "115618.850000", "115620.850000", "115622.850000", "115624.850000", "115626.850000", "115628.850000", "115630.850000", "115632.850000", "115634.850000", "115636.850000", "115638.850000", "115640.850000", "115642.850000", "115644.850000", "115646.850000", "115648.850000", "115650.850000", "115652.850000", "115654.850000", "115656.850000", "115658.850000", "115700.850000", "115702.850000", "115704.850000", "115706.850000", "115708.850000", "115710.850000", "115712.850000", "115714.850000", "115716.850000", "115718.850000", "115720.850000", "115722.850000", "115724.850000", "115726.850000", "115728.850000", "115730.850000", "115732.850000", "115734.850000", "115736.850000", "115738.850000", "115740.850000", "115742.850000", "115744.850000", "115746.850000", "115748.850000", "115750.850000", "115752.850000", "115754.850000", "115756.850000", "115758.850000", "115800.850000", "115802.850000", "115804.850000", "115806.850000", "115808.850000", "115810.850000", "115812.850000", "115814.850000", "115816.850000", "115818.850000", "115820.850000", "115822.850000", "115824.850000", "115826.850000", "115828.850000", "115830.850000", "115832.850000", "115834.850000", "115836.850000", "115838.850000", "115840.850000", "115842.850000", "115844.850000", "115846.850000", "115848.850000", "115850.850000", "115852.850000", "115854.850000", "115856.850000", "115858.850000", "115900.850000", "115902.850000", "115904.850000", "115906.850000", "115908.850000", "115910.850000", "115912.850000", "115914.850000", "115916.850000", "115918.850000", "115920.850000", "115922.850000", "115924.850000", "115926.850000", "115928.850000", "115930.850000", "115932.850000", "115934.850000", "115936.850000", "115938.850000", "115940.850000", "115942.850000", "115944.850000", "115946.850000", "115948.850000", "115950.850000", "115952.850000", "115954.850000", "115956.850000", "115958.850000", "120000.850000"],
      "ContentTime": ["115409.699000", "115409.703000", "115409.705000", "115409.708000", "115409.711000", "115409.726000", "115409.728000", "115409.731000", "115409.733000", "115409.736000", "115409.739000", "115409.741000", "115409.744000", "115409.746000", "115409.749000", "115409.752000", "115409.754000", "115409.757000", "115409.759000", "115409.762000", "115409.765000", "115409.768000", "115409.770000", "115449.693000", "115449.696000", "115449.699000", "115449.702000", "115449.704000", "115449.707000", "115449.710000", "115449.712000", "115449.715000", "115449.718000", "115449.720000", "115449.723000", "115449.725000", "115449.728000", "115449.731000", "115449.733000", "115449.736000", "115449.739000", "115449.741000", "115449.744000", "115529.695000", "115529.697000", "115529.700000", "115529.703000", "115529.705000", "115529.708000", "115529.710000", "115529.713000", "115529.715000", "115529.718000", "115529.721000", "115529.723000", "115529.726000", "115529.728000", "115529.731000", "115529.733000", "115529.736000", "115529.738000", "115529.741000", "115529.744000", "115609.694000", "115609.697000", "115609.700000", "115609.703000", "115609.705000", "115609.708000", "115609.710000", "115609.713000", "115609.716000", "115609.718000", "115609.721000", "115609.724000", "115609.726000", "115609.729000", "115609.731000", "115609.734000", "115609.737000", "115609.739000", "115609.742000", "115609.744000", "115649.695000", "115649.698000", "115649.700000", "115649.703000", "115649.706000", "115649.708000", "115649.711000", "115649.713000", "115649.716000", "115649.718000", "115649.721000", "115649.723000", "115649.726000", "115649.729000", "115649.731000", "115649.734000", "115649.736000", "115649.739000", "115649.742000", "115649.744000", "115729.693000", "115729.696000", "115729.699000", "115729.701000", "115729.704000", "115729.707000", "115729.709000", "115729.712000", "115729.714000", "115729.717000", "115729.720000", "115729.722000", "115729.725000", "115729.727000", "115729.730000", "115729.732000", "115729.735000", "115729.737000", "115729.740000", "115729.742000", "115809.694000", "115809.697000", "115809.700000", "115809.702000", "115809.705000", "115809.708000", "115809.710000", "115809.713000", "115809.715000", "115809.718000", "115809.720000", "115809.723000", "115809.726000", "115809.728000", "115809.731000", "115809.733000", "115809.736000", "115809.738000", "115809.741000", "115809.743000", "115849.694000", "115849.697000", "115849.700000", "115849.702000", "115849.705000", "115849.708000", "115849.710000", "115849.713000", "115849.715000", "115849.718000", "115849.720000", "115849.739000", "115849.742000", "115849.744000", "115849.747000", "115849.749000", "115849.752000", "115849.754000", "115849.757000", "115849.759000", "115929.693000", "115929.696000", "115929.699000", "115929.701000", "115929.704000", "115929.706000", "115929.709000", "115929.712000", "115929.714000", "115929.717000", "115929.719000", "115929.722000", "115929.725000", "115929.727000", "115929.730000", "115929.732000", "115929.735000", "115929.737000", "115929.740000", "115929.742000", "115949.694000", "115949.696000", "115949.699000", "115949.702000", "115949.704000", "115949.707000", "115949.709000", "115949.712000", "115949.714000", "115949.717000", "120002.284000", "120002.287000", "120002.289000", "120002.292000", "120002.295000", "120002.297000", "120002.300000"],
      "InstanceCreationTime": ["115409.699000", "115409.703000", "115409.705000", "115409.708000", "115409.711000", "115409.726000", "115409.728000", "115409.731000", "115409.733000", "115409.736000", "115409.739000", "115409.741000", "115409.744000", "115409.746000", "115409.749000", "115409.752000", "115409.754000", "115409.757000", "115409.759000", "115409.762000", "115409.765000", "115409.768000", "115409.770000", "115449.693000", "115449.696000", "115449.699000", "115449.702000", "115449.704000", "115449.707000", "115449.710000", "115449.712000", "115449.715000", "115449.718000", "115449.720000", "115449.723000", "115449.725000", "115449.728000", "115449.731000", "115449.733000", "115449.736000", "115449.739000", "115449.741000", "115449.744000", "115529.695000", "115529.697000", "115529.700000", "115529.703000", "115529.705000", "115529.708000", "115529.710000", "115529.713000", "115529.715000", "115529.718000", "115529.721000", "115529.723000", "115529.726000", "115529.728000", "115529.731000", "115529.733000", "115529.736000", "115529.738000", "115529.741000", "115529.744000", "115609.694000", "115609.697000", "115609.700000", "115609.703000", "115609.705000", "115609.708000", "115609.710000", "115609.713000", "115609.716000", "115609.718000", "115609.721000", "115609.724000", "115609.726000", "115609.729000", "115609.731000", "115609.734000", "115609.737000", "115609.739000", "115609.742000", "115609.744000", "115649.695000", "115649.698000", "115649.700000", "115649.703000", "115649.706000", "115649.708000", "115649.711000", "115649.713000", "115649.716000", "115649.718000", "115649.721000", "115649.723000", "115649.726000", "115649.729000", "115649.731000", "115649.734000", "115649.736000", "115649.739000", "115649.742000", "115649.744000", "115729.693000", "115729.696000", "115729.699000", "115729.701000", "115729.704000", "115729.707000", "115729.709000", "115729.712000", "115729.714000", "115729.717000", "115729.720000", "115729.722000", "115729.725000", "115729.727000", "115729.730000", "115729.732000", "115729.735000", "115729.737000", "115729.740000", "115729.742000", "115809.694000", "115809.697000", "115809.700000", "115809.702000", "115809.705000", "115809.708000", "115809.710000", "115809.713000", "115809.715000", "115809.718000", "115809.720000", "115809.723000", "115809.726000", "115809.728000", "115809.731000", "115809.733000", "115809.736000", "115809.738000", "115809.741000", "115809.743000", "115849.694000", "115849.697000", "115849.700000", "115849.702000", "115849.705000", "115849.708000", "115849.710000", "115849.713000", "115849.715000", "115849.718000", "115849.720000", "115849.739000", "115849.742000", "115849.744000", "115849.747000", "115849.749000", "115849.752000", "115849.754000", "115849.757000", "115849.759000", "115929.693000", "115929.696000", "115929.699000", "115929.701000", "115929.704000", "115929.706000", "115929.709000", "115929.712000", "115929.714000", "115929.717000", "115929.719000", "115929.722000", "115929.725000", "115929.727000", "115929.730000", "115929.732000", "115929.735000", "115929.737000", "115929.740000", "115929.742000", "115949.694000", "115949.696000", "115949.699000", "115949.702000", "115949.704000", "115949.707000", "115949.709000", "115949.712000", "115949.714000", "115949.717000", "120002.284000", "120002.287000", "120002.289000", "120002.292000", "120002.295000", "120002.297000", "120002.300000"],
      "InstanceNumber": [1, 2, 3, 4, 5, 6, 7, 8, 9, 10, 11, 12, 13, 14, 15, 16, 17, 18, 19, 20, 21, 22, 23, 24, 25, 26, 27, 28, 29, 30, 31, 32, 33, 34, 35, 36, 37, 38, 39, 40, 41, 42, 43, 44, 45, 46, 47, 48, 49, 50, 51, 52, 53, 54, 55, 56, 57, 58, 59, 60, 61, 62, 63, 64, 65, 66, 67, 68, 69, 70, 71, 72, 73, 74, 75, 76, 77, 78, 79, 80, 81, 82, 83, 84, 85, 86, 87, 88, 89, 90, 91, 92, 93, 94, 95, 96, 97, 98, 99, 100, 101, 102, 103, 104, 105, 106, 107, 108, 109, 110, 111, 112, 113, 114, 115, 116, 117, 118, 119, 120, 121, 122, 123, 124, 125, 126, 127, 128, 129, 130, 131, 132, 133, 134, 135, 136, 137, 138, 139, 140, 141, 142, 143, 144, 145, 146, 147, 148, 149, 150, 151, 152, 153, 154, 155, 156, 157, 158, 159, 160, 161, 162, 163, 164, 165, 166, 167, 168, 169, 170, 171, 172, 173, 174, 175, 176, 177, 178, 179, 180, 181, 182, 183, 184, 185, 186, 187, 188, 189, 190, 191, 192, 193, 194, 195, 196, 197, 198, 199, 200],
      "WindowCenter": [1571.0, 1570.0, 1569.0, 1569.0, 1569.0, 1569.0, 1568.0, 1567.0, 1568.0, 1568.0, 1568.0, 1567.0, 1567.0, 1568.0, 1568.0, 1568.0, 1567.0, 1567.0, 1567.0, 1567.0, 1567.0, 1566.0, 1567.0, 1567.0, 1567.0, 1567.0, 1567.0, 1567.0, 1566.0, 1567.0, 1567.0, 1567.0, 1566.0, 1566.0, 1566.0, 1566.0, 1566.0, 1567.0, 1566.0, 1566.0, 1566.0, 1566.0, 1566.0, 1566.0, 1566.0, 1565.0, 1566.0, 1565.0, 1565.0, 1566.0, 1565.0, 1566.0, 1566.0, 1566.0, 1566.0, 1566.0, 1566.0, 1566.0, 1566.0, 1565.0, 1566.0, 1565.0, 1565.0, 1566.0, 1565.0, 1565.0, 1565.0, 1565.0, 1565.0, 1565.0, 1565.0, 1565.0, 1566.0, 1565.0, 1565.0, 1565.0, 1565.0, 1564.0, 1565.0, 1565.0, 1565.0, 1564.0, 1565.0, 1564.0, 1565.0, 1563.0, 1564.0, 1565.0, 1564.0, 1564.0, 1564.0, 1563.0, 1564.0, 1564.0, 1564.0, 1564.0, 1564.0, 1564.0, 1564.0, 1564.0, 1564.0, 1564.0, 1564.0, 1564.0, 1564.0, 1565.0, 1563.0, 1565.0, 1564.0, 1564.0, 1563.0, 1564.0, 1563.0, 1564.0, 1563.0, 1563.0, 1563.0, 1563.0, 1564.0, 1563.0, 1563.0, 1564.0, 1563.0, 1563.0, 1564.0, 1563.0, 1563.0, 1562.0, 1564.0, 1563.0, 1563.0, 1563.0, 1563.0, 1563.0, 1563.0, 1563.0, 1563.0, 1563.0, 1563.0, 1563.0, 1563.0, 1563.0, 1563.0, 1563.0, 1563.0, 1562.0, 1562.0, 1563.0, 1562.0, 1563.0, 1563.0, 1562.0, 1562.0, 1562.0, 1562.0, 1562.0, 1563.0, 1561.0, 1563.0, 1562.0, 1562.0, 1562.0, 1563.0, 1562.0, 1561.0, 1563.0, 1561.0, 1561.0, 1561.0, 1562.0, 1562.0, 1562.0, 1561.0, 1561.0, 1562.0, 1561.0, 1561.0, 1561.0, 1562.0, 1561.0, 1561.0, 1562.0, 1561.0, 1560.0, 1561.0, 1561.0, 1560.0, 1561.0, 1561.0, 1560.0, 1561.0, 1561.0, 1561.0, 1560.0, 1561.0, 1560.0, 1560.0, 1560.0, 1560.0, 1560.0],
      "WindowWidth": [3467.0, 3465.0, 3464.0, 3464.0, 3464.0, 3464.0, 3464.0, 3465.0, 3464.0, 3464.0, 3464.0, 3464.0, 3464.0, 3464.0, 3464.0, 3464.0, 3464.0, 3464.0, 3463.0, 3463.0, 3463.0, 3464.0, 3464.0, 3463.0, 3463.0, 3463.0, 3463.0, 3463.0, 3463.0, 3463.0, 3463.0, 3463.0, 3463.0, 3463.0, 3463.0, 3463.0, 3463.0, 3463.0, 3463.0, 3463.0, 3463.0, 3463.0, 3463.0, 3463.0, 3463.0, 3463.0, 3463.0, 3463.0, 3463.0, 3463.0, 3463.0, 3463.0, 3463.0, 3462.0, 3462.0, 3462.0, 3462.0, 3463.0, 3462.0, 3462.0, 3462.0, 3462.0, 3462.0, 3462.0, 3462.0, 3462.0, 3462.0, 3462.0, 3462.0, 3462.0, 3462.0, 3462.0, 3462.0, 3462.0, 3462.0, 3462.0, 3462.0, 3462.0, 3462.0, 3462.0, 3462.0, 3462.0, 3462.0, 3462.0, 3462.0, 3462.0, 3462.0, 3461.0, 3462.0, 3461.0, 3462.0, 3462.0, 3461.0, 3461.0, 3461.0, 3461.0, 3461.0, 3462.0, 3461.0, 3461.0, 3461.0, 3461.0, 3461.0, 3461.0, 3461.0, 3461.0, 3461.0, 3461.0, 3461.0, 3461.0, 3461.0, 3461.0, 3461.0, 3461.0, 3461.0, 3461.0, 3461.0, 3461.0, 3461.0, 3461.0, 3461.0, 3461.0, 3461.0, 3461.0, 3460.0, 3461.0, 3461.0, 3461.0, 3460.0, 3461.0, 3461.0, 3461.0, 3461.0, 3461.0, 3461.0, 3461.0, 3461.0, 3461.0, 3461.0, 3461.0, 3460.0, 3461.0, 3460.0, 3460.0, 3460.0, 3460.0, 3460.0, 3460.0, 3460.0, 3460.0, 3460.0, 3460.0, 3460.0, 3460.0, 3460.0, 3460.0, 3460.0, 3460.0, 3460.0, 3460.0, 3460.0, 3460.0, 3459.0, 3460.0, 3460.0, 3459.0, 3460.0, 3460.0, 3460.0, 3460.0, 3460.0, 3460.0, 3460.0, 3460.0, 3459.0, 3460.0, 3460.0, 3460.0, 3459.0, 3460.0, 3460.0, 3460.0, 3460.0, 3459.0, 3459.0, 3460.0, 3461.0, 3461.0, 3461.0, 3461.0, 3461.0, 3461.0, 3461.0, 3461.0, 3460.0, 3461.0, 3461.0, 3461.0, 3461.0, 3461.0]
    },
    "slices": {}
  }
}