{
  "AcquisitionMatrixPE": 80,
  "AcquisitionNumber": 1,
  "AcquisitionTime": "10:23:40.472500",
  "BandwidthPerPixelPhaseEncode": 25,
  "BaseResolution": 80,
  "BodyPartExamined": "BRAIN",
  "CoilCombinationMethod": "Sum of Squares",
  "ConsistencyInfo": "N4_VE11C_LATEST_20160120",
  "ConversionSoftware": "dcm2niix",
  "ConversionSoftwareVersion": "v1.0.20220720",
  "DerivedVendorReportedEchoSpacing": 0.0005,
  "DeviceSerialNumber": "66112",
  "DwellTime": 2.7e-06,
  "EchoTime": 0.03,
  "EchoTrainLength": 80,
  "EffectiveEchoSpacing": 0.0005,
  "FlipAngle": 10,
  "HeudiconvVersion": "0.13.1",
  "ImageOrientationPatientDICOM": [0.993526, -0.11348, -0.00541715, 0.106002, 0.908788, 0.403569],
  "ImageOrientationText": "Tra>Cor(23.7)>Sag(2.3)",
  "ImageType": [
    "ORIGINAL",
    "PRIMARY",
    "M",
    "ND",
    "NORM",
    "MOSAIC"
],
  "ImagingFrequency": 123.252,
  "InPlanePhaseEncodingDirectionDICOM": "COL",
  "InstitutionAddress": "Maynard 3,Hanover,NH,US,03755",
  "InstitutionName": "Dartmouth College - PBS",
  "InstitutionalDepartmentName": "Department",
  "MRAcquisitionType": "2D",
  "MagneticFieldStrength": 3,
  "Manufacturer": "Siemens",
  "ManufacturersModelName": "Prisma",
  "MatrixCoilMode": "SENSE",
  "Modality": "MR",
  "NonlinearGradientCorrection": false,
  "PartialFourier": 1,
  "PatientPosition": "HFS",
  "PercentPhaseFOV": 100,
  "PercentSampling": 100,
  "PhaseEncodingDirection": "j-",
  "PhaseEncodingSteps": 80,
  "PhaseResolution": 1,
  "PixelBandwidth": 2315,
  "ProcedureStepDescription": "dbic^QA",
  "ProtocolName": "func-bold_fa-10",
  "PulseSequenceDetails": "%SiemensSeq%\\ep2d_bold",
  "ReceiveCoilActiveElements": "HEA;HEP",
  "ReceiveCoilName": "Head_32",
  "ReconMatrixPE": 80,
  "RepetitionTime": 2,
  "SAR": 0.0117211,
  "ScanOptions": "FS",
  "ScanningSequence": "EP",
  "SequenceName": "*epfid2d1_80",
  "SequenceVariant": "SK",
  "SeriesDescription": "func-bold_fa-10",
  "SeriesNumber": 10,
  "ShimSetting": [4155, -7712, -7516, 232, -64, -144, -27, 93],
  "SliceThickness": 3.5,
  "SliceTiming": [0.99, 0, 1.0575, 0.0675, 1.1225, 0.1325, 1.1875, 0.2, 1.255, 0.265, 1.32, 0.33, 1.3875, 0.3975, 1.4525, 0.4625, 1.5175, 0.5275, 1.585, 0.595, 1.65, 0.66, 1.7175, 0.7275, 1.7825, 0.7925, 1.8475, 0.8575, 1.915, 0.925],
  "SoftwareVersions": "syngo MR E11",
  "SpacingBetweenSlices": 3.99,
  "StationName": "AWP66112",
  "TotalReadoutTime": 0.0395,
  "TxRefAmp": 227.518,
  "dcmmeta_affine": [
    [-2.980576515197754, 0.31800577044487, 0.16308724880218506, 105.51824188232422],
    [0.34044045209884644, 2.7263643741607666, 1.602104663848877, -130.12937927246094],
    [-0.01625143736600876, -1.2107059955596924, 3.6505839824676514, 7.407989025115967],
    [0.0, 0.0, 0.0, 1.0]
],
  "dcmmeta_reorient_transform": [
    [0.0, -1.0, 0.0, 79.0],
    [1.0, 0.0, 0.0, 0.0],
    [0.0, 0.0, 1.0, 0.0],
    [0.0, 0.0, 0.0, 1.0]
],
  "dcmmeta_shape": [80, 80, 30, 200],
  "dcmmeta_slice_dim": 2,
  "dcmmeta_version": 0.6,
  "global": {
    "const": {
      "AccessionNumber": "qa",
      "AcquisitionMatrix": [80, 0, 0, 80],
      "AngioFlag": "N",
      "BitsAllocated": 16,
      "BitsStored": 12,
      "BodyPartExamined": "BRAIN",
      "Columns": 480,
      "EchoNumbers": 1,
      "EchoTime": 30.0,
      "EchoTrainLength": 80,
      "FlipAngle": 10.0,
      "HighBit": 11,
      "ImageOrientationPatient": [0.99352549523186, -0.1134801518161, -0.0054171457508, 0.10600191897549, 0.90878816356257, 0.40356866446999],
      "ImagePositionPatient": [-790.3571477399, -562.43822334486, -327.12869583375],
      "ImageType": [
        "ORIGINAL",
        "PRIMARY",
        "M",
        "ND",
        "NORM",
        "MOSAIC"
],
      "ImagedNucleus": "1H",
      "ImagingFrequency": 123.252324,
      "InPlanePhaseEncodingDirection": "COL",
      "MRAcquisitionType": "2D",
      "MagneticFieldStrength": 3.0,
      "Manufacturer": "SIEMENS",
      "ManufacturerModelName": "Prisma",
      "Modality": "MR",
      "NumberOfAverages": 1.0,
      "NumberOfPhaseEncodingSteps": 80,
      "PercentPhaseFieldOfView": 100.0,
      "PercentSampling": 100.0,
      "PerformedProcedureStepStartTime": "100144.282000",
      "PhotometricInterpretation": "MONOCHROME2",
      "PixelBandwidth": 2315.0,
      "PixelRepresentation": 0,
      "PixelSpacing": [3.0, 3.0],
      "ProtocolName": "func-bold_fa-10",
      "RepetitionTime": 2000.0,
      "Rows": 480,
      "SAR": 0.01172114493499,
      "SamplesPerPixel": 1,
      "ScanOptions": "FS",
      "ScanningSequence": "EP",
      "SequenceName": "*epfid2d1_80",
      "SequenceVariant": "SK",
      "SeriesDescription": "func-bold_fa-10",
      "SeriesNumber": 10,
      "SeriesTime": "102436.297000",
      "SliceLocation": -41.160079270899,
      "SliceThickness": 3.5,
      "SmallestImagePixelValue": 0,
      "SoftwareVersions": "syngo MR E11",
      "SpacingBetweenSlices": 3.9900000123074,
      "SpecificCharacterSet": "ISO_IR 100",
      "StudyID": "8",
      "StudyTime": "100144.230000",
      "TransmitCoilName": "Body",
      "VariableFlipAngleFlag": "N",
      "WindowCenterWidthExplanation": "Algo1",
      "dBdt": 0.0},
    "slices": {}
  },
  "time": {
    "samples": {
      "AcquisitionNumber": [1, 2, 3, 4, 5, 6, 7, 8, 9, 10, 11, 12, 13, 14, 15, 16, 17, 18, 19, 20, 21, 22, 23, 24, 25, 26, 27, 28, 29, 30, 31, 32, 33, 34, 35, 36, 37, 38, 39, 40, 41, 42, 43, 44, 45, 46, 47, 48, 49, 50, 51, 52, 53, 54, 55, 56, 57, 58, 59, 60, 61, 62, 63, 64, 65, 66, 67, 68, 69, 70, 71, 72, 73, 74, 75, 76, 77, 78, 79, 80, 81, 82, 83, 84, 85, 86, 87, 88, 89, 90, 91, 92, 93, 94, 95, 96, 97, 98, 99, 100, 101, 102, 103, 104, 105, 106, 107, 108, 109, 110, 111, 112, 113, 114, 115, 116, 117, 118, 119, 120, 121, 122, 123, 124, 125, 126, 127, 128, 129, 130, 131, 132, 133, 134, 135, 136, 137, 138, 139, 140, 141, 142, 143, 144, 145, 146, 147, 148, 149, 150, 151, 152, 153, 154, 155, 156, 157, 158, 159, 160, 161, 162, 163, 164, 165, 166, 167, 168, 169, 170, 171, 172, 173, 174, 175, 176, 177, 178, 179, 180, 181, 182, 183, 184, 185, 186, 187, 188, 189, 190, 191, 192, 193, 194, 195, 196, 197, 198, 199, 200],
      "AcquisitionTime": ["102340.472500", "102342.472500", "102344.472500", "102346.472500", "102348.472500", "102350.472500", "102352.472500", "102354.472500", "102356.472500", "102358.472500", "102400.472500", "102402.472500", "102404.472500", "102406.472500", "102408.472500", "102410.472500", "102412.472500", "102414.472500", "102416.472500", "102418.472500", "102420.472500", "102422.472500", "102424.472500", "102426.472500", "102428.472500", "102430.472500", "102432.472500", "102434.472500", "102436.472500", "102438.472500", "102440.472500", "102442.472500", "102444.472500", "102446.472500", "102448.472500", "102450.472500", "102452.472500", "102454.472500", "102456.472500", "102458.472500", "102500.472500", "102502.472500", "102504.472500", "102506.472500", "102508.472500", "102510.472500", "102512.472500", "102514.472500", "102516.472500", "102518.472500", "102520.472500", "102522.472500", "102524.472500", "102526.472500", "102528.472500", "102530.472500", "102532.472500", "102534.472500", "102536.472500", "102538.472500", "102540.472500", "102542.472500", "102544.472500", "102546.472500", "102548.472500", "102550.472500", "102552.472500", "102554.472500", "102556.472500", "102558.472500", "102600.472500", "102602.472500", "102604.472500", "102606.472500", "102608.472500", "102610.472500", "102612.472500", "102614.472500", "102616.472500", "102618.472500", "102620.472500", "102622.472500", "102624.472500", "102626.472500", "102628.472500", "102630.472500", "102632.472500", "102634.472500", "102636.472500", "102638.472500", "102640.472500", "102642.472500", "102644.472500", "102646.472500", "102648.472500", "102650.472500", "102652.472500", "102654.472500", "102656.472500", "102658.472500", "102700.472500", "102702.472500", "102704.472500", "102706.472500", "102708.472500", "102710.472500", "102712.472500", "102714.472500", "102716.472500", "102718.472500", "102720.472500", "102722.472500", "102724.472500", "102726.472500", "102728.472500", "102730.472500", "102732.472500", "102734.472500", "102736.472500", "102738.472500", "102740.472500", "102742.472500", "102744.472500", "102746.472500", "102748.472500", "102750.472500", "102752.472500", "102754.472500", "102756.472500", "102758.472500", "102800.472500", "102802.472500", "102804.472500", "102806.472500", "102808.472500", "102810.472500", "102812.472500", "102814.472500", "102816.472500", "102818.472500", "102820.472500", "102822.472500", "102824.472500", "102826.472500", "102828.472500", "102830.472500", "102832.472500", "102834.472500", "102836.472500", "102838.472500", "102840.472500", "102842.472500", "102844.472500", "102846.472500", "102848.472500", "102850.472500", "102852.472500", "102854.472500", "102856.472500", "102858.472500", "102900.472500", "102902.472500", "102904.472500", "102906.472500", "102908.472500", "102910.472500", "102912.472500", "102914.472500", "102916.472500", "102918.472500", "102920.472500", "102922.472500", "102924.472500", "102926.472500", "102928.472500", "102930.472500", "102932.472500", "102934.472500", "102936.472500", "102938.472500", "102940.472500", "102942.472500", "102944.472500", "102946.472500", "102948.472500", "102950.472500", "102952.472500", "102954.472500", "102956.472500", "102958.472500", "103000.472500", "103002.472500", "103004.472500", "103006.472500", "103008.472500", "103010.472500", "103012.472500", "103014.472500", "103016.472500", "103018.472500"],
      "ContentTime": ["102436.300000", "102436.303000", "102436.306000", "102436.309000", "102436.311000", "102436.314000", "102436.316000", "102436.319000", "102436.321000", "102436.323000", "102436.326000", "102436.329000", "102436.331000", "102436.334000", "102436.336000", "102436.345000", "102436.348000", "102436.350000", "102436.352000", "102436.355000", "102436.358000", "102436.367000", "102436.369000", "102436.372000", "102436.374000", "102436.377000", "102436.379000", "102436.382000", "102516.295000", "102516.298000", "102516.301000", "102516.303000", "102516.306000", "102516.308000", "102516.311000", "102516.313000", "102516.316000", "102516.318000", "102516.321000", "102516.323000", "102516.326000", "102516.329000", "102516.331000", "102516.333000", "102516.336000", "102516.343000", "102516.345000", "102516.348000", "102556.296000", "102556.299000", "102556.301000", "102556.304000", "102556.306000", "102556.309000", "102556.311000", "102556.314000", "102556.316000", "102556.319000", "102556.321000", "102556.324000", "102556.326000", "102556.329000", "102556.331000", "102556.334000", "102556.336000", "102556.338000", "102556.341000", "102556.343000", "102636.295000", "102636.298000", "102636.301000", "102636.303000", "102636.306000", "102636.308000", "102636.310000", "102636.313000", "102636.315000", "102636.318000", "102636.320000", "102636.323000", "102636.325000", "102636.328000", "102636.330000", "102636.333000", "102636.335000", "102636.338000", "102636.340000", "102636.343000", "102716.295000", "102716.311000", "102716.313000", "102716.316000", "102716.318000", "102716.320000", "102716.323000", "102716.325000", "102716.328000", "102716.330000", "102716.333000", "102716.335000", "102716.338000", "102716.340000", "102716.342000", "102716.345000", "102716.347000", "102716.350000", "102716.352000", "102716.355000", "102756.295000", "102756.298000", "102756.301000", "102756.303000", "102756.306000", "102756.308000", "102756.311000", "102756.313000", "102756.315000", "102756.318000", "102756.320000", "102756.323000", "102756.325000", "102756.328000", "102756.330000", "102756.333000", "102756.335000", "102756.338000", "102756.340000", "102756.342000", "102836.295000", "102836.298000", "102836.301000", "102836.303000", "102836.306000", "102836.308000", "102836.310000", "102836.313000", "102836.315000", "102836.318000", "102836.320000", "102836.323000", "102836.325000", "102836.328000", "102836.330000", "102836.333000", "102836.335000", "102836.338000", "102836.340000", "102836.343000", "102916.295000", "102916.298000", "102916.301000", "102916.303000", "102916.306000", "102916.308000", "102916.311000", "102916.313000", "102916.316000", "102916.318000", "102916.321000", "102916.323000", "102916.326000", "102916.328000", "102916.331000", "102916.333000", "102916.336000", "102916.338000", "102916.340000", "102916.343000", "102956.295000", "102956.298000", "102956.301000", "102956.303000", "102956.306000", "102956.308000", "102956.311000", "102956.313000", "102956.316000", "102956.318000", "102956.321000", "102956.323000", "102956.325000", "102956.328000", "102956.330000", "102956.333000", "102956.335000", "102956.338000", "102956.340000", "102956.343000", "103019.599000", "103019.602000", "103019.604000", "103019.607000", "103019.609000", "103019.612000", "103019.614000", "103019.617000", "103019.619000", "103019.622000", "103019.625000", "103019.627000"],
      "InstanceCreationTime": ["102436.300000", "102436.303000", "102436.306000", "102436.309000", "102436.311000", "102436.314000", "102436.316000", "102436.319000", "102436.321000", "102436.323000", "102436.326000", "102436.329000", "102436.331000", "102436.334000", "102436.336000", "102436.345000", "102436.348000", "102436.350000", "102436.352000", "102436.355000", "102436.358000", "102436.367000", "102436.369000", "102436.372000", "102436.374000", "102436.377000", "102436.379000", "102436.382000", "102516.295000", "102516.298000", "102516.301000", "102516.303000", "102516.306000", "102516.308000", "102516.311000", "102516.313000", "102516.316000", "102516.318000", "102516.321000", "102516.323000", "102516.326000", "102516.329000", "102516.331000", "102516.333000", "102516.336000", "102516.343000", "102516.345000", "102516.348000", "102556.296000", "102556.299000", "102556.301000", "102556.304000", "102556.306000", "102556.309000", "102556.311000", "102556.314000", "102556.316000", "102556.319000", "102556.321000", "102556.324000", "102556.326000", "102556.329000", "102556.331000", "102556.334000", "102556.336000", "102556.338000", "102556.341000", "102556.343000", "102636.295000", "102636.298000", "102636.301000", "102636.303000", "102636.306000", "102636.308000", "102636.310000", "102636.313000", "102636.315000", "102636.318000", "102636.320000", "102636.323000", "102636.325000", "102636.328000", "102636.330000", "102636.333000", "102636.335000", "102636.338000", "102636.340000", "102636.343000", "102716.295000", "102716.311000", "102716.313000", "102716.316000", "102716.318000", "102716.320000", "102716.323000", "102716.325000", "102716.328000", "102716.330000", "102716.333000", "102716.335000", "102716.338000", "102716.340000", "102716.342000", "102716.345000", "102716.347000", "102716.350000", "102716.352000", "102716.355000", "102756.295000", "102756.298000", "102756.301000", "102756.303000", "102756.306000", "102756.308000", "102756.311000", "102756.313000", "102756.315000", "102756.318000", "102756.320000", "102756.323000", "102756.325000", "102756.328000", "102756.330000", "102756.333000", "102756.335000", "102756.338000", "102756.340000", "102756.342000", "102836.295000", "102836.298000", "102836.301000", "102836.303000", "102836.306000", "102836.308000", "102836.310000", "102836.313000", "102836.315000", "102836.318000", "102836.320000", "102836.323000", "102836.325000", "102836.328000", "102836.330000", "102836.333000", "102836.335000", "102836.338000", "102836.340000", "102836.343000", "102916.295000", "102916.298000", "102916.301000", "102916.303000", "102916.306000", "102916.308000", "102916.311000", "102916.313000", "102916.316000", "102916.318000", "102916.321000", "102916.323000", "102916.326000", "102916.328000", "102916.331000", "102916.333000", "102916.336000", "102916.338000", "102916.340000", "102916.343000", "102956.295000", "102956.298000", "102956.301000", "102956.303000", "102956.306000", "102956.308000", "102956.311000", "102956.313000", "102956.316000", "102956.318000", "102956.321000", "102956.323000", "102956.325000", "102956.328000", "102956.330000", "102956.333000", "102956.335000", "102956.338000", "102956.340000", "102956.343000", "103019.599000", "103019.602000", "103019.604000", "103019.607000", "103019.609000", "103019.612000", "103019.614000", "103019.617000", "103019.619000", "103019.622000", "103019.625000", "103019.627000"],
      "InstanceNumber": [1, 2, 3, 4, 5, 6, 7, 8, 9, 10, 11, 12, 13, 14, 15, 16, 17, 18, 19, 20, 21, 22, 23, 24, 25, 26, 27, 28, 29, 30, 31, 32, 33, 34, 35, 36, 37, 38, 39, 40, 41, 42, 43, 44, 45, 46, 47, 48, 49, 50, 51, 52, 53, 54, 55, 56, 57, 58, 59, 60, 61, 62, 63, 64, 65, 66, 67, 68, 69, 70, 71, 72, 73, 74, 75, 76, 77, 78, 79, 80, 81, 82, 83, 84, 85, 86, 87, 88, 89, 90, 91, 92, 93, 94, 95, 96, 97, 98, 99, 100, 101, 102, 103, 104, 105, 106, 107, 108, 109, 110, 111, 112, 113, 114, 115, 116, 117, 118, 119, 120, 121, 122, 123, 124, 125, 126, 127, 128, 129, 130, 131, 132, 133, 134, 135, 136, 137, 138, 139, 140, 141, 142, 143, 144, 145, 146, 147, 148, 149, 150, 151, 152, 153, 154, 155, 156, 157, 158, 159, 160, 161, 162, 163, 164, 165, 166, 167, 168, 169, 170, 171, 172, 173, 174, 175, 176, 177, 178, 179, 180, 181, 182, 183, 184, 185, 186, 187, 188, 189, 190, 191, 192, 193, 194, 195, 196, 197, 198, 199, 200],
      "LargestImagePixelValue": [345, 346, 345, 344, 345, 344, 344, 344, 345, 344, 344, 345, 345, 345, 344, 345, 344, 345, 345, 346, 345, 345, 345, 346, 345, 346, 344, 344, 345, 345, 345, 345, 344, 346, 345, 345, 344, 345, 346, 344, 346, 345, 345, 344, 344, 344, 345, 345, 344, 345, 344, 347, 345, 346, 346, 345, 347, 345, 344, 345, 345, 346, 345, 345, 345, 344, 345, 346, 346, 345, 344, 346, 346, 344, 345, 345, 345, 344, 344, 344, 345, 345, 345, 343, 346, 344, 345, 345, 344, 346, 345, 345, 346, 345, 345, 344, 344, 345, 346, 345, 344, 344, 344, 345, 345, 344, 345, 344, 346, 344, 345, 346, 345, 345, 343, 345, 344, 344, 344, 346, 346, 344, 346, 344, 344, 344, 347, 347, 345, 345, 345, 344, 346, 346, 348, 346, 346, 346, 346, 346, 345, 345, 346, 345, 346, 345, 347, 345, 345, 345, 344, 345, 347, 344, 344, 345, 347, 345, 345, 344, 345, 346, 344, 344, 346, 345, 345, 346, 346, 344, 346, 347, 345, 345, 344, 346, 345, 345, 345, 344, 345, 345, 344, 344, 344, 343, 346, 346, 346, 345, 347, 346, 345, 344, 344, 344, 346, 346, 344, 344],
      "WindowCenter": [284.0, 284.0, 283.0, 284.0, 284.0, 283.0, 284.0, 284.0, 284.0, 284.0, 284.0, 284.0, 284.0, 284.0, 283.0, 283.0, 283.0, 284.0, 284.0, 283.0, 284.0, 284.0, 284.0, 284.0, 283.0, 283.0, 284.0, 284.0, 284.0, 283.0, 283.0, 283.0, 284.0, 284.0, 283.0, 283.0, 284.0, 284.0, 284.0, 283.0, 283.0, 283.0, 283.0, 283.0, 283.0, 283.0, 283.0, 283.0, 283.0, 283.0, 283.0, 283.0, 283.0, 284.0, 284.0, 283.0, 283.0, 284.0, 283.0, 283.0, 283.0, 283.0, 283.0, 283.0, 283.0, 283.0, 283.0, 283.0, 283.0, 283.0, 283.0, 283.0, 284.0, 283.0, 283.0, 283.0, 283.0, 283.0, 283.0, 283.0, 283.0, 283.0, 283.0, 284.0, 283.0, 283.0, 283.0, 283.0, 283.0, 283.0, 283.0, 283.0, 283.0, 283.0, 283.0, 283.0, 283.0, 283.0, 283.0, 283.0, 283.0, 283.0, 283.0, 283.0, 283.0, 283.0, 283.0, 283.0, 283.0, 283.0, 283.0, 283.0, 283.0, 283.0, 283.0, 283.0, 283.0, 283.0, 283.0, 283.0, 283.0, 283.0, 283.0, 283.0, 283.0, 283.0, 283.0, 283.0, 283.0, 283.0, 283.0, 283.0, 283.0, 283.0, 283.0, 283.0, 283.0, 283.0, 283.0, 283.0, 283.0, 283.0, 283.0, 283.0, 283.0, 283.0, 283.0, 283.0, 283.0, 283.0, 283.0, 283.0, 283.0, 283.0, 283.0, 283.0, 283.0, 283.0, 282.0, 283.0, 283.0, 283.0, 283.0, 283.0, 283.0, 283.0, 283.0, 283.0, 283.0, 283.0, 283.0, 283.0, 283.0, 283.0, 283.0, 283.0, 283.0, 283.0, 283.0, 283.0, 282.0, 283.0, 283.0, 283.0, 283.0, 283.0, 283.0, 283.0, 283.0, 283.0, 283.0, 283.0, 283.0, 283.0, 283.0, 283.0, 283.0, 283.0, 283.0, 283.0],
      "WindowWidth": [619.0, 619.0, 619.0, 619.0, 619.0, 619.0, 619.0, 619.0, 619.0, 619.0, 619.0, 619.0, 619.0, 619.0, 619.0, 618.0, 619.0, 619.0, 619.0, 618.0, 619.0, 619.0, 619.0, 619.0, 618.0, 618.0, 619.0, 619.0, 619.0, 619.0, 618.0, 619.0, 619.0, 619.0, 619.0, 618.0, 619.0, 619.0, 619.0, 619.0, 619.0, 618.0, 618.0, 618.0, 618.0, 618.0, 618.0, 619.0, 619.0, 618.0, 618.0, 618.0, 618.0, 619.0, 619.0, 619.0, 618.0, 619.0, 618.0, 618.0, 618.0, 618.0, 618.0, 618.0, 619.0, 618.0, 618.0, 618.0, 618.0, 618.0, 618.0, 618.0, 619.0, 618.0, 618.0, 618.0, 619.0, 618.0, 618.0, 618.0, 618.0, 618.0, 618.0, 619.0, 618.0, 618.0, 618.0, 618.0, 618.0, 618.0, 618.0, 618.0, 618.0, 618.0, 618.0, 618.0, 618.0, 618.0, 618.0, 618.0, 618.0, 618.0, 618.0, 618.0, 618.0, 618.0, 618.0, 618.0, 618.0, 618.0, 618.0, 618.0, 618.0, 618.0, 618.0, 618.0, 618.0, 618.0, 618.0, 618.0, 618.0, 618.0, 618.0, 618.0, 618.0, 618.0, 618.0, 618.0, 618.0, 618.0, 618.0, 618.0, 618.0, 618.0, 618.0, 618.0, 618.0, 618.0, 618.0, 618.0, 618.0, 618.0, 618.0, 618.0, 618.0, 618.0, 618.0, 618.0, 618.0, 618.0, 618.0, 618.0, 618.0, 618.0, 618.0, 618.0, 618.0, 618.0, 617.0, 618.0, 618.0, 618.0, 618.0, 618.0, 618.0, 618.0, 618.0, 618.0, 618.0, 617.0, 618.0, 617.0, 618.0, 618.0, 618.0, 617.0, 618.0, 618.0, 618.0, 618.0, 617.0, 618.0, 617.0, 618.0, 618.0, 618.0, 618.0, 618.0, 618.0, 618.0, 617.0, 617.0, 618.0, 618.0, 618.0, 618.0, 618.0, 618.0, 618.0, 618.0]
    },
    "slices": {}
  }
}