{
  "AcquisitionMatrixPE": 80,
  "AcquisitionNumber": 1,
  "AcquisitionTime": "10:10:4.175000",
  "BandwidthPerPixelPhaseEncode": 44.643,
  "BaseResolution": 80,
  "BodyPartExamined": "BRAIN",
  "CoilCombinationMethod": "Sum of Squares",
  "ConsistencyInfo": "N4_VE11C_LATEST_20160120",
  "ConversionSoftware": "dcm2niix",
  "ConversionSoftwareVersion": "v1.0.20220720",
  "DerivedVendorReportedEchoSpacing": 0.000559998,
  "DeviceSerialNumber": "66112",
  "DwellTime": 2.7e-06,
  "EchoTime": 0.035,
  "EchoTrainLength": 39,
  "EffectiveEchoSpacing": 0.000279999,
  "FlipAngle": 90,
  "HeudiconvVersion": "0.13.1",
  "ImageOrientationPatientDICOM": [0.993526, -0.11348, -0.00541715, 0.106002, 0.908788, 0.403569],
  "ImageOrientationText": "Tra>Cor(23.7)>Sag(2.3)",
  "ImageType": [
    "ORIGINAL",
    "PRIMARY",
    "M",
    "ND",
    "NORM",
    "MOSAIC"
],
  "ImagingFrequency": 123.252,
  "InPlanePhaseEncodingDirectionDICOM": "COL",
  "InstitutionAddress": "Maynard 3,Hanover,NH,US,03755",
  "InstitutionName": "Dartmouth College - PBS",
  "InstitutionalDepartmentName": "Department",
  "MRAcquisitionType": "2D",
  "MagneticFieldStrength": 3,
  "Manufacturer": "Siemens",
  "ManufacturersModelName": "Prisma",
  "Modality": "MR",
  "MultibandAccelerationFactor": 4,
  "NonlinearGradientCorrection": false,
  "ParallelReductionFactorInPlane": 2,
  "PartialFourier": 1,
  "PatientPosition": "HFS",
  "PercentPhaseFOV": 100,
  "PercentSampling": 100,
  "PhaseEncodingDirection": "j-",
  "PhaseEncodingSteps": 79,
  "PhaseResolution": 1,
  "PixelBandwidth": 2315,
  "ProcedureStepDescription": "dbic^QA",
  "ProtocolName": "func-bold_task-rest_acq-p2-s4-3.5mm",
  "PulseSequenceDetails": "%SiemensSeq%\\ep2d_bold",
  "ReceiveCoilActiveElements": "HEA;HEP",
  "ReceiveCoilName": "Head_32",
  "ReconMatrixPE": 80,
  "RefLinesPE": 24,
  "RepetitionTime": 2,
  "SAR": 0.0209081,
  "ScanOptions": "FS",
  "ScanningSequence": "EP",
  "SequenceName": "*epfid2d1_80",
  "SequenceVariant": "SK",
  "SeriesDescription": "func-bold_task-rest_acq-p2-s4-3.5mm",
  "SeriesNumber": 7,
  "ShimSetting": [4154, -7712, -7516, 236, -73, -148, -29, 98],
  "SliceThickness": 3.5,
  "SliceTiming": [1.485, 0, 0.99, 0.2475, 1.2375, 0.7425, 1.7325, 0.495, 1.485, 0, 0.99, 0.2475, 1.2375, 0.7425, 1.7325, 0.495, 1.485, 0, 0.99, 0.2475, 1.2375, 0.7425, 1.7325, 0.495, 1.485, 0, 0.99, 0.2475, 1.2375, 0.7425, 1.7325, 0.495],
  "SoftwareVersions": "syngo MR E11",
  "SpacingBetweenSlices": 3.99,
  "StationName": "AWP66112",
  "TaskName": "rest",
  "TotalReadoutTime": 0.0221199,
  "TxRefAmp": 227.518,
  "dcmmeta_affine": [
    [-2.980576515197754, 0.31800577044487, 0.16308724880218506, 104.95792388916016],
    [0.34044045209884644, 2.7263643741607666, 1.602104663848877, -135.46450805664062],
    [-0.01625143736600876, -1.2107059955596924, 3.6505839824676514, -1.5867506265640259],
    [0.0, 0.0, 0.0, 1.0]
],
  "dcmmeta_reorient_transform": [
    [0.0, -1.0, 0.0, 79.0],
    [1.0, 0.0, 0.0, 0.0],
    [0.0, 0.0, 1.0, 0.0],
    [0.0, 0.0, 0.0, 1.0]
],
  "dcmmeta_shape": [80, 80, 32, 200],
  "dcmmeta_slice_dim": 2,
  "dcmmeta_version": 0.6,
  "global": {
    "const": {
      "AccessionNumber": "qa",
      "AcquisitionMatrix": [80, 0, 0, 80],
      "AngioFlag": "N",
      "BitsAllocated": 16,
      "BitsStored": 12,
      "BodyPartExamined": "BRAIN",
      "Columns": 480,
      "EchoNumbers": 1,
      "EchoTime": 35.0,
      "EchoTrainLength": 39,
      "FlipAngle": 90.0,
      "HighBit": 11,
      "ImageOrientationPatient": [0.99352549523186, -0.1134801518161, -0.0054171457508, 0.10600191897549, 0.90878816356257, 0.40356866446999],
      "ImagePositionPatient": [-789.79682676651, -557.10308693128, -336.12343536622],
      "ImageType": [
        "ORIGINAL",
        "PRIMARY",
        "M",
        "ND",
        "NORM",
        "MOSAIC"
],
      "ImagedNucleus": "1H",
      "ImagingFrequency": 123.252323,
      "InPlanePhaseEncodingDirection": "COL",
      "MRAcquisitionType": "2D",
      "MagneticFieldStrength": 3.0,
      "Manufacturer": "SIEMENS",
      "ManufacturerModelName": "Prisma",
      "Modality": "MR",
      "NumberOfAverages": 1.0,
      "NumberOfPhaseEncodingSteps": 79,
      "PercentPhaseFieldOfView": 100.0,
      "PercentSampling": 100.0,
      "PerformedProcedureStepStartTime": "100144.282000",
      "PhotometricInterpretation": "MONOCHROME2",
      "PixelBandwidth": 2315.0,
      "PixelRepresentation": 0,
      "PixelSpacing": [3.0, 3.0],
      "ProtocolName": "func-bold_task-rest_acq-p2-s4-3.5mm",
      "RepetitionTime": 2000.0,
      "Rows": 480,
      "SAR": 0.02090805559342,
      "SamplesPerPixel": 1,
      "ScanOptions": "FS",
      "ScanningSequence": "EP",
      "SequenceName": "*epfid2d1_80",
      "SequenceVariant": "SK",
      "SeriesDescription": "func-bold_task-rest_acq-p2-s4-3.5mm",
      "SeriesNumber": 7,
      "SeriesTime": "101056.368000",
      "SliceLocation": -51.554786012335,
      "SliceThickness": 3.5,
      "SmallestImagePixelValue": 0,
      "SoftwareVersions": "syngo MR E11",
      "SpacingBetweenSlices": 3.9900000079538,
      "SpecificCharacterSet": "ISO_IR 100",
      "StudyID": "8",
      "StudyTime": "100144.230000",
      "TransmitCoilName": "Body",
      "VariableFlipAngleFlag": "N",
      "WindowCenterWidthExplanation": "Algo1",
      "dBdt": 0.0},
    "slices": {}
  },
  "time": {
    "samples": {
      "AcquisitionNumber": [1, 2, 3, 4, 5, 6, 7, 8, 9, 10, 11, 12, 13, 14, 15, 16, 17, 18, 19, 20, 21, 22, 23, 24, 25, 26, 27, 28, 29, 30, 31, 32, 33, 34, 35, 36, 37, 38, 39, 40, 41, 42, 43, 44, 45, 46, 47, 48, 49, 50, 51, 52, 53, 54, 55, 56, 57, 58, 59, 60, 61, 62, 63, 64, 65, 66, 67, 68, 69, 70, 71, 72, 73, 74, 75, 76, 77, 78, 79, 80, 81, 82, 83, 84, 85, 86, 87, 88, 89, 90, 91, 92, 93, 94, 95, 96, 97, 98, 99, 100, 101, 102, 103, 104, 105, 106, 107, 108, 109, 110, 111, 112, 113, 114, 115, 116, 117, 118, 119, 120, 121, 122, 123, 124, 125, 126, 127, 128, 129, 130, 131, 132, 133, 134, 135, 136, 137, 138, 139, 140, 141, 142, 143, 144, 145, 146, 147, 148, 149, 150, 151, 152, 153, 154, 155, 156, 157, 158, 159, 160, 161, 162, 163, 164, 165, 166, 167, 168, 169, 170, 171, 172, 173, 174, 175, 176, 177, 178, 179, 180, 181, 182, 183, 184, 185, 186, 187, 188, 189, 190, 191, 192, 193, 194, 195, 196, 197, 198, 199, 200],
      "AcquisitionTime": ["101004.175000", "101006.175000", "101008.175000", "101010.175000", "101012.175000", "101014.175000", "101016.175000", "101018.175000", "101020.175000", "101022.175000", "101024.175000", "101026.175000", "101028.175000", "101030.175000", "101032.175000", "101034.175000", "101036.175000", "101038.175000", "101040.175000", "101042.175000", "101044.175000", "101046.175000", "101048.175000", "101050.175000", "101052.175000", "101054.175000", "101056.175000", "101058.175000", "101100.175000", "101102.175000", "101104.175000", "101106.175000", "101108.175000", "101110.175000", "101112.175000", "101114.175000", "101116.175000", "101118.175000", "101120.175000", "101122.175000", "101124.175000", "101126.175000", "101128.175000", "101130.175000", "101132.175000", "101134.175000", "101136.175000", "101138.175000", "101140.175000", "101142.175000", "101144.175000", "101146.175000", "101148.175000", "101150.175000", "101152.175000", "101154.175000", "101156.175000", "101158.175000", "101200.175000", "101202.175000", "101204.175000", "101206.175000", "101208.175000", "101210.175000", "101212.175000", "101214.175000", "101216.175000", "101218.175000", "101220.175000", "101222.175000", "101224.175000", "101226.175000", "101228.175000", "101230.175000", "101232.175000", "101234.175000", "101236.175000", "101238.175000", "101240.175000", "101242.175000", "101244.175000", "101246.175000", "101248.175000", "101250.175000", "101252.175000", "101254.175000", "101256.175000", "101258.175000", "101300.175000", "101302.175000", "101304.175000", "101306.175000", "101308.175000", "101310.175000", "101312.175000", "101314.175000", "101316.175000", "101318.175000", "101320.175000", "101322.175000", "101324.175000", "101326.175000", "101328.175000", "101330.175000", "101332.175000", "101334.175000", "101336.175000", "101338.175000", "101340.175000", "101342.175000", "101344.175000", "101346.175000", "101348.175000", "101350.175000", "101352.175000", "101354.175000", "101356.175000", "101358.175000", "101400.175000", "101402.175000", "101404.175000", "101406.175000", "101408.175000", "101410.175000", "101412.175000", "101414.175000", "101416.175000", "101418.175000", "101420.175000", "101422.175000", "101424.175000", "101426.175000", "101428.175000", "101430.175000", "101432.175000", "101434.175000", "101436.175000", "101438.175000", "101440.175000", "101442.175000", "101444.175000", "101446.175000", "101448.175000", "101450.175000", "101452.175000", "101454.175000", "101456.175000", "101458.175000", "101500.175000", "101502.175000", "101504.175000", "101506.175000", "101508.175000", "101510.175000", "101512.175000", "101514.175000", "101516.175000", "101518.175000", "101520.175000", "101522.175000", "101524.175000", "101526.175000", "101528.175000", "101530.175000", "101532.175000", "101534.175000", "101536.175000", "101538.175000", "101540.175000", "101542.175000", "101544.175000", "101546.175000", "101548.175000", "101550.175000", "101552.175000", "101554.175000", "101556.175000", "101558.175000", "101600.175000", "101602.175000", "101604.175000", "101606.175000", "101608.175000", "101610.175000", "101612.175000", "101614.175000", "101616.175000", "101618.175000", "101620.175000", "101622.175000", "101624.175000", "101626.175000", "101628.175000", "101630.175000", "101632.175000", "101634.175000", "101636.175000", "101638.175000", "101640.175000", "101642.175000"],
      "ContentTime": ["101056.371000", "101056.375000", "101056.377000", "101056.386000", "101056.388000", "101056.394000", "101056.402000", "101056.404000", "101056.407000", "101056.409000", "101056.412000", "101056.414000", "101056.417000", "101056.420000", "101056.422000", "101056.425000", "101056.427000", "101056.430000", "101056.432000", "101056.435000", "101056.438000", "101056.440000", "101056.443000", "101056.445000", "101056.448000", "101056.451000", "101136.366000", "101136.370000", "101136.372000", "101136.375000", "101136.377000", "101136.380000", "101136.382000", "101136.385000", "101136.387000", "101136.390000", "101136.392000", "101136.395000", "101136.397000", "101136.400000", "101136.403000", "101136.405000", "101136.408000", "101136.410000", "101136.418000", "101136.421000", "101216.367000", "101216.370000", "101216.372000", "101216.375000", "101216.377000", "101216.380000", "101216.382000", "101216.385000", "101216.387000", "101216.390000", "101216.393000", "101216.395000", "101216.398000", "101216.401000", "101216.403000", "101216.415000", "101216.418000", "101216.420000", "101216.423000", "101216.425000", "101256.366000", "101256.369000", "101256.372000", "101256.375000", "101256.377000", "101256.380000", "101256.382000", "101256.385000", "101256.387000", "101256.390000", "101256.393000", "101256.395000", "101256.398000", "101256.400000", "101256.403000", "101256.405000", "101256.408000", "101256.410000", "101256.413000", "101256.416000", "101336.366000", "101336.370000", "101336.372000", "101336.375000", "101336.377000", "101336.380000", "101336.382000", "101336.385000", "101336.387000", "101336.390000", "101336.392000", "101336.395000", "101336.397000", "101336.400000", "101336.402000", "101336.405000", "101336.407000", "101336.410000", "101336.412000", "101336.415000", "101416.367000", "101416.371000", "101416.373000", "101416.376000", "101416.378000", "101416.381000", "101416.383000", "101416.386000", "101416.389000", "101416.391000", "101416.394000", "101416.396000", "101416.399000", "101416.401000", "101416.404000", "101416.406000", "101416.409000", "101416.411000", "101416.414000", "101416.416000", "101456.366000", "101456.370000", "101456.372000", "101456.375000", "101456.377000", "101456.380000", "101456.382000", "101456.385000", "101456.387000", "101456.390000", "101456.393000", "101456.395000", "101456.398000", "101456.400000", "101456.403000", "101456.405000", "101456.408000", "101456.411000", "101456.413000", "101456.416000", "101536.367000", "101536.370000", "101536.372000", "101536.375000", "101536.377000", "101536.380000", "101536.383000", "101536.385000", "101536.388000", "101536.390000", "101536.393000", "101536.395000", "101536.398000", "101536.401000", "101536.403000", "101536.406000", "101536.408000", "101536.411000", "101536.414000", "101536.416000", "101616.366000", "101616.370000", "101616.372000", "101616.375000", "101616.377000", "101616.380000", "101616.382000", "101616.385000", "101616.388000", "101616.390000", "101616.393000", "101616.395000", "101616.398000", "101616.400000", "101616.403000", "101616.406000", "101616.408000", "101616.411000", "101616.414000", "101616.416000", "101643.210000", "101643.213000", "101643.215000", "101643.218000", "101643.221000", "101643.224000", "101643.226000", "101643.229000", "101643.231000", "101643.234000", "101643.237000", "101643.239000", "101643.243000", "101643.247000"],
      "InstanceCreationTime": ["101056.371000", "101056.375000", "101056.377000", "101056.386000", "101056.388000", "101056.394000", "101056.402000", "101056.404000", "101056.407000", "101056.409000", "101056.412000", "101056.414000", "101056.417000", "101056.420000", "101056.422000", "101056.425000", "101056.427000", "101056.430000", "101056.432000", "101056.435000", "101056.438000", "101056.440000", "101056.443000", "101056.445000", "101056.448000", "101056.451000", "101136.366000", "101136.370000", "101136.372000", "101136.375000", "101136.377000", "101136.380000", "101136.382000", "101136.385000", "101136.387000", "101136.390000", "101136.392000", "101136.395000", "101136.397000", "101136.400000", "101136.403000", "101136.405000", "101136.408000", "101136.410000", "101136.418000", "101136.421000", "101216.367000", "101216.370000", "101216.372000", "101216.375000", "101216.377000", "101216.380000", "101216.382000", "101216.385000", "101216.387000", "101216.390000", "101216.393000", "101216.395000", "101216.398000", "101216.401000", "101216.403000", "101216.415000", "101216.418000", "101216.420000", "101216.423000", "101216.425000", "101256.366000", "101256.369000", "101256.372000", "101256.375000", "101256.377000", "101256.380000", "101256.382000", "101256.385000", "101256.387000", "101256.390000", "101256.393000", "101256.395000", "101256.398000", "101256.400000", "101256.403000", "101256.405000", "101256.408000", "101256.410000", "101256.413000", "101256.416000", "101336.366000", "101336.370000", "101336.372000", "101336.375000", "101336.377000", "101336.380000", "101336.382000", "101336.385000", "101336.387000", "101336.390000", "101336.392000", "101336.395000", "101336.397000", "101336.400000", "101336.402000", "101336.405000", "101336.407000", "101336.410000", "101336.412000", "101336.415000", "101416.367000", "101416.371000", "101416.373000", "101416.376000", "101416.378000", "101416.381000", "101416.383000", "101416.386000", "101416.389000", "101416.391000", "101416.394000", "101416.396000", "101416.399000", "101416.401000", "101416.404000", "101416.406000", "101416.409000", "101416.411000", "101416.414000", "101416.416000", "101456.366000", "101456.370000", "101456.372000", "101456.375000", "101456.377000", "101456.380000", "101456.382000", "101456.385000", "101456.387000", "101456.390000", "101456.393000", "101456.395000", "101456.398000", "101456.400000", "101456.403000", "101456.405000", "101456.408000", "101456.411000", "101456.413000", "101456.416000", "101536.367000", "101536.370000", "101536.372000", "101536.375000", "101536.377000", "101536.380000", "101536.383000", "101536.385000", "101536.388000", "101536.390000", "101536.393000", "101536.395000", "101536.398000", "101536.401000", "101536.403000", "101536.406000", "101536.408000", "101536.411000", "101536.414000", "101536.416000", "101616.366000", "101616.370000", "101616.372000", "101616.375000", "101616.377000", "101616.380000", "101616.382000", "101616.385000", "101616.388000", "101616.390000", "101616.393000", "101616.395000", "101616.398000", "101616.400000", "101616.403000", "101616.406000", "101616.408000", "101616.411000", "101616.414000", "101616.416000", "101643.210000", "101643.213000", "101643.215000", "101643.218000", "101643.221000", "101643.224000", "101643.226000", "101643.229000", "101643.231000", "101643.234000", "101643.237000", "101643.239000", "101643.243000", "101643.247000"],
      "InstanceNumber": [1, 2, 3, 4, 5, 6, 7, 8, 9, 10, 11, 12, 13, 14, 15, 16, 17, 18, 19, 20, 21, 22, 23, 24, 25, 26, 27, 28, 29, 30, 31, 32, 33, 34, 35, 36, 37, 38, 39, 40, 41, 42, 43, 44, 45, 46, 47, 48, 49, 50, 51, 52, 53, 54, 55, 56, 57, 58, 59, 60, 61, 62, 63, 64, 65, 66, 67, 68, 69, 70, 71, 72, 73, 74, 75, 76, 77, 78, 79, 80, 81, 82, 83, 84, 85, 86, 87, 88, 89, 90, 91, 92, 93, 94, 95, 96, 97, 98, 99, 100, 101, 102, 103, 104, 105, 106, 107, 108, 109, 110, 111, 112, 113, 114, 115, 116, 117, 118, 119, 120, 121, 122, 123, 124, 125, 126, 127, 128, 129, 130, 131, 132, 133, 134, 135, 136, 137, 138, 139, 140, 141, 142, 143, 144, 145, 146, 147, 148, 149, 150, 151, 152, 153, 154, 155, 156, 157, 158, 159, 160, 161, 162, 163, 164, 165, 166, 167, 168, 169, 170, 171, 172, 173, 174, 175, 176, 177, 178, 179, 180, 181, 182, 183, 184, 185, 186, 187, 188, 189, 190, 191, 192, 193, 194, 195, 196, 197, 198, 199, 200],
      "LargestImagePixelValue": [2038, 2035, 2034, 2030, 2032, 2039, 2032, 2031, 2033, 2037, 2036, 2033, 2031, 2037, 2034, 2035, 2035, 2037, 2030, 2036, 2030, 2029, 2037, 2031, 2033, 2037, 2035, 2036, 2038, 2037, 2035, 2037, 2032, 2034, 2034, 2031, 2034, 2033, 2038, 2031, 2037, 2034, 2034, 2035, 2037, 2036, 2042, 2035, 2038, 2033, 2034, 2035, 2028, 2036, 2036, 2031, 2033, 2031, 2032, 2033, 2039, 2036, 2030, 2031, 2038, 2034, 2034, 2033, 2031, 2033, 2030, 2040, 2035, 2033, 2041, 2037, 2034, 2037, 2037, 2034, 2036, 2038, 2039, 2031, 2033, 2038, 2037, 2043, 2037, 2034, 2034, 2037, 2034, 2038, 2036, 2034, 2041, 2039, 2034, 2038, 2036, 2033, 2039, 2034, 2039, 2039, 2040, 2037, 2035, 2040, 2031, 2035, 2041, 2038, 2034, 2041, 2031, 2040, 2032, 2031, 2030, 2040, 2041, 2037, 2036, 2040, 2037, 2037, 2038, 2035, 2043, 2042, 2037, 2035, 2038, 2041, 2039, 2039, 2036, 2037, 2037, 2038, 2034, 2036, 2036, 2038, 2034, 2033, 2038, 2034, 2039, 2032, 2043, 2033, 2041, 2031, 2036, 2037, 2039, 2034, 2032, 2035, 2043, 2033, 2033, 2038, 2035, 2038, 2038, 2037, 2034, 2038, 2030, 2038, 2037, 2042, 2033, 2033, 2041, 2034, 2037, 2034, 2037, 2038, 2035, 2037, 2038, 2038, 2037, 2036, 2034, 2032, 2033, 2035, 2036, 2039, 2042, 2037, 2040, 2046],
      "WindowCenter": [926.0, 926.0, 926.0, 926.0, 926.0, 926.0, 926.0, 926.0, 926.0, 926.0, 926.0, 926.0, 926.0, 926.0, 926.0, 926.0, 926.0, 926.0, 926.0, 926.0, 926.0, 926.0, 927.0, 926.0, 926.0, 926.0, 927.0, 926.0, 926.0, 926.0, 927.0, 926.0, 926.0, 926.0, 926.0, 926.0, 926.0, 926.0, 927.0, 926.0, 926.0, 926.0, 927.0, 927.0, 927.0, 927.0, 926.0, 926.0, 927.0, 926.0, 926.0, 926.0, 927.0, 926.0, 926.0, 927.0, 926.0, 927.0, 927.0, 927.0, 926.0, 927.0, 926.0, 926.0, 926.0, 927.0, 927.0, 927.0, 926.0, 926.0, 926.0, 927.0, 926.0, 926.0, 927.0, 927.0, 927.0, 926.0, 927.0, 927.0, 927.0, 927.0, 927.0, 927.0, 927.0, 926.0, 926.0, 927.0, 926.0, 927.0, 927.0, 926.0, 927.0, 927.0, 927.0, 927.0, 927.0, 927.0, 926.0, 927.0, 927.0, 927.0, 927.0, 926.0, 927.0, 927.0, 927.0, 927.0, 927.0, 926.0, 926.0, 927.0, 926.0, 926.0, 927.0, 927.0, 927.0, 927.0, 927.0, 927.0, 927.0, 926.0, 926.0, 926.0, 926.0, 927.0, 927.0, 927.0, 926.0, 926.0, 927.0, 927.0, 927.0, 927.0, 927.0, 927.0, 927.0, 927.0, 927.0, 927.0, 927.0, 927.0, 927.0, 927.0, 926.0, 927.0, 927.0, 927.0, 927.0, 926.0, 927.0, 927.0, 927.0, 927.0, 927.0, 927.0, 926.0, 927.0, 927.0, 927.0, 927.0, 927.0, 927.0, 927.0, 927.0, 926.0, 927.0, 927.0, 927.0, 927.0, 927.0, 927.0, 927.0, 927.0, 927.0, 926.0, 927.0, 927.0, 927.0, 927.0, 927.0, 927.0, 927.0, 927.0, 927.0, 927.0, 927.0, 927.0, 927.0, 927.0, 927.0, 927.0, 927.0, 927.0, 927.0, 927.0, 927.0, 927.0, 927.0, 926.0],
      "WindowWidth": [2107.0, 2107.0, 2107.0, 2107.0, 2107.0, 2108.0, 2107.0, 2107.0, 2108.0, 2107.0, 2108.0, 2108.0, 2107.0, 2108.0, 2107.0, 2108.0, 2108.0, 2108.0, 2108.0, 2108.0, 2108.0, 2108.0, 2108.0, 2108.0, 2108.0, 2108.0, 2108.0, 2108.0, 2108.0, 2108.0, 2108.0, 2108.0, 2108.0, 2108.0, 2107.0, 2108.0, 2108.0, 2108.0, 2108.0, 2108.0, 2107.0, 2108.0, 2108.0, 2108.0, 2108.0, 2108.0, 2108.0, 2108.0, 2108.0, 2108.0, 2108.0, 2108.0, 2108.0, 2108.0, 2108.0, 2108.0, 2108.0, 2108.0, 2108.0, 2108.0, 2108.0, 2108.0, 2108.0, 2107.0, 2108.0, 2108.0, 2108.0, 2108.0, 2108.0, 2108.0, 2108.0, 2108.0, 2108.0, 2108.0, 2108.0, 2108.0, 2108.0, 2108.0, 2108.0, 2108.0, 2108.0, 2108.0, 2107.0, 2108.0, 2108.0, 2107.0, 2108.0, 2108.0, 2108.0, 2107.0, 2108.0, 2107.0, 2108.0, 2108.0, 2108.0, 2108.0, 2108.0, 2107.0, 2108.0, 2107.0, 2108.0, 2108.0, 2108.0, 2108.0, 2108.0, 2108.0, 2108.0, 2108.0, 2108.0, 2108.0, 2108.0, 2108.0, 2108.0, 2108.0, 2108.0, 2108.0, 2108.0, 2108.0, 2108.0, 2108.0, 2108.0, 2108.0, 2108.0, 2108.0, 2108.0, 2108.0, 2107.0, 2108.0, 2108.0, 2108.0, 2108.0, 2108.0, 2108.0, 2108.0, 2108.0, 2107.0, 2108.0, 2108.0, 2108.0, 2108.0, 2108.0, 2108.0, 2107.0, 2107.0, 2107.0, 2107.0, 2107.0, 2107.0, 2108.0, 2107.0, 2107.0, 2107.0, 2107.0, 2107.0, 2107.0, 2108.0, 2108.0, 2108.0, 2108.0, 2108.0, 2108.0, 2107.0, 2107.0, 2107.0, 2107.0, 2108.0, 2107.0, 2107.0, 2108.0, 2107.0, 2107.0, 2108.0, 2108.0, 2107.0, 2107.0, 2107.0, 2107.0, 2108.0, 2108.0, 2108.0, 2108.0, 2108.0, 2107.0, 2107.0, 2108.0, 2108.0, 2108.0, 2108.0, 2108.0, 2108.0, 2107.0, 2108.0, 2108.0, 2108.0, 2107.0, 2107.0, 2108.0, 2107.0, 2107.0, 2108.0]
    },
    "slices": {}
  }
}