{
  "AcquisitionMatrixPE": 80,
  "AcquisitionNumber": 1,
  "AcquisitionTime": "11:14:3.482500",
  "BandwidthPerPixelPhaseEncode": 25,
  "BaseResolution": 80,
  "BodyPartExamined": "BRAIN",
  "CoilCombinationMethod": "Sum of Squares",
  "ConsistencyInfo": "N4_VE11C_LATEST_20160120",
  "ConversionSoftware": "dcm2niix",
  "ConversionSoftwareVersion": "v1.0.20220720",
  "DerivedVendorReportedEchoSpacing": 0.0005,
  "DeviceSerialNumber": "66112",
  "DwellTime": 2.7e-06,
  "EchoTime": 0.03,
  "EchoTrainLength": 80,
  "EffectiveEchoSpacing": 0.0005,
  "FlipAngle": 77,
  "HeudiconvVersion": "0.13.1",
  "ImageOrientationPatientDICOM": [0.986067, 0.166164, 0.00782329, -0.160415, 0.937396, 0.309121],
  "ImageOrientationText": "Tra>Cor(17.8)>Sag(-2.5)",
  "ImageType": [
    "ORIGINAL",
    "PRIMARY",
    "M",
    "ND",
    "NORM",
    "MOSAIC"
],
  "ImagingFrequency": 123.252,
  "InPlanePhaseEncodingDirectionDICOM": "COL",
  "InstitutionAddress": "Maynard 3,Hanover,NH,US,03755",
  "InstitutionName": "Dartmouth College - PBS",
  "InstitutionalDepartmentName": "Department",
  "MRAcquisitionType": "2D",
  "MagneticFieldStrength": 3,
  "Manufacturer": "Siemens",
  "ManufacturersModelName": "Prisma",
  "MatrixCoilMode": "SENSE",
  "Modality": "MR",
  "NonlinearGradientCorrection": false,
  "PartialFourier": 1,
  "PatientPosition": "HFS",
  "PercentPhaseFOV": 100,
  "PercentSampling": 100,
  "PhaseEncodingDirection": "j-",
  "PhaseEncodingSteps": 80,
  "PhaseResolution": 1,
  "PixelBandwidth": 2315,
  "ProcedureStepDescription": "dbic^QA",
  "ProtocolName": "func-bold_fa-77",
  "PulseSequenceDetails": "%SiemensSeq%\\ep2d_bold",
  "ReceiveCoilActiveElements": "HEA;HEP",
  "ReceiveCoilName": "Head_32",
  "ReconMatrixPE": 80,
  "RepetitionTime": 2,
  "SAR": 0.0437256,
  "ScanOptions": "FS",
  "ScanningSequence": "EP",
  "SequenceName": "*epfid2d1_80",
  "SequenceVariant": "SK",
  "SeriesDescription": "func-bold_fa-77",
  "SeriesNumber": 8,
  "ShimSetting": [4145, -7695, -7520, 279, -34, -134, -18, 97],
  "SliceThickness": 3.5,
  "SliceTiming": [0.99, 0, 1.0575, 0.0675, 1.1225, 0.1325, 1.1875, 0.2, 1.255, 0.265, 1.32, 0.33, 1.3875, 0.3975, 1.4525, 0.4625, 1.5175, 0.5275, 1.585, 0.595, 1.65, 0.66, 1.7175, 0.7275, 1.7825, 0.7925, 1.8475, 0.8575, 1.915, 0.925],
  "SoftwareVersions": "syngo MR E11",
  "SpacingBetweenSlices": 3.99,
  "StationName": "AWP66112",
  "TotalReadoutTime": 0.0395,
  "TxRefAmp": 220.655,
  "dcmmeta_affine": [
    [-2.9582014083862305, -0.48124393820762634, -0.1756841391324997, 141.09869384765625],
    [-0.4984912574291229, 2.8121886253356934, 1.2212138175964355, -104.83744049072266],
    [0.02346988022327423, -0.927361786365509, 3.7944529056549072, -21.133743286132812],
    [0.0, 0.0, 0.0, 1.0]
],
  "dcmmeta_reorient_transform": [
    [0.0, -1.0, 0.0, 79.0],
    [1.0, 0.0, 0.0, 0.0],
    [0.0, 0.0, 1.0, 0.0],
    [0.0, 0.0, 0.0, 1.0]
],
  "dcmmeta_shape": [80, 80, 30, 200],
  "dcmmeta_slice_dim": 2,
  "dcmmeta_version": 0.6,
  "global": {
    "const": {
      "AccessionNumber": "qa",
      "AcquisitionMatrix": [80, 0, 0, 80],
      "AngioFlag": "N",
      "BitsAllocated": 16,
      "BitsStored": 12,
      "BodyPartExamined": "BRAIN",
      "Columns": 480,
      "EchoNumbers": 1,
      "EchoTime": 30.0,
      "EchoTrainLength": 80,
      "FlipAngle": 77.0,
      "HighBit": 11,
      "ImageOrientationPatient": [0.98606713909, 0.16616375442406, 0.00782329358779, -0.1604146448935, 0.93739618086425, 0.30912059427483],
      "ImagePositionPatient": [-598.47192013106, -779.46141543151, -284.56165599326],
      "ImageType": [
        "ORIGINAL",
        "PRIMARY",
        "M",
        "ND",
        "NORM",
        "MOSAIC"
],
      "ImagedNucleus": "1H",
      "ImagingFrequency": 123.252359,
      "InPlanePhaseEncodingDirection": "COL",
      "MRAcquisitionType": "2D",
      "MagneticFieldStrength": 3.0,
      "Manufacturer": "SIEMENS",
      "ManufacturerModelName": "Prisma",
      "Modality": "MR",
      "NumberOfAverages": 1.0,
      "NumberOfPhaseEncodingSteps": 80,
      "PercentPhaseFieldOfView": 100.0,
      "PercentSampling": 100.0,
      "PerformedProcedureStepStartTime": "105617.962000",
      "PhotometricInterpretation": "MONOCHROME2",
      "PixelBandwidth": 2315.0,
      "PixelRepresentation": 0,
      "PixelSpacing": [3.0, 3.0],
      "ProtocolName": "func-bold_fa-77",
      "RepetitionTime": 2000.0,
      "Rows": 480,
      "SAR": 0.04372564274524,
      "SamplesPerPixel": 1,
      "ScanOptions": "FS",
      "ScanningSequence": "EP",
      "SequenceName": "*epfid2d1_80",
      "SequenceVariant": "SK",
      "SeriesDescription": "func-bold_fa-77",
      "SeriesNumber": 8,
      "SeriesTime": "111443.788000",
      "SliceLocation": -58.398176343827,
      "SliceThickness": 3.5,
      "SmallestImagePixelValue": 0,
      "SoftwareVersions": "syngo MR E11",
      "SpacingBetweenSlices": 3.9900000213272,
      "SpecificCharacterSet": "ISO_IR 100",
      "StudyID": "26",
      "StudyTime": "105617.903000",
      "TransmitCoilName": "Body",
      "VariableFlipAngleFlag": "N",
      "WindowCenterWidthExplanation": "Algo1",
      "dBdt": 0.0},
    "slices": {}
  },
  "time": {
    "samples": {
      "AcquisitionNumber": [1, 2, 3, 4, 5, 6, 7, 8, 9, 10, 11, 12, 13, 14, 15, 16, 17, 18, 19, 20, 21, 22, 23, 24, 25, 26, 27, 28, 29, 30, 31, 32, 33, 34, 35, 36, 37, 38, 39, 40, 41, 42, 43, 44, 45, 46, 47, 48, 49, 50, 51, 52, 53, 54, 55, 56, 57, 58, 59, 60, 61, 62, 63, 64, 65, 66, 67, 68, 69, 70, 71, 72, 73, 74, 75, 76, 77, 78, 79, 80, 81, 82, 83, 84, 85, 86, 87, 88, 89, 90, 91, 92, 93, 94, 95, 96, 97, 98, 99, 100, 101, 102, 103, 104, 105, 106, 107, 108, 109, 110, 111, 112, 113, 114, 115, 116, 117, 118, 119, 120, 121, 122, 123, 124, 125, 126, 127, 128, 129, 130, 131, 132, 133, 134, 135, 136, 137, 138, 139, 140, 141, 142, 143, 144, 145, 146, 147, 148, 149, 150, 151, 152, 153, 154, 155, 156, 157, 158, 159, 160, 161, 162, 163, 164, 165, 166, 167, 168, 169, 170, 171, 172, 173, 174, 175, 176, 177, 178, 179, 180, 181, 182, 183, 184, 185, 186, 187, 188, 189, 190, 191, 192, 193, 194, 195, 196, 197, 198, 199, 200],
      "AcquisitionTime": ["111403.482500", "111405.482500", "111407.482500", "111409.482500", "111411.482500", "111413.482500", "111415.482500", "111417.482500", "111419.482500", "111421.482500", "111423.482500", "111425.482500", "111427.482500", "111429.482500", "111431.482500", "111433.482500", "111435.482500", "111437.482500", "111439.482500", "111441.482500", "111443.482500", "111445.482500", "111447.482500", "111449.482500", "111451.482500", "111453.482500", "111455.482500", "111457.482500", "111459.482500", "111501.482500", "111503.482500", "111505.482500", "111507.482500", "111509.482500", "111511.482500", "111513.482500", "111515.482500", "111517.482500", "111519.482500", "111521.482500", "111523.482500", "111525.482500", "111527.482500", "111529.482500", "111531.482500", "111533.482500", "111535.482500", "111537.482500", "111539.482500", "111541.482500", "111543.482500", "111545.482500", "111547.482500", "111549.482500", "111551.482500", "111553.482500", "111555.482500", "111557.482500", "111559.482500", "111601.482500", "111603.482500", "111605.482500", "111607.482500", "111609.482500", "111611.482500", "111613.482500", "111615.482500", "111617.482500", "111619.482500", "111621.482500", "111623.482500", "111625.482500", "111627.482500", "111629.482500", "111631.482500", "111633.482500", "111635.482500", "111637.482500", "111639.482500", "111641.482500", "111643.482500", "111645.482500", "111647.482500", "111649.482500", "111651.482500", "111653.482500", "111655.482500", "111657.482500", "111659.482500", "111701.482500", "111703.482500", "111705.482500", "111707.482500", "111709.482500", "111711.482500", "111713.482500", "111715.482500", "111717.482500", "111719.482500", "111721.482500", "111723.482500", "111725.482500", "111727.482500", "111729.482500", "111731.482500", "111733.482500", "111735.482500", "111737.482500", "111739.482500", "111741.482500", "111743.482500", "111745.482500", "111747.482500", "111749.482500", "111751.482500", "111753.482500", "111755.482500", "111757.482500", "111759.482500", "111801.482500", "111803.482500", "111805.482500", "111807.482500", "111809.482500", "111811.482500", "111813.482500", "111815.482500", "111817.482500", "111819.482500", "111821.482500", "111823.482500", "111825.482500", "111827.482500", "111829.482500", "111831.482500", "111833.482500", "111835.482500", "111837.482500", "111839.482500", "111841.482500", "111843.482500", "111845.482500", "111847.482500", "111849.482500", "111851.482500", "111853.482500", "111855.482500", "111857.482500", "111859.482500", "111901.482500", "111903.482500", "111905.482500", "111907.482500", "111909.482500", "111911.482500", "111913.482500", "111915.482500", "111917.482500", "111919.482500", "111921.482500", "111923.482500", "111925.482500", "111927.482500", "111929.482500", "111931.482500", "111933.482500", "111935.482500", "111937.482500", "111939.482500", "111941.482500", "111943.482500", "111945.482500", "111947.482500", "111949.482500", "111951.482500", "111953.482500", "111955.482500", "111957.482500", "111959.482500", "112001.482500", "112003.482500", "112005.482500", "112007.482500", "112009.482500", "112011.482500", "112013.482500", "112015.482500", "112017.482500", "112019.482500", "112021.482500", "112023.482500", "112025.482500", "112027.482500", "112029.482500", "112031.482500", "112033.482500", "112035.482500", "112037.482500", "112039.482500", "112041.482500"],
      "ContentTime": ["111443.791000", "111443.795000", "111443.797000", "111443.800000", "111443.802000", "111443.805000", "111443.807000", "111443.810000", "111443.812000", "111443.815000", "111443.817000", "111443.820000", "111443.823000", "111443.825000", "111443.828000", "111443.830000", "111443.833000", "111443.835000", "111443.838000", "111443.840000", "111523.787000", "111523.790000", "111523.793000", "111523.795000", "111523.798000", "111523.800000", "111523.803000", "111523.805000", "111523.808000", "111523.810000", "111523.813000", "111523.816000", "111523.818000", "111523.821000", "111523.823000", "111523.833000", "111523.836000", "111523.838000", "111523.841000", "111523.843000", "111603.786000", "111603.789000", "111603.792000", "111603.794000", "111603.797000", "111603.800000", "111603.802000", "111603.805000", "111603.808000", "111603.810000", "111603.813000", "111603.815000", "111603.818000", "111603.820000", "111603.823000", "111603.825000", "111603.828000", "111603.830000", "111603.833000", "111603.835000", "111643.786000", "111643.789000", "111643.792000", "111643.794000", "111643.797000", "111643.800000", "111643.802000", "111643.805000", "111643.807000", "111643.810000", "111643.812000", "111643.815000", "111643.818000", "111643.820000", "111643.823000", "111643.825000", "111643.828000", "111643.830000", "111643.833000", "111643.836000", "111723.786000", "111723.789000", "111723.792000", "111723.794000", "111723.797000", "111723.799000", "111723.802000", "111723.805000", "111723.807000", "111723.810000", "111723.813000", "111723.815000", "111723.818000", "111723.820000", "111723.823000", "111723.825000", "111723.828000", "111723.830000", "111723.833000", "111723.836000", "111803.786000", "111803.789000", "111803.792000", "111803.794000", "111803.797000", "111803.800000", "111803.802000", "111803.805000", "111803.808000", "111803.810000", "111803.813000", "111803.815000", "111803.818000", "111803.820000", "111803.823000", "111803.826000", "111803.828000", "111803.831000", "111803.833000", "111803.836000", "111843.787000", "111843.789000", "111843.792000", "111843.794000", "111843.797000", "111843.800000", "111843.802000", "111843.805000", "111843.807000", "111843.810000", "111843.813000", "111843.815000", "111843.818000", "111843.820000", "111843.823000", "111843.826000", "111843.828000", "111843.831000", "111843.834000", "111843.836000", "111923.786000", "111923.789000", "111923.792000", "111923.794000", "111923.797000", "111923.800000", "111923.802000", "111923.805000", "111923.807000", "111923.810000", "111923.812000", "111923.815000", "111923.817000", "111923.820000", "111923.823000", "111923.825000", "111923.828000", "111923.830000", "111923.833000", "111923.835000", "112003.788000", "112003.790000", "112003.793000", "112003.795000", "112003.798000", "112003.801000", "112003.803000", "112003.806000", "112003.809000", "112003.811000", "112003.814000", "112003.816000", "112003.819000", "112003.821000", "112003.824000", "112003.827000", "112003.829000", "112003.832000", "112003.834000", "112003.837000", "112043.262000", "112043.265000", "112043.268000", "112043.270000", "112043.273000", "112043.276000", "112043.278000", "112043.281000", "112043.283000", "112043.286000", "112043.289000", "112043.291000", "112043.298000", "112043.301000", "112043.304000", "112043.308000", "112043.311000", "112043.314000", "112043.318000", "112043.321000"],
      "InstanceCreationTime": ["111443.791000", "111443.795000", "111443.797000", "111443.800000", "111443.802000", "111443.805000", "111443.807000", "111443.810000", "111443.812000", "111443.815000", "111443.817000", "111443.820000", "111443.823000", "111443.825000", "111443.828000", "111443.830000", "111443.833000", "111443.835000", "111443.838000", "111443.840000", "111523.787000", "111523.790000", "111523.793000", "111523.795000", "111523.798000", "111523.800000", "111523.803000", "111523.805000", "111523.808000", "111523.810000", "111523.813000", "111523.816000", "111523.818000", "111523.821000", "111523.823000", "111523.833000", "111523.836000", "111523.838000", "111523.841000", "111523.843000", "111603.786000", "111603.789000", "111603.792000", "111603.794000", "111603.797000", "111603.800000", "111603.802000", "111603.805000", "111603.808000", "111603.810000", "111603.813000", "111603.815000", "111603.818000", "111603.820000", "111603.823000", "111603.825000", "111603.828000", "111603.830000", "111603.833000", "111603.835000", "111643.786000", "111643.789000", "111643.792000", "111643.794000", "111643.797000", "111643.800000", "111643.802000", "111643.805000", "111643.807000", "111643.810000", "111643.812000", "111643.815000", "111643.818000", "111643.820000", "111643.823000", "111643.825000", "111643.828000", "111643.830000", "111643.833000", "111643.836000", "111723.786000", "111723.789000", "111723.792000", "111723.794000", "111723.797000", "111723.799000", "111723.802000", "111723.805000", "111723.807000", "111723.810000", "111723.813000", "111723.815000", "111723.818000", "111723.820000", "111723.823000", "111723.825000", "111723.828000", "111723.830000", "111723.833000", "111723.836000", "111803.786000", "111803.789000", "111803.792000", "111803.794000", "111803.797000", "111803.800000", "111803.802000", "111803.805000", "111803.808000", "111803.810000", "111803.813000", "111803.815000", "111803.818000", "111803.820000", "111803.823000", "111803.826000", "111803.828000", "111803.831000", "111803.833000", "111803.836000", "111843.787000", "111843.789000", "111843.792000", "111843.794000", "111843.797000", "111843.800000", "111843.802000", "111843.805000", "111843.807000", "111843.810000", "111843.813000", "111843.815000", "111843.818000", "111843.820000", "111843.823000", "111843.826000", "111843.828000", "111843.831000", "111843.834000", "111843.836000", "111923.786000", "111923.789000", "111923.792000", "111923.794000", "111923.797000", "111923.800000", "111923.802000", "111923.805000", "111923.807000", "111923.810000", "111923.812000", "111923.815000", "111923.817000", "111923.820000", "111923.823000", "111923.825000", "111923.828000", "111923.830000", "111923.833000", "111923.835000", "112003.788000", "112003.790000", "112003.793000", "112003.795000", "112003.798000", "112003.801000", "112003.803000", "112003.806000", "112003.809000", "112003.811000", "112003.814000", "112003.816000", "112003.819000", "112003.821000", "112003.824000", "112003.827000", "112003.829000", "112003.832000", "112003.834000", "112003.837000", "112043.262000", "112043.265000", "112043.268000", "112043.270000", "112043.273000", "112043.276000", "112043.278000", "112043.281000", "112043.283000", "112043.286000", "112043.289000", "112043.291000", "112043.298000", "112043.301000", "112043.304000", "112043.308000", "112043.311000", "112043.314000", "112043.318000", "112043.321000"],
      "InstanceNumber": [1, 2, 3, 4, 5, 6, 7, 8, 9, 10, 11, 12, 13, 14, 15, 16, 17, 18, 19, 20, 21, 22, 23, 24, 25, 26, 27, 28, 29, 30, 31, 32, 33, 34, 35, 36, 37, 38, 39, 40, 41, 42, 43, 44, 45, 46, 47, 48, 49, 50, 51, 52, 53, 54, 55, 56, 57, 58, 59, 60, 61, 62, 63, 64, 65, 66, 67, 68, 69, 70, 71, 72, 73, 74, 75, 76, 77, 78, 79, 80, 81, 82, 83, 84, 85, 86, 87, 88, 89, 90, 91, 92, 93, 94, 95, 96, 97, 98, 99, 100, 101, 102, 103, 104, 105, 106, 107, 108, 109, 110, 111, 112, 113, 114, 115, 116, 117, 118, 119, 120, 121, 122, 123, 124, 125, 126, 127, 128, 129, 130, 131, 132, 133, 134, 135, 136, 137, 138, 139, 140, 141, 142, 143, 144, 145, 146, 147, 148, 149, 150, 151, 152, 153, 154, 155, 156, 157, 158, 159, 160, 161, 162, 163, 164, 165, 166, 167, 168, 169, 170, 171, 172, 173, 174, 175, 176, 177, 178, 179, 180, 181, 182, 183, 184, 185, 186, 187, 188, 189, 190, 191, 192, 193, 194, 195, 196, 197, 198, 199, 200],
      "LargestImagePixelValue": [2165, 2164, 2165, 2165, 2167, 2166, 2168, 2169, 2167, 2169, 2165, 2166, 2164, 2166, 2169, 2170, 2166, 2166, 2165, 2167, 2166, 2165, 2166, 2165, 2168, 2165, 2165, 2169, 2168, 2166, 2164, 2166, 2168, 2167, 2166, 2167, 2168, 2166, 2169, 2167, 2166, 2169, 2167, 2168, 2165, 2168, 2167, 2165, 2165, 2166, 2167, 2166, 2164, 2167, 2165, 2166, 2164, 2163, 2162, 2163, 2163, 2168, 2171, 2167, 2164, 2165, 2163, 2166, 2167, 2166, 2164, 2162, 2165, 2165, 2164, 2164, 2167, 2166, 2168, 2164, 2163, 2168, 2167, 2165, 2166, 2168, 2171, 2168, 2168, 2165, 2166, 2165, 2165, 2169, 2167, 2166, 2164, 2164, 2168, 2167, 2168, 2166, 2164, 2165, 2165, 2165, 2164, 2163, 2164, 2166, 2164, 2163, 2164, 2163, 2163, 2162, 2163, 2165, 2163, 2166, 2165, 2166, 2166, 2164, 2164, 2164, 2165, 2166, 2163, 2162, 2163, 2164, 2162, 2164, 2165, 2162, 2166, 2165, 2166, 2165, 2164, 2161, 2161, 2165, 2166, 2165, 2166, 2164, 2164, 2162, 2162, 2165, 2166, 2166, 2164, 2164, 2166, 2164, 2163, 2164, 2164, 2164, 2163, 2165, 2163, 2164, 2166, 2166, 2164, 2165, 2164, 2164, 2166, 2166, 2163, 2167, 2167, 2164, 2165, 2166, 2166, 2164, 2163, 2162, 2164, 2167, 2164, 2164, 2164, 2164, 2164, 2164, 2164, 2164, 2165, 2165, 2164, 2166, 2164, 2166],
      "WindowCenter": [1001.0, 1000.0, 1001.0, 1001.0, 1001.0, 1001.0, 1001.0, 1000.0, 1000.0, 1001.0, 1001.0, 1001.0, 1001.0, 999.0, 1000.0, 1000.0, 1001.0, 1000.0, 1001.0, 1001.0, 1000.0, 1000.0, 1000.0, 999.0, 1000.0, 1000.0, 1000.0, 1001.0, 1000.0, 1000.0, 1000.0, 1001.0, 1001.0, 1001.0, 1000.0, 999.0, 1001.0, 1001.0, 1000.0, 1001.0, 999.0, 1000.0, 1001.0, 1001.0, 1000.0, 1000.0, 1000.0, 999.0, 1000.0, 1000.0, 1000.0, 1000.0, 1000.0, 1000.0, 999.0, 1000.0, 999.0, 999.0, 1000.0, 999.0, 1000.0, 999.0, 1001.0, 1000.0, 1001.0, 1000.0, 999.0, 999.0, 1001.0, 1000.0, 1000.0, 1000.0, 1000.0, 1001.0, 999.0, 1000.0, 1000.0, 1000.0, 999.0, 1000.0, 1000.0, 999.0, 1000.0, 1000.0, 1000.0, 1000.0, 1001.0, 1000.0, 1000.0, 1000.0, 1000.0, 999.0, 999.0, 999.0, 999.0, 999.0, 999.0, 999.0, 1000.0, 999.0, 999.0, 1000.0, 998.0, 999.0, 1000.0, 999.0, 999.0, 999.0, 1000.0, 999.0, 1000.0, 999.0, 999.0, 999.0, 999.0, 999.0, 1000.0, 999.0, 999.0, 999.0, 999.0, 998.0, 999.0, 999.0, 998.0, 1000.0, 999.0, 999.0, 999.0, 1000.0, 999.0, 999.0, 998.0, 999.0, 999.0, 999.0, 999.0, 999.0, 999.0, 998.0, 999.0, 997.0, 999.0, 1000.0, 999.0, 999.0, 999.0, 999.0, 998.0, 1000.0, 999.0, 1000.0, 999.0, 999.0, 1000.0, 999.0, 999.0, 1000.0, 998.0, 1000.0, 999.0, 998.0, 999.0, 999.0, 1000.0, 999.0, 999.0, 1000.0, 1000.0, 999.0, 999.0, 999.0, 999.0, 998.0, 999.0, 1000.0, 999.0, 998.0, 998.0, 998.0, 1000.0, 998.0, 1000.0, 998.0, 999.0, 999.0, 999.0, 998.0, 1000.0, 999.0, 999.0, 999.0, 999.0, 1000.0, 999.0, 999.0, 999.0, 1000.0, 1000.0, 999.0],
      "WindowWidth": [2219.0, 2217.0, 2219.0, 2218.0, 2218.0, 2218.0, 2219.0, 2218.0, 2218.0, 2219.0, 2219.0, 2218.0, 2218.0, 2217.0, 2218.0, 2218.0, 2218.0, 2218.0, 2218.0, 2218.0, 2218.0, 2218.0, 2218.0, 2217.0, 2218.0, 2218.0, 2218.0, 2218.0, 2218.0, 2217.0, 2218.0, 2218.0, 2218.0, 2218.0, 2218.0, 2217.0, 2218.0, 2218.0, 2217.0, 2218.0, 2216.0, 2217.0, 2218.0, 2218.0, 2217.0, 2217.0, 2217.0, 2216.0, 2217.0, 2217.0, 2217.0, 2217.0, 2217.0, 2217.0, 2216.0, 2217.0, 2216.0, 2216.0, 2217.0, 2216.0, 2217.0, 2216.0, 2217.0, 2217.0, 2217.0, 2217.0, 2216.0, 2216.0, 2217.0, 2216.0, 2217.0, 2216.0, 2217.0, 2217.0, 2216.0, 2217.0, 2217.0, 2217.0, 2216.0, 2217.0, 2216.0, 2216.0, 2216.0, 2216.0, 2216.0, 2216.0, 2217.0, 2217.0, 2216.0, 2216.0, 2217.0, 2216.0, 2216.0, 2216.0, 2216.0, 2216.0, 2216.0, 2216.0, 2216.0, 2216.0, 2216.0, 2216.0, 2215.0, 2216.0, 2216.0, 2215.0, 2215.0, 2216.0, 2216.0, 2216.0, 2216.0, 2216.0, 2216.0, 2216.0, 2216.0, 2215.0, 2216.0, 2216.0, 2216.0, 2216.0, 2216.0, 2215.0, 2216.0, 2216.0, 2215.0, 2216.0, 2216.0, 2216.0, 2216.0, 2216.0, 2215.0, 2216.0, 2215.0, 2215.0, 2215.0, 2216.0, 2215.0, 2216.0, 2215.0, 2215.0, 2215.0, 2214.0, 2215.0, 2216.0, 2215.0, 2215.0, 2215.0, 2215.0, 2215.0, 2217.0, 2215.0, 2216.0, 2215.0, 2215.0, 2216.0, 2215.0, 2215.0, 2216.0, 2214.0, 2216.0, 2215.0, 2215.0, 2215.0, 2215.0, 2216.0, 2215.0, 2215.0, 2216.0, 2216.0, 2215.0, 2215.0, 2215.0, 2215.0, 2214.0, 2215.0, 2215.0, 2215.0, 2214.0, 2214.0, 2214.0, 2216.0, 2214.0, 2216.0, 2214.0, 2215.0, 2215.0, 2215.0, 2214.0, 2216.0, 2215.0, 2215.0, 2215.0, 2215.0, 2216.0, 2215.0, 2215.0, 2215.0, 2216.0, 2216.0, 2215.0]
    },
    "slices": {}
  }
}