{
  "AcquisitionMatrixPE": 80,
  "AcquisitionNumber": 1,
  "AcquisitionTime": "11:06:34.255000",
  "BandwidthPerPixelPhaseEncode": 44.643,
  "BaseResolution": 80,
  "BodyPartExamined": "BRAIN",
  "CoilCombinationMethod": "Sum of Squares",
  "ConsistencyInfo": "N4_VE11C_LATEST_20160120",
  "ConversionSoftware": "dcm2niix",
  "ConversionSoftwareVersion": "v1.0.20220720",
  "DerivedVendorReportedEchoSpacing": 0.000559998,
  "DeviceSerialNumber": "66112",
  "DwellTime": 2.7e-06,
  "EchoTime": 0.035,
  "EchoTrainLength": 39,
  "EffectiveEchoSpacing": 0.000279999,
  "FlipAngle": 90,
  "HeudiconvVersion": "0.13.1",
  "ImageOrientationPatientDICOM": [0.986039, 0.166327, 0.00787724, -0.160587, 0.937367, 0.309119],
  "ImageOrientationText": "Tra>Cor(17.8)>Sag(-2.5)",
  "ImageType": [
    "ORIGINAL",
    "PRIMARY",
    "M",
    "ND",
    "NORM",
    "MOSAIC"
],
  "ImagingFrequency": 123.252,
  "InPlanePhaseEncodingDirectionDICOM": "COL",
  "InstitutionAddress": "Maynard 3,Hanover,NH,US,03755",
  "InstitutionName": "Dartmouth College - PBS",
  "InstitutionalDepartmentName": "Department",
  "MRAcquisitionType": "2D",
  "MagneticFieldStrength": 3,
  "Manufacturer": "Siemens",
  "ManufacturersModelName": "Prisma",
  "Modality": "MR",
  "MultibandAccelerationFactor": 4,
  "NonlinearGradientCorrection": false,
  "ParallelReductionFactorInPlane": 2,
  "PartialFourier": 1,
  "PatientPosition": "HFS",
  "PercentPhaseFOV": 100,
  "PercentSampling": 100,
  "PhaseEncodingDirection": "j-",
  "PhaseEncodingSteps": 79,
  "PhaseResolution": 1,
  "PixelBandwidth": 2315,
  "ProcedureStepDescription": "dbic^QA",
  "ProtocolName": "func-bold_task-rest_acq-p2-s4-3.5mm",
  "PulseSequenceDetails": "%SiemensSeq%\\ep2d_bold",
  "ReceiveCoilActiveElements": "HEA;HEP",
  "ReceiveCoilName": "Head_32",
  "ReconMatrixPE": 80,
  "RefLinesPE": 24,
  "RepetitionTime": 2,
  "SAR": 0.0209227,
  "ScanOptions": "FS",
  "ScanningSequence": "EP",
  "SequenceName": "*epfid2d1_80",
  "SequenceVariant": "SK",
  "SeriesDescription": "func-bold_task-rest_acq-p2-s4-3.5mm",
  "SeriesNumber": 7,
  "ShimSetting": [4145, -7696, -7519, 284, -35, -136, -17, 98],
  "SliceThickness": 3.5,
  "SliceTiming": [1.485, 0, 0.99, 0.2475, 1.2375, 0.7425, 1.7325, 0.495, 1.485, 0, 0.99, 0.2475, 1.2375, 0.7425, 1.7325, 0.495, 1.485, 0, 0.99, 0.2475, 1.2375, 0.7425, 1.7325, 0.495, 1.485, 0, 0.99, 0.2475, 1.2375, 0.7425, 1.7325, 0.495],
  "SoftwareVersions": "syngo MR E11",
  "SpacingBetweenSlices": 3.99,
  "StationName": "AWP66112",
  "TaskName": "rest",
  "TotalReadoutTime": 0.0221199,
  "TxRefAmp": 220.655,
  "dcmmeta_affine": [
    [-2.9581174850463867, -0.48176002502441406, -0.17568406462669373, 142.30023193359375],
    [-0.49898186326026917, 2.8121016025543213, 1.2212138175964355, -112.02245330810547],
    [0.023631714284420013, -0.9273576140403748, 3.7944529056549072, -24.981569290161133],
    [0.0, 0.0, 0.0, 1.0]
],
  "dcmmeta_reorient_transform": [
    [0.0, -1.0, 0.0, 79.0],
    [1.0, 0.0, 0.0, 0.0],
    [0.0, 0.0, 1.0, 0.0],
    [0.0, 0.0, 0.0, 1.0]
],
  "dcmmeta_shape": [80, 80, 32, 200],
  "dcmmeta_slice_dim": 2,
  "dcmmeta_version": 0.6,
  "global": {
    "const": {
      "AccessionNumber": "qa",
      "AcquisitionMatrix": [80, 0, 0, 80],
      "AngioFlag": "N",
      "BitsAllocated": 16,
      "BitsStored": 12,
      "BodyPartExamined": "BRAIN",
      "Columns": 480,
      "EchoNumbers": 1,
      "EchoTime": 35.0,
      "EchoTrainLength": 39,
      "FlipAngle": 90.0,
      "HighBit": 11,
      "ImageOrientationPatient": [0.98603913824679, 0.16632728870099, 0.00787723802584, -0.1605866762181, 0.93736718440799, 0.30911920195332],
      "ImagePositionPatient": [-599.51266660063, -772.35025386906, -288.44068385531],
      "ImageType": [
        "ORIGINAL",
        "PRIMARY",
        "M",
        "ND",
        "NORM",
        "MOSAIC"
],
      "ImagedNucleus": "1H",
      "ImagingFrequency": 123.25236,
      "InPlanePhaseEncodingDirection": "COL",
      "MRAcquisitionType": "2D",
      "MagneticFieldStrength": 3.0,
      "Manufacturer": "SIEMENS",
      "ManufacturerModelName": "Prisma",
      "Modality": "MR",
      "NumberOfAverages": 1.0,
      "NumberOfPhaseEncodingSteps": 79,
      "PercentPhaseFieldOfView": 100.0,
      "PercentSampling": 100.0,
      "PerformedProcedureStepStartTime": "105617.962000",
      "PhotometricInterpretation": "MONOCHROME2",
      "PixelBandwidth": 2315.0,
      "PixelRepresentation": 0,
      "PixelSpacing": [3.0, 3.0],
      "ProtocolName": "func-bold_task-rest_acq-p2-s4-3.5mm",
      "RepetitionTime": 2000.0,
      "Rows": 480,
      "SAR": 0.02092271791753,
      "SamplesPerPixel": 1,
      "ScanOptions": "FS",
      "ScanningSequence": "EP",
      "SequenceName": "*epfid2d1_80",
      "SequenceVariant": "SK",
      "SeriesDescription": "func-bold_task-rest_acq-p2-s4-3.5mm",
      "SeriesNumber": 7,
      "SeriesTime": "110723.928000",
      "SliceLocation": -64.309430643241,
      "SliceThickness": 3.5,
      "SmallestImagePixelValue": 0,
      "SoftwareVersions": "syngo MR E11",
      "SpacingBetweenSlices": 3.9900000031468,
      "SpecificCharacterSet": "ISO_IR 100",
      "StudyID": "26",
      "StudyTime": "105617.903000",
      "TransmitCoilName": "Body",
      "VariableFlipAngleFlag": "N",
      "WindowCenterWidthExplanation": "Algo1",
      "dBdt": 0.0},
    "slices": {}
  },
  "time": {
    "samples": {
      "AcquisitionNumber": [1, 2, 3, 4, 5, 6, 7, 8, 9, 10, 11, 12, 13, 14, 15, 16, 17, 18, 19, 20, 21, 22, 23, 24, 25, 26, 27, 28, 29, 30, 31, 32, 33, 34, 35, 36, 37, 38, 39, 40, 41, 42, 43, 44, 45, 46, 47, 48, 49, 50, 51, 52, 53, 54, 55, 56, 57, 58, 59, 60, 61, 62, 63, 64, 65, 66, 67, 68, 69, 70, 71, 72, 73, 74, 75, 76, 77, 78, 79, 80, 81, 82, 83, 84, 85, 86, 87, 88, 89, 90, 91, 92, 93, 94, 95, 96, 97, 98, 99, 100, 101, 102, 103, 104, 105, 106, 107, 108, 109, 110, 111, 112, 113, 114, 115, 116, 117, 118, 119, 120, 121, 122, 123, 124, 125, 126, 127, 128, 129, 130, 131, 132, 133, 134, 135, 136, 137, 138, 139, 140, 141, 142, 143, 144, 145, 146, 147, 148, 149, 150, 151, 152, 153, 154, 155, 156, 157, 158, 159, 160, 161, 162, 163, 164, 165, 166, 167, 168, 169, 170, 171, 172, 173, 174, 175, 176, 177, 178, 179, 180, 181, 182, 183, 184, 185, 186, 187, 188, 189, 190, 191, 192, 193, 194, 195, 196, 197, 198, 199, 200],
      "AcquisitionTime": ["110634.255000", "110636.255000", "110638.255000", "110640.255000", "110642.255000", "110644.255000", "110646.255000", "110648.255000", "110650.255000", "110652.255000", "110654.255000", "110656.255000", "110658.255000", "110700.255000", "110702.255000", "110704.255000", "110706.255000", "110708.255000", "110710.255000", "110712.255000", "110714.255000", "110716.255000", "110718.255000", "110720.255000", "110722.255000", "110724.255000", "110726.255000", "110728.255000", "110730.255000", "110732.255000", "110734.255000", "110736.255000", "110738.255000", "110740.255000", "110742.255000", "110744.255000", "110746.255000", "110748.255000", "110750.255000", "110752.255000", "110754.255000", "110756.255000", "110758.255000", "110800.255000", "110802.255000", "110804.255000", "110806.255000", "110808.255000", "110810.255000", "110812.255000", "110814.255000", "110816.255000", "110818.255000", "110820.255000", "110822.255000", "110824.255000", "110826.255000", "110828.255000", "110830.255000", "110832.255000", "110834.255000", "110836.255000", "110838.255000", "110840.255000", "110842.255000", "110844.255000", "110846.255000", "110848.255000", "110850.255000", "110852.255000", "110854.255000", "110856.255000", "110858.255000", "110900.255000", "110902.255000", "110904.255000", "110906.255000", "110908.255000", "110910.255000", "110912.255000", "110914.255000", "110916.255000", "110918.255000", "110920.255000", "110922.255000", "110924.255000", "110926.255000", "110928.255000", "110930.255000", "110932.255000", "110934.255000", "110936.255000", "110938.255000", "110940.255000", "110942.255000", "110944.255000", "110946.255000", "110948.255000", "110950.255000", "110952.255000", "110954.255000", "110956.255000", "110958.255000", "111000.255000", "111002.255000", "111004.255000", "111006.255000", "111008.255000", "111010.255000", "111012.255000", "111014.255000", "111016.255000", "111018.255000", "111020.255000", "111022.255000", "111024.255000", "111026.255000", "111028.255000", "111030.255000", "111032.255000", "111034.255000", "111036.255000", "111038.255000", "111040.255000", "111042.255000", "111044.255000", "111046.255000", "111048.255000", "111050.255000", "111052.255000", "111054.255000", "111056.255000", "111058.255000", "111100.255000", "111102.255000", "111104.255000", "111106.255000", "111108.255000", "111110.255000", "111112.255000", "111114.255000", "111116.255000", "111118.255000", "111120.255000", "111122.255000", "111124.255000", "111126.255000", "111128.255000", "111130.255000", "111132.255000", "111134.255000", "111136.255000", "111138.255000", "111140.255000", "111142.255000", "111144.255000", "111146.255000", "111148.255000", "111150.255000", "111152.255000", "111154.255000", "111156.255000", "111158.255000", "111200.255000", "111202.255000", "111204.255000", "111206.255000", "111208.255000", "111210.255000", "111212.255000", "111214.255000", "111216.255000", "111218.255000", "111220.255000", "111222.255000", "111224.255000", "111226.255000", "111228.255000", "111230.255000", "111232.255000", "111234.255000", "111236.255000", "111238.255000", "111240.255000", "111242.255000", "111244.255000", "111246.255000", "111248.255000", "111250.255000", "111252.255000", "111254.255000", "111256.255000", "111258.255000", "111300.255000", "111302.255000", "111304.255000", "111306.255000", "111308.255000", "111310.255000", "111312.255000"],
      "ContentTime": ["110723.931000", "110723.935000", "110723.937000", "110723.940000", "110723.952000", "110723.954000", "110723.957000", "110723.960000", "110723.962000", "110723.970000", "110723.972000", "110723.975000", "110723.982000", "110723.984000", "110723.987000", "110723.989000", "110723.992000", "110723.995000", "110723.997000", "110724.001000", "110724.004000", "110724.006000", "110724.009000", "110724.012000", "110724.014000", "110803.927000", "110803.930000", "110803.932000", "110803.935000", "110803.937000", "110803.940000", "110803.943000", "110803.945000", "110803.948000", "110803.951000", "110803.953000", "110803.964000", "110803.967000", "110803.970000", "110803.972000", "110803.975000", "110803.978000", "110803.981000", "110803.983000", "110803.986000", "110843.927000", "110843.930000", "110843.932000", "110843.935000", "110843.937000", "110843.940000", "110843.943000", "110843.945000", "110843.948000", "110843.951000", "110843.953000", "110843.956000", "110843.958000", "110843.961000", "110843.964000", "110843.966000", "110843.969000", "110843.972000", "110843.974000", "110843.977000", "110923.927000", "110923.930000", "110923.932000", "110923.935000", "110923.937000", "110923.940000", "110923.943000", "110923.945000", "110923.948000", "110923.951000", "110923.953000", "110923.956000", "110923.958000", "110923.961000", "110923.964000", "110923.966000", "110923.969000", "110923.972000", "110923.974000", "110923.977000", "111003.927000", "111003.930000", "111003.932000", "111003.935000", "111003.937000", "111003.940000", "111003.943000", "111003.945000", "111003.948000", "111003.951000", "111003.953000", "111003.956000", "111003.958000", "111003.961000", "111003.964000", "111003.966000", "111003.969000", "111003.972000", "111003.974000", "111003.977000", "111043.928000", "111043.931000", "111043.933000", "111043.936000", "111043.939000", "111043.941000", "111043.944000", "111043.946000", "111043.949000", "111043.952000", "111043.954000", "111043.957000", "111043.960000", "111043.962000", "111043.965000", "111043.967000", "111043.970000", "111043.973000", "111043.975000", "111043.978000", "111123.926000", "111123.929000", "111123.932000", "111123.935000", "111123.937000", "111123.940000", "111123.942000", "111123.945000", "111123.947000", "111123.950000", "111123.953000", "111123.955000", "111123.958000", "111123.960000", "111123.963000", "111123.966000", "111123.968000", "111123.971000", "111123.974000", "111123.976000", "111203.927000", "111203.929000", "111203.932000", "111203.935000", "111203.938000", "111203.940000", "111203.943000", "111203.945000", "111203.948000", "111203.951000", "111203.953000", "111203.956000", "111203.959000", "111203.961000", "111203.964000", "111203.967000", "111203.969000", "111203.972000", "111203.975000", "111203.977000", "111243.927000", "111243.929000", "111243.932000", "111243.934000", "111243.937000", "111243.940000", "111243.942000", "111243.945000", "111243.948000", "111243.950000", "111243.953000", "111243.955000", "111243.958000", "111243.961000", "111243.963000", "111243.966000", "111243.968000", "111243.971000", "111243.973000", "111243.976000", "111313.177000", "111313.180000", "111313.182000", "111313.185000", "111313.188000", "111313.191000", "111313.193000", "111313.196000", "111313.199000", "111313.201000", "111313.204000", "111313.207000", "111313.210000", "111313.214000", "111313.222000"],
      "InstanceCreationTime": ["110723.931000", "110723.935000", "110723.937000", "110723.940000", "110723.952000", "110723.954000", "110723.957000", "110723.960000", "110723.962000", "110723.970000", "110723.972000", "110723.975000", "110723.982000", "110723.984000", "110723.987000", "110723.989000", "110723.992000", "110723.995000", "110723.997000", "110724.001000", "110724.004000", "110724.006000", "110724.009000", "110724.012000", "110724.014000", "110803.927000", "110803.930000", "110803.932000", "110803.935000", "110803.937000", "110803.940000", "110803.943000", "110803.945000", "110803.948000", "110803.951000", "110803.953000", "110803.964000", "110803.967000", "110803.970000", "110803.972000", "110803.975000", "110803.978000", "110803.981000", "110803.983000", "110803.986000", "110843.927000", "110843.930000", "110843.932000", "110843.935000", "110843.937000", "110843.940000", "110843.943000", "110843.945000", "110843.948000", "110843.951000", "110843.953000", "110843.956000", "110843.958000", "110843.961000", "110843.964000", "110843.966000", "110843.969000", "110843.972000", "110843.974000", "110843.977000", "110923.927000", "110923.930000", "110923.932000", "110923.935000", "110923.937000", "110923.940000", "110923.943000", "110923.945000", "110923.948000", "110923.951000", "110923.953000", "110923.956000", "110923.958000", "110923.961000", "110923.964000", "110923.966000", "110923.969000", "110923.972000", "110923.974000", "110923.977000", "111003.927000", "111003.930000", "111003.932000", "111003.935000", "111003.937000", "111003.940000", "111003.943000", "111003.945000", "111003.948000", "111003.951000", "111003.953000", "111003.956000", "111003.958000", "111003.961000", "111003.964000", "111003.966000", "111003.969000", "111003.972000", "111003.974000", "111003.977000", "111043.928000", "111043.931000", "111043.933000", "111043.936000", "111043.939000", "111043.941000", "111043.944000", "111043.946000", "111043.949000", "111043.952000", "111043.954000", "111043.957000", "111043.960000", "111043.962000", "111043.965000", "111043.967000", "111043.970000", "111043.973000", "111043.975000", "111043.978000", "111123.926000", "111123.929000", "111123.932000", "111123.935000", "111123.937000", "111123.940000", "111123.942000", "111123.945000", "111123.947000", "111123.950000", "111123.953000", "111123.955000", "111123.958000", "111123.960000", "111123.963000", "111123.966000", "111123.968000", "111123.971000", "111123.974000", "111123.976000", "111203.927000", "111203.929000", "111203.932000", "111203.935000", "111203.938000", "111203.940000", "111203.943000", "111203.945000", "111203.948000", "111203.951000", "111203.953000", "111203.956000", "111203.959000", "111203.961000", "111203.964000", "111203.967000", "111203.969000", "111203.972000", "111203.975000", "111203.977000", "111243.927000", "111243.929000", "111243.932000", "111243.934000", "111243.937000", "111243.940000", "111243.942000", "111243.945000", "111243.948000", "111243.950000", "111243.953000", "111243.955000", "111243.958000", "111243.961000", "111243.963000", "111243.966000", "111243.968000", "111243.971000", "111243.973000", "111243.976000", "111313.177000", "111313.180000", "111313.182000", "111313.185000", "111313.188000", "111313.191000", "111313.193000", "111313.196000", "111313.199000", "111313.201000", "111313.204000", "111313.207000", "111313.210000", "111313.214000", "111313.222000"],
      "InstanceNumber": [1, 2, 3, 4, 5, 6, 7, 8, 9, 10, 11, 12, 13, 14, 15, 16, 17, 18, 19, 20, 21, 22, 23, 24, 25, 26, 27, 28, 29, 30, 31, 32, 33, 34, 35, 36, 37, 38, 39, 40, 41, 42, 43, 44, 45, 46, 47, 48, 49, 50, 51, 52, 53, 54, 55, 56, 57, 58, 59, 60, 61, 62, 63, 64, 65, 66, 67, 68, 69, 70, 71, 72, 73, 74, 75, 76, 77, 78, 79, 80, 81, 82, 83, 84, 85, 86, 87, 88, 89, 90, 91, 92, 93, 94, 95, 96, 97, 98, 99, 100, 101, 102, 103, 104, 105, 106, 107, 108, 109, 110, 111, 112, 113, 114, 115, 116, 117, 118, 119, 120, 121, 122, 123, 124, 125, 126, 127, 128, 129, 130, 131, 132, 133, 134, 135, 136, 137, 138, 139, 140, 141, 142, 143, 144, 145, 146, 147, 148, 149, 150, 151, 152, 153, 154, 155, 156, 157, 158, 159, 160, 161, 162, 163, 164, 165, 166, 167, 168, 169, 170, 171, 172, 173, 174, 175, 176, 177, 178, 179, 180, 181, 182, 183, 184, 185, 186, 187, 188, 189, 190, 191, 192, 193, 194, 195, 196, 197, 198, 199, 200],
      "LargestImagePixelValue": [2126, 2126, 2130, 2133, 2132, 2131, 2132, 2136, 2140, 2137, 2136, 2133, 2132, 2133, 2129, 2131, 2133, 2129, 2134, 2130, 2133, 2132, 2130, 2133, 2132, 2132, 2140, 2131, 2131, 2134, 2129, 2130, 2130, 2129, 2129, 2127, 2132, 2132, 2131, 2125, 2130, 2128, 2134, 2132, 2128, 2131, 2131, 2133, 2135, 2127, 2131, 2130, 2129, 2129, 2132, 2125, 2126, 2127, 2131, 2130, 2126, 2131, 2132, 2132, 2127, 2126, 2130, 2132, 2131, 2130, 2135, 2135, 2130, 2129, 2128, 2130, 2130, 2127, 2133, 2129, 2132, 2133, 2129, 2132, 2133, 2126, 2130, 2129, 2127, 2131, 2127, 2130, 2129, 2128, 2130, 2130, 2127, 2136, 2131, 2127, 2130, 2129, 2132, 2125, 2126, 2130, 2126, 2129, 2130, 2127, 2127, 2130, 2132, 2129, 2130, 2127, 2127, 2129, 2129, 2130, 2129, 2126, 2130, 2128, 2129, 2130, 2130, 2132, 2131, 2130, 2131, 2129, 2129, 2129, 2131, 2124, 2132, 2128, 2132, 2132, 2128, 2127, 2122, 2129, 2128, 2134, 2131, 2136, 2133, 2129, 2130, 2129, 2131, 2130, 2131, 2128, 2130, 2129, 2124, 2134, 2133, 2128, 2126, 2126, 2129, 2128, 2132, 2123, 2133, 2130, 2125, 2132, 2128, 2130, 2130, 2127, 2130, 2129, 2131, 2128, 2132, 2130, 2138, 2127, 2130, 2128, 2128, 2131, 2121, 2130, 2129, 2132, 2131, 2132, 2134, 2132, 2130, 2134, 2131, 2131],
      "WindowCenter": [942.0, 942.0, 945.0, 944.0, 945.0, 944.0, 944.0, 944.0, 945.0, 942.0, 944.0, 942.0, 945.0, 945.0, 944.0, 945.0, 944.0, 945.0, 942.0, 944.0, 944.0, 944.0, 944.0, 944.0, 944.0, 942.0, 944.0, 945.0, 942.0, 943.0, 944.0, 944.0, 944.0, 945.0, 942.0, 944.0, 944.0, 943.0, 944.0, 945.0, 944.0, 944.0, 945.0, 945.0, 942.0, 945.0, 945.0, 943.0, 944.0, 944.0, 944.0, 944.0, 944.0, 944.0, 944.0, 942.0, 945.0, 944.0, 944.0, 945.0, 945.0, 944.0, 944.0, 944.0, 945.0, 944.0, 945.0, 944.0, 944.0, 945.0, 945.0, 942.0, 944.0, 943.0, 945.0, 943.0, 944.0, 944.0, 944.0, 944.0, 944.0, 944.0, 945.0, 944.0, 944.0, 945.0, 943.0, 942.0, 945.0, 944.0, 944.0, 944.0, 944.0, 942.0, 944.0, 944.0, 944.0, 944.0, 944.0, 945.0, 944.0, 944.0, 944.0, 944.0, 944.0, 944.0, 945.0, 942.0, 942.0, 944.0, 944.0, 944.0, 944.0, 944.0, 945.0, 944.0, 944.0, 945.0, 942.0, 945.0, 942.0, 945.0, 945.0, 944.0, 945.0, 944.0, 945.0, 944.0, 944.0, 945.0, 944.0, 944.0, 945.0, 944.0, 944.0, 944.0, 943.0, 944.0, 942.0, 944.0, 944.0, 944.0, 944.0, 945.0, 945.0, 944.0, 942.0, 944.0, 945.0, 945.0, 945.0, 942.0, 944.0, 944.0, 945.0, 945.0, 944.0, 944.0, 944.0, 944.0, 945.0, 945.0, 944.0, 944.0, 944.0, 944.0, 944.0, 944.0, 944.0, 942.0, 944.0, 944.0, 942.0, 945.0, 944.0, 944.0, 945.0, 944.0, 945.0, 944.0, 944.0, 944.0, 944.0, 944.0, 945.0, 944.0, 945.0, 944.0, 944.0, 944.0, 945.0, 944.0, 944.0, 944.0, 942.0, 944.0, 944.0, 945.0, 945.0, 944.0],
      "WindowWidth": [2180.0, 2180.0, 2182.0, 2182.0, 2182.0, 2182.0, 2181.0, 2182.0, 2182.0, 2180.0, 2181.0, 2180.0, 2183.0, 2183.0, 2181.0, 2183.0, 2182.0, 2182.0, 2180.0, 2181.0, 2182.0, 2181.0, 2181.0, 2181.0, 2182.0, 2180.0, 2181.0, 2183.0, 2180.0, 2181.0, 2182.0, 2182.0, 2182.0, 2183.0, 2180.0, 2181.0, 2181.0, 2181.0, 2182.0, 2183.0, 2182.0, 2182.0, 2183.0, 2183.0, 2180.0, 2183.0, 2183.0, 2181.0, 2182.0, 2182.0, 2182.0, 2182.0, 2182.0, 2181.0, 2182.0, 2180.0, 2183.0, 2182.0, 2182.0, 2183.0, 2183.0, 2182.0, 2182.0, 2182.0, 2183.0, 2181.0, 2183.0, 2182.0, 2182.0, 2183.0, 2183.0, 2180.0, 2182.0, 2181.0, 2183.0, 2181.0, 2182.0, 2181.0, 2182.0, 2182.0, 2182.0, 2182.0, 2182.0, 2182.0, 2181.0, 2183.0, 2181.0, 2180.0, 2183.0, 2182.0, 2182.0, 2182.0, 2181.0, 2180.0, 2182.0, 2182.0, 2181.0, 2182.0, 2181.0, 2183.0, 2181.0, 2181.0, 2182.0, 2181.0, 2182.0, 2181.0, 2183.0, 2180.0, 2180.0, 2182.0, 2181.0, 2182.0, 2182.0, 2181.0, 2183.0, 2182.0, 2181.0, 2183.0, 2180.0, 2183.0, 2180.0, 2182.0, 2182.0, 2181.0, 2182.0, 2181.0, 2183.0, 2181.0, 2182.0, 2182.0, 2182.0, 2181.0, 2182.0, 2182.0, 2181.0, 2181.0, 2181.0, 2182.0, 2180.0, 2181.0, 2181.0, 2182.0, 2182.0, 2182.0, 2182.0, 2182.0, 2180.0, 2181.0, 2183.0, 2182.0, 2182.0, 2180.0, 2182.0, 2181.0, 2182.0, 2182.0, 2181.0, 2181.0, 2181.0, 2181.0, 2182.0, 2182.0, 2181.0, 2182.0, 2182.0, 2181.0, 2181.0, 2181.0, 2181.0, 2180.0, 2181.0, 2181.0, 2180.0, 2182.0, 2181.0, 2181.0, 2183.0, 2181.0, 2182.0, 2181.0, 2181.0, 2182.0, 2181.0, 2181.0, 2182.0, 2181.0, 2182.0, 2182.0, 2181.0, 2181.0, 2182.0, 2181.0, 2181.0, 2181.0, 2180.0, 2181.0, 2181.0, 2182.0, 2182.0, 2181.0]
    },
    "slices": {}
  }
}