{
  "AcquisitionMatrixPE": 80,
  "AcquisitionNumber": 1,
  "AcquisitionTime": "10:59:39.467500",
  "BandwidthPerPixelPhaseEncode": 48.077,
  "BaseResolution": 80,
  "BodyPartExamined": "BRAIN",
  "CoilCombinationMethod": "Sum of Squares",
  "ConsistencyInfo": "N4_VE11C_LATEST_20160120",
  "ConversionSoftware": "dcm2niix",
  "ConversionSoftwareVersion": "v1.0.20220720",
  "DerivedVendorReportedEchoSpacing": 0.000519999,
  "DeviceSerialNumber": "66112",
  "DwellTime": 2.7e-06,
  "EchoTime": 0.035,
  "EchoTrainLength": 39,
  "EffectiveEchoSpacing": 0.00026,
  "FlipAngle": 90,
  "HeudiconvVersion": "0.13.1",
  "ImageOrientationPatientDICOM": [0.986039, 0.166327, 0.00787724, -0.160587, 0.937367, 0.309119],
  "ImageOrientationText": "Tra>Cor(17.8)>Sag(-2.5)",
  "ImageType": [
    "ORIGINAL",
    "PRIMARY",
    "M",
    "ND",
    "NORM",
    "MOSAIC"
],
  "ImagingFrequency": 123.252,
  "InPlanePhaseEncodingDirectionDICOM": "COL",
  "InstitutionAddress": "Maynard 3,Hanover,NH,US,03755",
  "InstitutionName": "Dartmouth College - PBS",
  "InstitutionalDepartmentName": "Department",
  "MRAcquisitionType": "2D",
  "MagneticFieldStrength": 3,
  "Manufacturer": "Siemens",
  "ManufacturersModelName": "Prisma",
  "MatrixCoilMode": "GRAPPA",
  "Modality": "MR",
  "NonlinearGradientCorrection": false,
  "ParallelReductionFactorInPlane": 2,
  "PartialFourier": 1,
  "PatientPosition": "HFS",
  "PercentPhaseFOV": 100,
  "PercentSampling": 100,
  "PhaseEncodingDirection": "j-",
  "PhaseEncodingSteps": 79,
  "PhaseResolution": 1,
  "PixelBandwidth": 2315,
  "ProcedureStepDescription": "dbic^QA",
  "ProtocolName": "func-bold_task-rest_acq-p2",
  "PulseSequenceDetails": "%SiemensSeq%\\ep2d_bold",
  "ReceiveCoilActiveElements": "HEA;HEP",
  "ReceiveCoilName": "Head_32",
  "ReconMatrixPE": 80,
  "RefLinesPE": 24,
  "RepetitionTime": 2,
  "SAR": 0.0556412,
  "ScanOptions": "FS",
  "ScanningSequence": "EP",
  "SequenceName": "*epfid2d1_80",
  "SequenceVariant": "SK",
  "SeriesDescription": "func-bold_task-rest_acq-p2",
  "SeriesNumber": 5,
  "ShimSetting": [4145, -7695, -7520, 280, -34, -137, -21, 97],
  "SliceThickness": 3.5,
  "SliceTiming": [0.99, 0, 1.0575, 0.0675, 1.1225, 0.1325, 1.19, 0.2, 1.255, 0.265, 1.32, 0.33, 1.3875, 0.3975, 1.4525, 0.4625, 1.5175, 0.53, 1.585, 0.595, 1.65, 0.66, 1.7175, 0.7275, 1.7825, 0.7925, 1.8475, 0.86, 1.915, 0.925],
  "SoftwareVersions": "syngo MR E11",
  "SpacingBetweenSlices": 3.99,
  "StationName": "AWP66112",
  "TaskName": "rest",
  "TotalReadoutTime": 0.02054,
  "TxRefAmp": 220.655,
  "dcmmeta_affine": [
    [-2.9581174850463867, -0.48176002502441406, -0.17568406462669373, 142.12454223632812],
    [-0.49898186326026917, 2.8121016025543213, 1.2212138175964355, -110.80123901367188],
    [0.023631714284420013, -0.9273576140403748, 3.7944529056549072, -21.187116622924805],
    [0.0, 0.0, 0.0, 1.0]
],
  "dcmmeta_reorient_transform": [
    [0.0, -1.0, 0.0, 79.0],
    [1.0, 0.0, 0.0, 0.0],
    [0.0, 0.0, 1.0, 0.0],
    [0.0, 0.0, 0.0, 1.0]
],
  "dcmmeta_shape": [80, 80, 30, 200],
  "dcmmeta_slice_dim": 2,
  "dcmmeta_version": 0.6,
  "global": {
    "const": {
      "AccessionNumber": "qa",
      "AcquisitionMatrix": [80, 0, 0, 80],
      "AngioFlag": "N",
      "BitsAllocated": 16,
      "BitsStored": 12,
      "BodyPartExamined": "BRAIN",
      "Columns": 480,
      "EchoNumbers": 1,
      "EchoTime": 35.0,
      "EchoTrainLength": 39,
      "FlipAngle": 90.0,
      "HighBit": 11,
      "ImageOrientationPatient": [0.98603913824679, 0.16632728870099, 0.00787723802584, -0.1605866762181, 0.93736718440799, 0.30911920195332],
      "ImagePositionPatient": [-599.33698262541, -773.57146816349, -284.64623118807],
      "ImageType": [
        "ORIGINAL",
        "PRIMARY",
        "M",
        "ND",
        "NORM",
        "MOSAIC"
],
      "ImagedNucleus": "1H",
      "ImagingFrequency": 123.25236,
      "InPlanePhaseEncodingDirection": "COL",
      "MRAcquisitionType": "2D",
      "MagneticFieldStrength": 3.0,
      "Manufacturer": "SIEMENS",
      "ManufacturerModelName": "Prisma",
      "Modality": "MR",
      "NumberOfAverages": 1.0,
      "NumberOfPhaseEncodingSteps": 79,
      "PercentPhaseFieldOfView": 100.0,
      "PercentSampling": 100.0,
      "PerformedProcedureStepStartTime": "105617.962000",
      "PhotometricInterpretation": "MONOCHROME2",
      "PixelBandwidth": 2315.0,
      "PixelRepresentation": 0,
      "PixelSpacing": [3.0, 3.0],
      "ProtocolName": "func-bold_task-rest_acq-p2",
      "RepetitionTime": 2000.0,
      "Rows": 480,
      "SAR": 0.05564121727004,
      "SamplesPerPixel": 1,
      "ScanOptions": "FS",
      "ScanningSequence": "EP",
      "SequenceName": "*epfid2d1_80",
      "SequenceVariant": "SK",
      "SeriesDescription": "func-bold_task-rest_acq-p2",
      "SeriesNumber": 5,
      "SeriesTime": "110023.858000",
      "SliceLocation": -60.319430611164,
      "SliceThickness": 3.5,
      "SmallestImagePixelValue": 0,
      "SoftwareVersions": "syngo MR E11",
      "SpacingBetweenSlices": 3.9900000110584,
      "SpecificCharacterSet": "ISO_IR 100",
      "StudyID": "26",
      "StudyTime": "105617.903000",
      "TransmitCoilName": "Body",
      "VariableFlipAngleFlag": "N",
      "WindowCenterWidthExplanation": "Algo1",
      "dBdt": 0.0},
    "slices": {}
  },
  "time": {
    "samples": {
      "AcquisitionNumber": [1, 2, 3, 4, 5, 6, 7, 8, 9, 10, 11, 12, 13, 14, 15, 16, 17, 18, 19, 20, 21, 22, 23, 24, 25, 26, 27, 28, 29, 30, 31, 32, 33, 34, 35, 36, 37, 38, 39, 40, 41, 42, 43, 44, 45, 46, 47, 48, 49, 50, 51, 52, 53, 54, 55, 56, 57, 58, 59, 60, 61, 62, 63, 64, 65, 66, 67, 68, 69, 70, 71, 72, 73, 74, 75, 76, 77, 78, 79, 80, 81, 82, 83, 84, 85, 86, 87, 88, 89, 90, 91, 92, 93, 94, 95, 96, 97, 98, 99, 100, 101, 102, 103, 104, 105, 106, 107, 108, 109, 110, 111, 112, 113, 114, 115, 116, 117, 118, 119, 120, 121, 122, 123, 124, 125, 126, 127, 128, 129, 130, 131, 132, 133, 134, 135, 136, 137, 138, 139, 140, 141, 142, 143, 144, 145, 146, 147, 148, 149, 150, 151, 152, 153, 154, 155, 156, 157, 158, 159, 160, 161, 162, 163, 164, 165, 166, 167, 168, 169, 170, 171, 172, 173, 174, 175, 176, 177, 178, 179, 180, 181, 182, 183, 184, 185, 186, 187, 188, 189, 190, 191, 192, 193, 194, 195, 196, 197, 198, 199, 200],
      "AcquisitionTime": ["105939.467500", "105941.467500", "105943.467500", "105945.467500", "105947.467500", "105949.467500", "105951.467500", "105953.467500", "105955.467500", "105957.467500", "105959.467500", "110001.467500", "110003.467500", "110005.467500", "110007.467500", "110009.467500", "110011.467500", "110013.467500", "110015.467500", "110017.467500", "110019.467500", "110021.467500", "110023.467500", "110025.467500", "110027.467500", "110029.467500", "110031.467500", "110033.467500", "110035.467500", "110037.467500", "110039.467500", "110041.467500", "110043.467500", "110045.467500", "110047.467500", "110049.467500", "110051.467500", "110053.467500", "110055.467500", "110057.467500", "110059.467500", "110101.467500", "110103.467500", "110105.467500", "110107.467500", "110109.467500", "110111.467500", "110113.467500", "110115.467500", "110117.467500", "110119.467500", "110121.467500", "110123.467500", "110125.467500", "110127.467500", "110129.467500", "110131.467500", "110133.467500", "110135.467500", "110137.467500", "110139.467500", "110141.467500", "110143.467500", "110145.467500", "110147.467500", "110149.467500", "110151.467500", "110153.467500", "110155.467500", "110157.467500", "110159.467500", "110201.467500", "110203.467500", "110205.467500", "110207.467500", "110209.467500", "110211.467500", "110213.467500", "110215.467500", "110217.467500", "110219.467500", "110221.467500", "110223.467500", "110225.467500", "110227.467500", "110229.467500", "110231.467500", "110233.467500", "110235.467500", "110237.467500", "110239.467500", "110241.467500", "110243.467500", "110245.467500", "110247.467500", "110249.467500", "110251.467500", "110253.467500", "110255.467500", "110257.467500", "110259.467500", "110301.467500", "110303.467500", "110305.467500", "110307.467500", "110309.467500", "110311.467500", "110313.467500", "110315.467500", "110317.467500", "110319.467500", "110321.467500", "110323.467500", "110325.467500", "110327.467500", "110329.467500", "110331.467500", "110333.467500", "110335.467500", "110337.467500", "110339.467500", "110341.467500", "110343.467500", "110345.467500", "110347.467500", "110349.467500", "110351.467500", "110353.467500", "110355.467500", "110357.467500", "110359.467500", "110401.467500", "110403.467500", "110405.467500", "110407.467500", "110409.467500", "110411.467500", "110413.467500", "110415.467500", "110417.467500", "110419.467500", "110421.467500", "110423.467500", "110425.467500", "110427.467500", "110429.467500", "110431.467500", "110433.467500", "110435.467500", "110437.467500", "110439.467500", "110441.467500", "110443.467500", "110445.467500", "110447.467500", "110449.467500", "110451.467500", "110453.467500", "110455.467500", "110457.467500", "110459.467500", "110501.467500", "110503.467500", "110505.467500", "110507.467500", "110509.467500", "110511.467500", "110513.467500", "110515.467500", "110517.467500", "110519.467500", "110521.467500", "110523.467500", "110525.467500", "110527.467500", "110529.467500", "110531.467500", "110533.467500", "110535.467500", "110537.467500", "110539.467500", "110541.467500", "110543.467500", "110545.467500", "110547.467500", "110549.467500", "110551.467500", "110553.467500", "110555.467500", "110557.467500", "110559.467500", "110601.467500", "110603.467500", "110605.467500", "110607.467500", "110609.467500", "110611.467500", "110613.467500", "110615.467500", "110617.467500"],
      "ContentTime": ["110023.862000", "110023.865000", "110023.868000", "110023.870000", "110023.873000", "110023.885000", "110023.887000", "110023.890000", "110023.893000", "110023.895000", "110023.898000", "110023.900000", "110023.903000", "110023.906000", "110023.908000", "110023.911000", "110023.914000", "110023.916000", "110023.919000", "110023.921000", "110023.924000", "110023.927000", "110103.856000", "110103.859000", "110103.862000", "110103.865000", "110103.867000", "110103.870000", "110103.873000", "110103.875000", "110103.878000", "110103.880000", "110103.883000", "110103.886000", "110103.888000", "110103.891000", "110103.894000", "110103.896000", "110103.899000", "110103.901000", "110103.904000", "110103.919000", "110143.858000", "110143.860000", "110143.863000", "110143.866000", "110143.868000", "110143.871000", "110143.874000", "110143.876000", "110143.879000", "110143.881000", "110143.884000", "110143.887000", "110143.889000", "110143.892000", "110143.894000", "110143.897000", "110143.899000", "110143.902000", "110143.905000", "110143.907000", "110223.857000", "110223.859000", "110223.862000", "110223.865000", "110223.867000", "110223.870000", "110223.873000", "110223.875000", "110223.878000", "110223.880000", "110223.883000", "110223.886000", "110223.888000", "110223.891000", "110223.893000", "110223.896000", "110223.899000", "110223.901000", "110223.904000", "110223.906000", "110303.856000", "110303.859000", "110303.862000", "110303.865000", "110303.867000", "110303.870000", "110303.873000", "110303.875000", "110303.878000", "110303.881000", "110303.883000", "110303.886000", "110303.888000", "110303.891000", "110303.894000", "110303.896000", "110303.899000", "110303.902000", "110303.904000", "110303.907000", "110343.857000", "110343.859000", "110343.862000", "110343.865000", "110343.867000", "110343.870000", "110343.873000", "110343.875000", "110343.878000", "110343.881000", "110343.883000", "110343.886000", "110343.888000", "110343.891000", "110343.894000", "110343.896000", "110343.899000", "110343.901000", "110343.904000", "110343.907000", "110423.857000", "110423.859000", "110423.862000", "110423.865000", "110423.868000", "110423.870000", "110423.873000", "110423.875000", "110423.878000", "110423.880000", "110423.883000", "110423.886000", "110423.888000", "110423.891000", "110423.894000", "110423.896000", "110423.899000", "110423.901000", "110423.904000", "110423.907000", "110503.856000", "110503.859000", "110503.862000", "110503.865000", "110503.868000", "110503.870000", "110503.873000", "110503.876000", "110503.878000", "110503.881000", "110503.884000", "110503.886000", "110503.889000", "110503.891000", "110503.894000", "110503.897000", "110503.900000", "110503.902000", "110503.905000", "110503.907000", "110543.857000", "110543.859000", "110543.862000", "110543.865000", "110543.867000", "110543.877000", "110543.879000", "110543.882000", "110543.884000", "110543.887000", "110543.890000", "110543.892000", "110543.895000", "110543.898000", "110543.900000", "110543.903000", "110543.905000", "110543.908000", "110543.911000", "110543.913000", "110619.031000", "110619.034000", "110619.037000", "110619.040000", "110619.043000", "110619.045000", "110619.048000", "110619.051000", "110619.053000", "110619.056000", "110619.059000", "110619.063000", "110619.067000", "110619.069000", "110619.073000", "110619.076000", "110619.081000", "110619.084000"],
      "InstanceCreationTime": ["110023.862000", "110023.865000", "110023.868000", "110023.870000", "110023.873000", "110023.885000", "110023.887000", "110023.890000", "110023.893000", "110023.895000", "110023.898000", "110023.900000", "110023.903000", "110023.906000", "110023.908000", "110023.911000", "110023.914000", "110023.916000", "110023.919000", "110023.921000", "110023.924000", "110023.927000", "110103.856000", "110103.859000", "110103.862000", "110103.865000", "110103.867000", "110103.870000", "110103.873000", "110103.875000", "110103.878000", "110103.880000", "110103.883000", "110103.886000", "110103.888000", "110103.891000", "110103.894000", "110103.896000", "110103.899000", "110103.901000", "110103.904000", "110103.919000", "110143.858000", "110143.860000", "110143.863000", "110143.866000", "110143.868000", "110143.871000", "110143.874000", "110143.876000", "110143.879000", "110143.881000", "110143.884000", "110143.887000", "110143.889000", "110143.892000", "110143.894000", "110143.897000", "110143.899000", "110143.902000", "110143.905000", "110143.907000", "110223.857000", "110223.859000", "110223.862000", "110223.865000", "110223.867000", "110223.870000", "110223.873000", "110223.875000", "110223.878000", "110223.880000", "110223.883000", "110223.886000", "110223.888000", "110223.891000", "110223.893000", "110223.896000", "110223.899000", "110223.901000", "110223.904000", "110223.906000", "110303.856000", "110303.859000", "110303.862000", "110303.865000", "110303.867000", "110303.870000", "110303.873000", "110303.875000", "110303.878000", "110303.881000", "110303.883000", "110303.886000", "110303.888000", "110303.891000", "110303.894000", "110303.896000", "110303.899000", "110303.902000", "110303.904000", "110303.907000", "110343.857000", "110343.859000", "110343.862000", "110343.865000", "110343.867000", "110343.870000", "110343.873000", "110343.875000", "110343.878000", "110343.881000", "110343.883000", "110343.886000", "110343.888000", "110343.891000", "110343.894000", "110343.896000", "110343.899000", "110343.901000", "110343.904000", "110343.907000", "110423.857000", "110423.859000", "110423.862000", "110423.865000", "110423.868000", "110423.870000", "110423.873000", "110423.875000", "110423.878000", "110423.880000", "110423.883000", "110423.886000", "110423.888000", "110423.891000", "110423.894000", "110423.896000", "110423.899000", "110423.901000", "110423.904000", "110423.907000", "110503.856000", "110503.859000", "110503.862000", "110503.865000", "110503.868000", "110503.870000", "110503.873000", "110503.876000", "110503.878000", "110503.881000", "110503.884000", "110503.886000", "110503.889000", "110503.891000", "110503.894000", "110503.897000", "110503.900000", "110503.902000", "110503.905000", "110503.907000", "110543.857000", "110543.859000", "110543.862000", "110543.865000", "110543.867000", "110543.877000", "110543.879000", "110543.882000", "110543.884000", "110543.887000", "110543.890000", "110543.892000", "110543.895000", "110543.898000", "110543.900000", "110543.903000", "110543.905000", "110543.908000", "110543.911000", "110543.913000", "110619.031000", "110619.034000", "110619.037000", "110619.040000", "110619.043000", "110619.045000", "110619.048000", "110619.051000", "110619.053000", "110619.056000", "110619.059000", "110619.063000", "110619.067000", "110619.069000", "110619.073000", "110619.076000", "110619.081000", "110619.084000"],
      "InstanceNumber": [1, 2, 3, 4, 5, 6, 7, 8, 9, 10, 11, 12, 13, 14, 15, 16, 17, 18, 19, 20, 21, 22, 23, 24, 25, 26, 27, 28, 29, 30, 31, 32, 33, 34, 35, 36, 37, 38, 39, 40, 41, 42, 43, 44, 45, 46, 47, 48, 49, 50, 51, 52, 53, 54, 55, 56, 57, 58, 59, 60, 61, 62, 63, 64, 65, 66, 67, 68, 69, 70, 71, 72, 73, 74, 75, 76, 77, 78, 79, 80, 81, 82, 83, 84, 85, 86, 87, 88, 89, 90, 91, 92, 93, 94, 95, 96, 97, 98, 99, 100, 101, 102, 103, 104, 105, 106, 107, 108, 109, 110, 111, 112, 113, 114, 115, 116, 117, 118, 119, 120, 121, 122, 123, 124, 125, 126, 127, 128, 129, 130, 131, 132, 133, 134, 135, 136, 137, 138, 139, 140, 141, 142, 143, 144, 145, 146, 147, 148, 149, 150, 151, 152, 153, 154, 155, 156, 157, 158, 159, 160, 161, 162, 163, 164, 165, 166, 167, 168, 169, 170, 171, 172, 173, 174, 175, 176, 177, 178, 179, 180, 181, 182, 183, 184, 185, 186, 187, 188, 189, 190, 191, 192, 193, 194, 195, 196, 197, 198, 199, 200],
      "LargestImagePixelValue": [2128, 2137, 2134, 2136, 2141, 2143, 2135, 2136, 2131, 2133, 2131, 2137, 2142, 2134, 2139, 2138, 2136, 2130, 2130, 2135, 2137, 2126, 2133, 2131, 2143, 2134, 2126, 2130, 2133, 2134, 2130, 2133, 2134, 2149, 2138, 2133, 2138, 2135, 2134, 2142, 2136, 2143, 2135, 2130, 2140, 2141, 2140, 2133, 2139, 2139, 2138, 2135, 2132, 2139, 2134, 2135, 2134, 2129, 2136, 2136, 2132, 2139, 2137, 2130, 2135, 2131, 2135, 2133, 2134, 2136, 2129, 2134, 2143, 2127, 2129, 2129, 2142, 2130, 2128, 2134, 2135, 2135, 2133, 2127, 2128, 2139, 2136, 2130, 2129, 2125, 2138, 2131, 2132, 2128, 2131, 2130, 2131, 2129, 2137, 2131, 2131, 2132, 2140, 2125, 2135, 2127, 2131, 2131, 2131, 2127, 2128, 2135, 2130, 2133, 2132, 2131, 2128, 2127, 2129, 2132, 2133, 2128, 2127, 2131, 2125, 2127, 2126, 2130, 2129, 2132, 2131, 2127, 2122, 2129, 2122, 2129, 2130, 2130, 2136, 2132, 2128, 2125, 2134, 2127, 2124, 2131, 2132, 2126, 2125, 2128, 2130, 2130, 2127, 2131, 2131, 2127, 2142, 2133, 2129, 2135, 2130, 2133, 2133, 2136, 2127, 2128, 2131, 2133, 2132, 2133, 2130, 2131, 2131, 2126, 2130, 2126, 2124, 2130, 2129, 2127, 2125, 2131, 2122, 2123, 2124, 2131, 2121, 2127, 2123, 2125, 2130, 2123, 2127, 2129, 2130, 2127, 2128, 2125, 2129, 2133],
      "WindowCenter": [1015.0, 1015.0, 1015.0, 1015.0, 1016.0, 1015.0, 1015.0, 1015.0, 1015.0, 1015.0, 1015.0, 1015.0, 1015.0, 1015.0, 1015.0, 1016.0, 1015.0, 1015.0, 1015.0, 1015.0, 1015.0, 1015.0, 1015.0, 1015.0, 1015.0, 1015.0, 1015.0, 1015.0, 1014.0, 1015.0, 1014.0, 1014.0, 1015.0, 1014.0, 1014.0, 1014.0, 1014.0, 1014.0, 1014.0, 1015.0, 1015.0, 1014.0, 1014.0, 1015.0, 1014.0, 1015.0, 1014.0, 1014.0, 1014.0, 1014.0, 1015.0, 1014.0, 1014.0, 1014.0, 1014.0, 1014.0, 1014.0, 1014.0, 1014.0, 1014.0, 1014.0, 1014.0, 1014.0, 1014.0, 1014.0, 1014.0, 1014.0, 1014.0, 1014.0, 1014.0, 1014.0, 1014.0, 1014.0, 1015.0, 1014.0, 1014.0, 1014.0, 1014.0, 1014.0, 1014.0, 1014.0, 1014.0, 1014.0, 1014.0, 1014.0, 1014.0, 1014.0, 1014.0, 1014.0, 1014.0, 1014.0, 1014.0, 1014.0, 1014.0, 1014.0, 1014.0, 1014.0, 1014.0, 1014.0, 1014.0, 1014.0, 1014.0, 1014.0, 1014.0, 1015.0, 1014.0, 1014.0, 1014.0, 1014.0, 1014.0, 1014.0, 1014.0, 1014.0, 1014.0, 1014.0, 1014.0, 1014.0, 1014.0, 1014.0, 1014.0, 1014.0, 1015.0, 1014.0, 1014.0, 1014.0, 1014.0, 1014.0, 1014.0, 1014.0, 1014.0, 1014.0, 1014.0, 1014.0, 1014.0, 1014.0, 1014.0, 1014.0, 1014.0, 1014.0, 1014.0, 1014.0, 1014.0, 1014.0, 1014.0, 1014.0, 1014.0, 1014.0, 1014.0, 1014.0, 1014.0, 1014.0, 1014.0, 1014.0, 1014.0, 1014.0, 1014.0, 1014.0, 1014.0, 1014.0, 1014.0, 1014.0, 1014.0, 1014.0, 1014.0, 1014.0, 1014.0, 1014.0, 1014.0, 1013.0, 1013.0, 1013.0, 1013.0, 1014.0, 1014.0, 1014.0, 1013.0, 1014.0, 1014.0, 1013.0, 1013.0, 1013.0, 1013.0, 1013.0, 1014.0, 1014.0, 1013.0, 1013.0, 1013.0, 1013.0, 1013.0, 1013.0, 1013.0, 1013.0, 1013.0, 1013.0, 1013.0, 1013.0, 1013.0, 1013.0, 1013.0],
      "WindowWidth": [2249.0, 2249.0, 2249.0, 2249.0, 2250.0, 2250.0, 2250.0, 2249.0, 2249.0, 2249.0, 2249.0, 2249.0, 2250.0, 2249.0, 2249.0, 2250.0, 2249.0, 2249.0, 2249.0, 2249.0, 2249.0, 2249.0, 2249.0, 2249.0, 2249.0, 2250.0, 2249.0, 2249.0, 2249.0, 2249.0, 2249.0, 2249.0, 2249.0, 2249.0, 2249.0, 2249.0, 2249.0, 2249.0, 2249.0, 2249.0, 2248.0, 2248.0, 2249.0, 2249.0, 2249.0, 2249.0, 2248.0, 2248.0, 2248.0, 2248.0, 2249.0, 2248.0, 2248.0, 2248.0, 2248.0, 2248.0, 2248.0, 2248.0, 2248.0, 2248.0, 2248.0, 2248.0, 2248.0, 2248.0, 2248.0, 2248.0, 2248.0, 2248.0, 2248.0, 2248.0, 2248.0, 2247.0, 2248.0, 2248.0, 2248.0, 2247.0, 2248.0, 2248.0, 2247.0, 2248.0, 2248.0, 2248.0, 2248.0, 2247.0, 2247.0, 2247.0, 2248.0, 2248.0, 2247.0, 2248.0, 2247.0, 2247.0, 2247.0, 2247.0, 2247.0, 2247.0, 2247.0, 2247.0, 2247.0, 2247.0, 2247.0, 2247.0, 2247.0, 2247.0, 2248.0, 2247.0, 2247.0, 2247.0, 2247.0, 2247.0, 2247.0, 2247.0, 2247.0, 2247.0, 2247.0, 2247.0, 2247.0, 2247.0, 2247.0, 2247.0, 2247.0, 2247.0, 2247.0, 2247.0, 2247.0, 2247.0, 2246.0, 2246.0, 2247.0, 2247.0, 2247.0, 2247.0, 2247.0, 2247.0, 2246.0, 2246.0, 2247.0, 2247.0, 2247.0, 2246.0, 2246.0, 2246.0, 2246.0, 2246.0, 2246.0, 2246.0, 2246.0, 2246.0, 2246.0, 2246.0, 2246.0, 2246.0, 2246.0, 2246.0, 2246.0, 2246.0, 2246.0, 2246.0, 2246.0, 2246.0, 2246.0, 2246.0, 2246.0, 2246.0, 2246.0, 2246.0, 2246.0, 2246.0, 2246.0, 2246.0, 2246.0, 2246.0, 2246.0, 2246.0, 2246.0, 2246.0, 2246.0, 2246.0, 2246.0, 2246.0, 2246.0, 2246.0, 2246.0, 2246.0, 2246.0, 2246.0, 2246.0, 2246.0, 2246.0, 2246.0, 2246.0, 2246.0, 2246.0, 2246.0, 2246.0, 2245.0, 2246.0, 2246.0, 2245.0, 2245.0]
    },
    "slices": {}
  }
}