{
  "AcquisitionMatrixPE": 80,
  "AcquisitionNumber": 1,
  "AcquisitionTime": "09:38:16.567500",
  "BandwidthPerPixelPhaseEncode": 25,
  "BaseResolution": 80,
  "BodyPartExamined": "BRAIN",
  "CoilCombinationMethod": "Sum of Squares",
  "ConsistencyInfo": "N4_VE11C_LATEST_20160120",
  "ConversionSoftware": "dcm2niix",
  "ConversionSoftwareVersion": "v1.0.20220720",
  "DerivedVendorReportedEchoSpacing": 0.0005,
  "DeviceSerialNumber": "66112",
  "DwellTime": 2.7e-06,
  "EchoTime": 0.03,
  "EchoTrainLength": 80,
  "EffectiveEchoSpacing": 0.0005,
  "FlipAngle": 10,
  "HeudiconvVersion": "0.13.1",
  "ImageOrientationPatientDICOM": [0.98465, 0.174445, 0.00581075, -0.167779, 0.936798, 0.307018],
  "ImageOrientationText": "Tra>Cor(17.7)>Sag(-2.8)",
  "ImageType": [
    "ORIGINAL",
    "PRIMARY",
    "M",
    "ND",
    "NORM",
    "MOSAIC"
],
  "ImagingFrequency": 123.252,
  "InPlanePhaseEncodingDirectionDICOM": "COL",
  "InstitutionAddress": "Maynard 3,Hanover,NH,US,03755",
  "InstitutionName": "Dartmouth College - PBS",
  "InstitutionalDepartmentName": "Department",
  "MRAcquisitionType": "2D",
  "MagneticFieldStrength": 3,
  "Manufacturer": "Siemens",
  "ManufacturersModelName": "Prisma",
  "MatrixCoilMode": "SENSE",
  "Modality": "MR",
  "NonlinearGradientCorrection": false,
  "PartialFourier": 1,
  "PatientPosition": "HFS",
  "PercentPhaseFOV": 100,
  "PercentSampling": 100,
  "PhaseEncodingDirection": "j-",
  "PhaseEncodingSteps": 80,
  "PhaseResolution": 1,
  "PixelBandwidth": 2315,
  "ProcedureStepDescription": "dbic^QA",
  "ProtocolName": "func-bold_fa-10",
  "PulseSequenceDetails": "%SiemensSeq%\\ep2d_bold",
  "ReceiveCoilActiveElements": "HEA;HEP",
  "ReceiveCoilName": "Head_32",
  "ReconMatrixPE": 80,
  "RepetitionTime": 2,
  "SAR": 0.0117452,
  "ScanOptions": "FS",
  "ScanningSequence": "EP",
  "SequenceName": "*epfid2d1_80",
  "SequenceVariant": "SK",
  "SeriesDescription": "func-bold_fa-10",
  "SeriesNumber": 10,
  "ShimSetting": [4147, -7680, -7520, 247, -57, -108, -52, 55],
  "SliceThickness": 3.5,
  "SliceTiming": [0.99, 0, 1.0575, 0.0675, 1.1225, 0.1325, 1.19, 0.2, 1.255, 0.265, 1.32, 0.33, 1.3875, 0.3975, 1.4525, 0.4625, 1.52, 0.53, 1.585, 0.595, 1.65, 0.66, 1.7175, 0.7275, 1.7825, 0.7925, 1.85, 0.86, 1.915, 0.925],
  "SoftwareVersions": "syngo MR E11",
  "SpacingBetweenSlices": 3.99,
  "StationName": "AWP66112",
  "TotalReadoutTime": 0.0395,
  "TxRefAmp": 221.447,
  "dcmmeta_affine": [
    [-2.953949451446533, -0.5033361315727234, -0.19197550415992737, 142.0225067138672],
    [-0.523333728313446, 2.8103933334350586, 1.2100886106491089, -97.34140014648438],
    [0.017432237043976784, -0.9210546016693115, 3.797226667404175, -19.222658157348633],
    [0.0, 0.0, 0.0, 1.0]
],
  "dcmmeta_reorient_transform": [
    [0.0, -1.0, 0.0, 79.0],
    [1.0, 0.0, 0.0, 0.0],
    [0.0, 0.0, 1.0, 0.0],
    [0.0, 0.0, 0.0, 1.0]
],
  "dcmmeta_shape": [80, 80, 30, 200],
  "dcmmeta_slice_dim": 2,
  "dcmmeta_version": 0.6,
  "global": {
    "const": {
      "AccessionNumber": "qa",
      "AcquisitionMatrix": [80, 0, 0, 80],
      "AngioFlag": "N",
      "BitsAllocated": 16,
      "BitsStored": 12,
      "BodyPartExamined": "BRAIN",
      "Columns": 480,
      "EchoNumbers": 1,
      "EchoTime": 30.0,
      "EchoTrainLength": 80,
      "FlipAngle": 10.0,
      "HighBit": 11,
      "ImageOrientationPatient": [0.98464985060904, 0.17444456692091, 0.00581074585424, -0.1677787203293, 0.93679780374962, 0.30701820124311],
      "ImagePositionPatient": [-592.38162122635, -791.42510094559, -279.68334078094],
      "ImageType": [
        "ORIGINAL",
        "PRIMARY",
        "M",
        "ND",
        "NORM",
        "MOSAIC"
],
      "ImagedNucleus": "1H",
      "ImagingFrequency": 123.252355,
      "InPlanePhaseEncodingDirection": "COL",
      "MRAcquisitionType": "2D",
      "MagneticFieldStrength": 3.0,
      "Manufacturer": "SIEMENS",
      "ManufacturerModelName": "Prisma",
      "Modality": "MR",
      "NumberOfAverages": 1.0,
      "NumberOfPhaseEncodingSteps": 80,
      "PercentPhaseFieldOfView": 100.0,
      "PercentSampling": 100.0,
      "PerformedProcedureStepStartTime": "091628.826000",
      "PhotometricInterpretation": "MONOCHROME2",
      "PixelBandwidth": 2315.0,
      "PixelRepresentation": 0,
      "PixelSpacing": [3.0, 3.0],
      "ProtocolName": "func-bold_fa-10",
      "RepetitionTime": 2000.0,
      "Rows": 480,
      "SAR": 0.01174518847741,
      "SamplesPerPixel": 1,
      "ScanOptions": "FS",
      "ScanningSequence": "EP",
      "SequenceName": "*epfid2d1_80",
      "SequenceVariant": "SK",
      "SeriesDescription": "func-bold_fa-10",
      "SeriesNumber": 10,
      "SeriesTime": "093858.963000",
      "SliceLocation": -54.64896087999,
      "SliceThickness": 3.5,
      "SmallestImagePixelValue": 0,
      "SoftwareVersions": "syngo MR E11",
      "SpacingBetweenSlices": 3.9899999832849,
      "SpecificCharacterSet": "ISO_IR 100",
      "StudyID": "16",
      "StudyTime": "091628.779000",
      "TransmitCoilName": "Body",
      "VariableFlipAngleFlag": "N",
      "WindowCenterWidthExplanation": "Algo1",
      "dBdt": 0.0},
    "slices": {}
  },
  "time": {
    "samples": {
      "AcquisitionNumber": [1, 2, 3, 4, 5, 6, 7, 8, 9, 10, 11, 12, 13, 14, 15, 16, 17, 18, 19, 20, 21, 22, 23, 24, 25, 26, 27, 28, 29, 30, 31, 32, 33, 34, 35, 36, 37, 38, 39, 40, 41, 42, 43, 44, 45, 46, 47, 48, 49, 50, 51, 52, 53, 54, 55, 56, 57, 58, 59, 60, 61, 62, 63, 64, 65, 66, 67, 68, 69, 70, 71, 72, 73, 74, 75, 76, 77, 78, 79, 80, 81, 82, 83, 84, 85, 86, 87, 88, 89, 90, 91, 92, 93, 94, 95, 96, 97, 98, 99, 100, 101, 102, 103, 104, 105, 106, 107, 108, 109, 110, 111, 112, 113, 114, 115, 116, 117, 118, 119, 120, 121, 122, 123, 124, 125, 126, 127, 128, 129, 130, 131, 132, 133, 134, 135, 136, 137, 138, 139, 140, 141, 142, 143, 144, 145, 146, 147, 148, 149, 150, 151, 152, 153, 154, 155, 156, 157, 158, 159, 160, 161, 162, 163, 164, 165, 166, 167, 168, 169, 170, 171, 172, 173, 174, 175, 176, 177, 178, 179, 180, 181, 182, 183, 184, 185, 186, 187, 188, 189, 190, 191, 192, 193, 194, 195, 196, 197, 198, 199, 200],
      "AcquisitionTime": ["093816.567500", "093818.567500", "093820.567500", "093822.567500", "093824.567500", "093826.567500", "093828.567500", "093830.567500", "093832.567500", "093834.567500", "093836.567500", "093838.567500", "093840.567500", "093842.567500", "093844.567500", "093846.567500", "093848.567500", "093850.567500", "093852.567500", "093854.567500", "093856.567500", "093858.567500", "093900.567500", "093902.567500", "093904.567500", "093906.567500", "093908.567500", "093910.567500", "093912.567500", "093914.567500", "093916.567500", "093918.567500", "093920.567500", "093922.567500", "093924.567500", "093926.567500", "093928.567500", "093930.567500", "093932.567500", "093934.567500", "093936.567500", "093938.567500", "093940.567500", "093942.567500", "093944.567500", "093946.567500", "093948.567500", "093950.567500", "093952.567500", "093954.567500", "093956.567500", "093958.567500", "094000.567500", "094002.567500", "094004.567500", "094006.567500", "094008.567500", "094010.567500", "094012.567500", "094014.567500", "094016.567500", "094018.567500", "094020.567500", "094022.567500", "094024.567500", "094026.567500", "094028.567500", "094030.567500", "094032.567500", "094034.567500", "094036.567500", "094038.567500", "094040.567500", "094042.567500", "094044.567500", "094046.567500", "094048.567500", "094050.567500", "094052.567500", "094054.567500", "094056.567500", "094058.567500", "094100.567500", "094102.567500", "094104.567500", "094106.567500", "094108.567500", "094110.567500", "094112.567500", "094114.567500", "094116.567500", "094118.567500", "094120.567500", "094122.567500", "094124.567500", "094126.567500", "094128.567500", "094130.567500", "094132.567500", "094134.567500", "094136.567500", "094138.567500", "094140.567500", "094142.567500", "094144.567500", "094146.567500", "094148.567500", "094150.567500", "094152.567500", "094154.567500", "094156.567500", "094158.567500", "094200.567500", "094202.567500", "094204.567500", "094206.567500", "094208.567500", "094210.567500", "094212.567500", "094214.567500", "094216.567500", "094218.567500", "094220.567500", "094222.567500", "094224.567500", "094226.567500", "094228.567500", "094230.567500", "094232.567500", "094234.567500", "094236.567500", "094238.567500", "094240.567500", "094242.567500", "094244.567500", "094246.567500", "094248.567500", "094250.567500", "094252.567500", "094254.567500", "094256.567500", "094258.567500", "094300.567500", "094302.567500", "094304.567500", "094306.567500", "094308.567500", "094310.567500", "094312.567500", "094314.567500", "094316.567500", "094318.567500", "094320.567500", "094322.567500", "094324.567500", "094326.567500", "094328.567500", "094330.567500", "094332.567500", "094334.567500", "094336.567500", "094338.567500", "094340.567500", "094342.567500", "094344.567500", "094346.567500", "094348.567500", "094350.567500", "094352.567500", "094354.567500", "094356.567500", "094358.567500", "094400.567500", "094402.567500", "094404.567500", "094406.567500", "094408.567500", "094410.567500", "094412.567500", "094414.567500", "094416.567500", "094418.567500", "094420.567500", "094422.567500", "094424.567500", "094426.567500", "094428.567500", "094430.567500", "094432.567500", "094434.567500", "094436.567500", "094438.567500", "094440.567500", "094442.567500", "094444.567500", "094446.567500", "094448.567500", "094450.567500", "094452.567500", "094454.567500"],
      "ContentTime": ["093858.966000", "093858.969000", "093858.972000", "093858.974000", "093858.977000", "093858.979000", "093858.982000", "093858.984000", "093858.987000", "093858.989000", "093858.992000", "093858.994000", "093858.997000", "093859.000000", "093859.003000", "093859.005000", "093859.008000", "093859.010000", "093859.013000", "093859.015000", "093859.018000", "093938.962000", "093938.965000", "093938.968000", "093938.970000", "093938.973000", "093938.975000", "093938.978000", "093938.980000", "093938.983000", "093938.985000", "093938.988000", "093938.990000", "093938.993000", "093939.001000", "093939.004000", "093939.006000", "093939.009000", "093939.011000", "093939.013000", "093939.016000", "094018.962000", "094018.965000", "094018.968000", "094018.970000", "094018.973000", "094018.975000", "094018.978000", "094018.980000", "094018.983000", "094018.985000", "094018.988000", "094018.990000", "094018.993000", "094019.002000", "094019.005000", "094019.007000", "094019.010000", "094019.012000", "094019.015000", "094019.017000", "094058.961000", "094058.964000", "094058.967000", "094058.969000", "094058.972000", "094058.974000", "094058.977000", "094058.979000", "094058.982000", "094058.984000", "094058.987000", "094058.989000", "094058.992000", "094058.994000", "094058.997000", "094059.000000", "094059.003000", "094059.005000", "094059.008000", "094059.010000", "094138.963000", "094138.965000", "094138.968000", "094138.970000", "094138.973000", "094138.975000", "094138.978000", "094138.980000", "094138.983000", "094138.985000", "094138.988000", "094138.990000", "094138.993000", "094138.995000", "094138.998000", "094139.001000", "094139.004000", "094139.006000", "094139.009000", "094139.011000", "094218.962000", "094218.965000", "094218.968000", "094218.970000", "094218.973000", "094218.975000", "094218.978000", "094218.980000", "094218.983000", "094218.985000", "094218.988000", "094218.990000", "094218.993000", "094218.995000", "094218.998000", "094219.001000", "094219.004000", "094219.006000", "094219.009000", "094219.011000", "094258.961000", "094258.964000", "094258.967000", "094258.969000", "094258.972000", "094258.974000", "094258.977000", "094258.979000", "094258.982000", "094258.984000", "094258.987000", "094258.989000", "094258.992000", "094258.994000", "094258.997000", "094259.000000", "094259.003000", "094259.005000", "094259.008000", "094259.010000", "094338.962000", "094338.965000", "094338.968000", "094338.970000", "094338.973000", "094338.975000", "094338.994000", "094338.997000", "094338.999000", "094339.002000", "094339.004000", "094339.007000", "094339.009000", "094339.012000", "094339.014000", "094339.017000", "094339.020000", "094339.022000", "094339.024000", "094339.027000", "094418.962000", "094418.965000", "094418.968000", "094418.970000", "094418.973000", "094418.975000", "094418.978000", "094418.980000", "094418.983000", "094418.985000", "094418.988000", "094418.991000", "094418.993000", "094418.996000", "094418.998000", "094419.002000", "094419.004000", "094419.007000", "094419.009000", "094419.012000", "094455.921000", "094455.924000", "094455.927000", "094455.929000", "094455.932000", "094455.934000", "094455.937000", "094455.939000", "094455.942000", "094455.944000", "094455.947000", "094455.950000", "094455.958000", "094455.961000", "094455.964000", "094455.967000", "094455.970000", "094455.975000", "094455.978000"],
      "InstanceCreationTime": ["093858.966000", "093858.969000", "093858.972000", "093858.974000", "093858.977000", "093858.979000", "093858.982000", "093858.984000", "093858.987000", "093858.989000", "093858.992000", "093858.994000", "093858.997000", "093859.000000", "093859.003000", "093859.005000", "093859.008000", "093859.010000", "093859.013000", "093859.015000", "093859.018000", "093938.962000", "093938.965000", "093938.968000", "093938.970000", "093938.973000", "093938.975000", "093938.978000", "093938.980000", "093938.983000", "093938.985000", "093938.988000", "093938.990000", "093938.993000", "093939.001000", "093939.004000", "093939.006000", "093939.009000", "093939.011000", "093939.013000", "093939.016000", "094018.962000", "094018.965000", "094018.968000", "094018.970000", "094018.973000", "094018.975000", "094018.978000", "094018.980000", "094018.983000", "094018.985000", "094018.988000", "094018.990000", "094018.993000", "094019.002000", "094019.005000", "094019.007000", "094019.010000", "094019.012000", "094019.015000", "094019.017000", "094058.961000", "094058.964000", "094058.967000", "094058.969000", "094058.972000", "094058.974000", "094058.977000", "094058.979000", "094058.982000", "094058.984000", "094058.987000", "094058.989000", "094058.992000", "094058.994000", "094058.997000", "094059.000000", "094059.003000", "094059.005000", "094059.008000", "094059.010000", "094138.963000", "094138.965000", "094138.968000", "094138.970000", "094138.973000", "094138.975000", "094138.978000", "094138.980000", "094138.983000", "094138.985000", "094138.988000", "094138.990000", "094138.993000", "094138.995000", "094138.998000", "094139.001000", "094139.004000", "094139.006000", "094139.009000", "094139.011000", "094218.962000", "094218.965000", "094218.968000", "094218.970000", "094218.973000", "094218.975000", "094218.978000", "094218.980000", "094218.983000", "094218.985000", "094218.988000", "094218.990000", "094218.993000", "094218.995000", "094218.998000", "094219.001000", "094219.004000", "094219.006000", "094219.009000", "094219.011000", "094258.961000", "094258.964000", "094258.967000", "094258.969000", "094258.972000", "094258.974000", "094258.977000", "094258.979000", "094258.982000", "094258.984000", "094258.987000", "094258.989000", "094258.992000", "094258.994000", "094258.997000", "094259.000000", "094259.003000", "094259.005000", "094259.008000", "094259.010000", "094338.962000", "094338.965000", "094338.968000", "094338.970000", "094338.973000", "094338.975000", "094338.994000", "094338.997000", "094338.999000", "094339.002000", "094339.004000", "094339.007000", "094339.009000", "094339.012000", "094339.014000", "094339.017000", "094339.020000", "094339.022000", "094339.024000", "094339.027000", "094418.962000", "094418.965000", "094418.968000", "094418.970000", "094418.973000", "094418.975000", "094418.978000", "094418.980000", "094418.983000", "094418.985000", "094418.988000", "094418.991000", "094418.993000", "094418.996000", "094418.998000", "094419.002000", "094419.004000", "094419.007000", "094419.009000", "094419.012000", "094455.921000", "094455.924000", "094455.927000", "094455.929000", "094455.932000", "094455.934000", "094455.937000", "094455.939000", "094455.942000", "094455.944000", "094455.947000", "094455.950000", "094455.958000", "094455.961000", "094455.964000", "094455.967000", "094455.970000", "094455.975000", "094455.978000"],
      "InstanceNumber": [1, 2, 3, 4, 5, 6, 7, 8, 9, 10, 11, 12, 13, 14, 15, 16, 17, 18, 19, 20, 21, 22, 23, 24, 25, 26, 27, 28, 29, 30, 31, 32, 33, 34, 35, 36, 37, 38, 39, 40, 41, 42, 43, 44, 45, 46, 47, 48, 49, 50, 51, 52, 53, 54, 55, 56, 57, 58, 59, 60, 61, 62, 63, 64, 65, 66, 67, 68, 69, 70, 71, 72, 73, 74, 75, 76, 77, 78, 79, 80, 81, 82, 83, 84, 85, 86, 87, 88, 89, 90, 91, 92, 93, 94, 95, 96, 97, 98, 99, 100, 101, 102, 103, 104, 105, 106, 107, 108, 109, 110, 111, 112, 113, 114, 115, 116, 117, 118, 119, 120, 121, 122, 123, 124, 125, 126, 127, 128, 129, 130, 131, 132, 133, 134, 135, 136, 137, 138, 139, 140, 141, 142, 143, 144, 145, 146, 147, 148, 149, 150, 151, 152, 153, 154, 155, 156, 157, 158, 159, 160, 161, 162, 163, 164, 165, 166, 167, 168, 169, 170, 171, 172, 173, 174, 175, 176, 177, 178, 179, 180, 181, 182, 183, 184, 185, 186, 187, 188, 189, 190, 191, 192, 193, 194, 195, 196, 197, 198, 199, 200],
      "LargestImagePixelValue": [340, 340, 342, 343, 342, 344, 342, 342, 344, 345, 343, 340, 343, 345, 341, 342, 343, 341, 340, 343, 340, 342, 341, 344, 341, 346, 345, 343, 343, 343, 343, 343, 342, 342, 342, 341, 343, 342, 339, 341, 339, 340, 343, 340, 345, 345, 341, 342, 342, 342, 344, 343, 341, 340, 344, 344, 342, 341, 341, 342, 344, 342, 343, 344, 341, 344, 343, 341, 342, 339, 342, 341, 344, 342, 343, 342, 340, 339, 342, 341, 346, 340, 341, 343, 345, 341, 342, 343, 341, 341, 345, 340, 342, 342, 347, 342, 342, 340, 341, 340, 340, 343, 346, 343, 341, 343, 343, 340, 344, 342, 339, 342, 343, 341, 345, 341, 342, 341, 345, 340, 342, 341, 342, 342, 345, 341, 342, 346, 342, 340, 341, 341, 339, 340, 340, 342, 341, 339, 340, 339, 343, 344, 341, 341, 341, 342, 343, 343, 346, 340, 342, 340, 339, 342, 339, 343, 343, 342, 340, 341, 339, 341, 340, 339, 340, 343, 342, 343, 340, 342, 344, 344, 343, 341, 340, 342, 341, 344, 338, 342, 340, 341, 341, 342, 343, 341, 345, 340, 339, 343, 341, 341, 342, 341, 342, 340, 341, 340, 340, 343],
      "WindowCenter": [283.0, 283.0, 283.0, 283.0, 283.0, 283.0, 283.0, 284.0, 283.0, 283.0, 283.0, 283.0, 283.0, 283.0, 283.0, 283.0, 283.0, 283.0, 283.0, 283.0, 283.0, 283.0, 283.0, 283.0, 283.0, 283.0, 283.0, 283.0, 283.0, 283.0, 283.0, 283.0, 283.0, 283.0, 283.0, 283.0, 283.0, 283.0, 283.0, 283.0, 283.0, 283.0, 283.0, 283.0, 283.0, 283.0, 283.0, 283.0, 283.0, 283.0, 283.0, 283.0, 283.0, 283.0, 283.0, 283.0, 283.0, 283.0, 283.0, 283.0, 283.0, 283.0, 283.0, 283.0, 283.0, 283.0, 283.0, 283.0, 283.0, 283.0, 283.0, 283.0, 283.0, 283.0, 283.0, 283.0, 283.0, 283.0, 283.0, 283.0, 283.0, 283.0, 283.0, 283.0, 283.0, 283.0, 283.0, 283.0, 283.0, 283.0, 283.0, 283.0, 283.0, 283.0, 283.0, 283.0, 283.0, 283.0, 283.0, 283.0, 283.0, 283.0, 283.0, 283.0, 283.0, 283.0, 283.0, 283.0, 283.0, 283.0, 283.0, 283.0, 283.0, 283.0, 283.0, 283.0, 283.0, 283.0, 283.0, 283.0, 283.0, 283.0, 283.0, 283.0, 283.0, 283.0, 283.0, 283.0, 283.0, 283.0, 283.0, 283.0, 282.0, 283.0, 283.0, 283.0, 283.0, 283.0, 283.0, 283.0, 283.0, 283.0, 283.0, 283.0, 283.0, 283.0, 283.0, 283.0, 283.0, 283.0, 283.0, 283.0, 283.0, 283.0, 283.0, 283.0, 283.0, 283.0, 283.0, 283.0, 283.0, 283.0, 283.0, 283.0, 283.0, 283.0, 283.0, 283.0, 283.0, 282.0, 283.0, 283.0, 283.0, 283.0, 283.0, 283.0, 283.0, 283.0, 283.0, 282.0, 283.0, 283.0, 282.0, 283.0, 282.0, 283.0, 283.0, 282.0, 283.0, 283.0, 283.0, 283.0, 283.0, 283.0, 283.0, 283.0, 283.0, 283.0, 283.0, 283.0],
      "WindowWidth": [619.0, 619.0, 619.0, 619.0, 619.0, 618.0, 619.0, 619.0, 619.0, 619.0, 619.0, 619.0, 619.0, 619.0, 618.0, 618.0, 619.0, 619.0, 618.0, 618.0, 618.0, 619.0, 618.0, 618.0, 619.0, 619.0, 618.0, 618.0, 619.0, 618.0, 618.0, 618.0, 618.0, 619.0, 619.0, 618.0, 618.0, 618.0, 618.0, 618.0, 618.0, 618.0, 618.0, 618.0, 619.0, 618.0, 618.0, 618.0, 618.0, 618.0, 618.0, 618.0, 618.0, 618.0, 618.0, 618.0, 618.0, 618.0, 618.0, 618.0, 618.0, 618.0, 618.0, 618.0, 618.0, 618.0, 618.0, 618.0, 618.0, 618.0, 618.0, 618.0, 618.0, 618.0, 618.0, 618.0, 618.0, 618.0, 618.0, 618.0, 618.0, 618.0, 618.0, 618.0, 618.0, 618.0, 618.0, 618.0, 618.0, 618.0, 618.0, 618.0, 618.0, 618.0, 618.0, 618.0, 618.0, 618.0, 618.0, 618.0, 618.0, 618.0, 618.0, 618.0, 618.0, 618.0, 618.0, 618.0, 618.0, 618.0, 618.0, 618.0, 618.0, 618.0, 618.0, 618.0, 618.0, 618.0, 618.0, 618.0, 618.0, 618.0, 618.0, 618.0, 618.0, 618.0, 618.0, 618.0, 618.0, 618.0, 618.0, 618.0, 618.0, 618.0, 618.0, 618.0, 618.0, 618.0, 618.0, 618.0, 618.0, 618.0, 618.0, 618.0, 618.0, 618.0, 618.0, 618.0, 618.0, 618.0, 618.0, 618.0, 618.0, 618.0, 618.0, 618.0, 618.0, 618.0, 618.0, 618.0, 618.0, 618.0, 618.0, 618.0, 618.0, 618.0, 618.0, 618.0, 618.0, 618.0, 618.0, 618.0, 618.0, 618.0, 618.0, 618.0, 618.0, 618.0, 618.0, 618.0, 618.0, 618.0, 618.0, 618.0, 617.0, 618.0, 618.0, 617.0, 618.0, 618.0, 618.0, 618.0, 618.0, 618.0, 618.0, 618.0, 618.0, 618.0, 618.0, 618.0]
    },
    "slices": {}
  }
}