{
  "AcquisitionMatrixPE": 80,
  "AcquisitionNumber": 1,
  "AcquisitionTime": "09:31:29.520000",
  "BandwidthPerPixelPhaseEncode": 25,
  "BaseResolution": 80,
  "BodyPartExamined": "BRAIN",
  "CoilCombinationMethod": "Sum of Squares",
  "ConsistencyInfo": "N4_VE11C_LATEST_20160120",
  "ConversionSoftware": "dcm2niix",
  "ConversionSoftwareVersion": "v1.0.20220720",
  "DerivedVendorReportedEchoSpacing": 0.0005,
  "DeviceSerialNumber": "66112",
  "DwellTime": 2.7e-06,
  "EchoTime": 0.03,
  "EchoTrainLength": 80,
  "EffectiveEchoSpacing": 0.0005,
  "FlipAngle": 77,
  "HeudiconvVersion": "0.13.1",
  "ImageOrientationPatientDICOM": [0.98465, 0.174445, 0.00581075, -0.167779, 0.936798, 0.307018],
  "ImageOrientationText": "Tra>Cor(17.7)>Sag(-2.8)",
  "ImageType": [
    "ORIGINAL",
    "PRIMARY",
    "M",
    "ND",
    "NORM",
    "MOSAIC"
],
  "ImagingFrequency": 123.252,
  "InPlanePhaseEncodingDirectionDICOM": "COL",
  "InstitutionAddress": "Maynard 3,Hanover,NH,US,03755",
  "InstitutionName": "Dartmouth College - PBS",
  "InstitutionalDepartmentName": "Department",
  "MRAcquisitionType": "2D",
  "MagneticFieldStrength": 3,
  "Manufacturer": "Siemens",
  "ManufacturersModelName": "Prisma",
  "MatrixCoilMode": "SENSE",
  "Modality": "MR",
  "NonlinearGradientCorrection": false,
  "PartialFourier": 1,
  "PatientPosition": "HFS",
  "PercentPhaseFOV": 100,
  "PercentSampling": 100,
  "PhaseEncodingDirection": "j-",
  "PhaseEncodingSteps": 80,
  "PhaseResolution": 1,
  "PixelBandwidth": 2315,
  "ProcedureStepDescription": "dbic^QA",
  "ProtocolName": "func-bold_fa-77",
  "PulseSequenceDetails": "%SiemensSeq%\\ep2d_bold",
  "ReceiveCoilActiveElements": "HEA;HEP",
  "ReceiveCoilName": "Head_32",
  "ReconMatrixPE": 80,
  "RepetitionTime": 2,
  "SAR": 0.0437846,
  "ScanOptions": "FS",
  "ScanningSequence": "EP",
  "SequenceName": "*epfid2d1_80",
  "SequenceVariant": "SK",
  "SeriesDescription": "func-bold_fa-77",
  "SeriesNumber": 8,
  "ShimSetting": [4147, -7680, -7520, 247, -57, -108, -52, 55],
  "SliceThickness": 3.5,
  "SliceTiming": [0.99, 0, 1.055, 0.065, 1.1225, 0.1325, 1.1875, 0.1975, 1.2525, 0.2625, 1.32, 0.33, 1.385, 0.395, 1.4525, 0.4625, 1.5175, 0.5275, 1.5825, 0.5925, 1.65, 0.66, 1.715, 0.725, 1.7825, 0.7925, 1.8475, 0.8575, 1.9125, 0.9225],
  "SoftwareVersions": "syngo MR E11",
  "SpacingBetweenSlices": 3.99,
  "StationName": "AWP66112",
  "TotalReadoutTime": 0.0395,
  "TxRefAmp": 221.447,
  "dcmmeta_affine": [
    [-2.953949451446533, -0.5033361315727234, -0.19197550415992737, 142.0225067138672],
    [-0.523333728313446, 2.8103933334350586, 1.2100886106491089, -97.34140014648438],
    [0.017432237043976784, -0.9210546016693115, 3.797226667404175, -19.222658157348633],
    [0.0, 0.0, 0.0, 1.0]
],
  "dcmmeta_reorient_transform": [
    [0.0, -1.0, 0.0, 79.0],
    [1.0, 0.0, 0.0, 0.0],
    [0.0, 0.0, 1.0, 0.0],
    [0.0, 0.0, 0.0, 1.0]
],
  "dcmmeta_shape": [80, 80, 30, 200],
  "dcmmeta_slice_dim": 2,
  "dcmmeta_version": 0.6,
  "global": {
    "const": {
      "AccessionNumber": "qa",
      "AcquisitionMatrix": [80, 0, 0, 80],
      "AngioFlag": "N",
      "BitsAllocated": 16,
      "BitsStored": 12,
      "BodyPartExamined": "BRAIN",
      "Columns": 480,
      "EchoNumbers": 1,
      "EchoTime": 30.0,
      "EchoTrainLength": 80,
      "FlipAngle": 77.0,
      "HighBit": 11,
      "ImageOrientationPatient": [0.98464985060904, 0.17444456692091, 0.00581074585424, -0.1677787203293, 0.93679780374962, 0.30701820124311],
      "ImagePositionPatient": [-592.38162122635, -791.42510094559, -279.68334078094],
      "ImageType": [
        "ORIGINAL",
        "PRIMARY",
        "M",
        "ND",
        "NORM",
        "MOSAIC"
],
      "ImagedNucleus": "1H",
      "ImagingFrequency": 123.252353,
      "InPlanePhaseEncodingDirection": "COL",
      "MRAcquisitionType": "2D",
      "MagneticFieldStrength": 3.0,
      "Manufacturer": "SIEMENS",
      "ManufacturerModelName": "Prisma",
      "Modality": "MR",
      "NumberOfAverages": 1.0,
      "NumberOfPhaseEncodingSteps": 80,
      "PercentPhaseFieldOfView": 100.0,
      "PercentSampling": 100.0,
      "PerformedProcedureStepStartTime": "091628.826000",
      "PhotometricInterpretation": "MONOCHROME2",
      "PixelBandwidth": 2315.0,
      "PixelRepresentation": 0,
      "PixelSpacing": [3.0, 3.0],
      "ProtocolName": "func-bold_fa-77",
      "RepetitionTime": 2000.0,
      "Rows": 480,
      "SAR": 0.04378463402543,
      "SamplesPerPixel": 1,
      "ScanOptions": "FS",
      "ScanningSequence": "EP",
      "SequenceName": "*epfid2d1_80",
      "SequenceVariant": "SK",
      "SeriesDescription": "func-bold_fa-77",
      "SeriesNumber": 8,
      "SeriesTime": "093218.893000",
      "SliceLocation": -54.64896087999,
      "SliceThickness": 3.5,
      "SmallestImagePixelValue": 0,
      "SoftwareVersions": "syngo MR E11",
      "SpacingBetweenSlices": 3.9899999832849,
      "SpecificCharacterSet": "ISO_IR 100",
      "StudyID": "16",
      "StudyTime": "091628.779000",
      "TransmitCoilName": "Body",
      "VariableFlipAngleFlag": "N",
      "WindowCenterWidthExplanation": "Algo1",
      "dBdt": 0.0},
    "slices": {}
  },
  "time": {
    "samples": {
      "AcquisitionNumber": [1, 2, 3, 4, 5, 6, 7, 8, 9, 10, 11, 12, 13, 14, 15, 16, 17, 18, 19, 20, 21, 22, 23, 24, 25, 26, 27, 28, 29, 30, 31, 32, 33, 34, 35, 36, 37, 38, 39, 40, 41, 42, 43, 44, 45, 46, 47, 48, 49, 50, 51, 52, 53, 54, 55, 56, 57, 58, 59, 60, 61, 62, 63, 64, 65, 66, 67, 68, 69, 70, 71, 72, 73, 74, 75, 76, 77, 78, 79, 80, 81, 82, 83, 84, 85, 86, 87, 88, 89, 90, 91, 92, 93, 94, 95, 96, 97, 98, 99, 100, 101, 102, 103, 104, 105, 106, 107, 108, 109, 110, 111, 112, 113, 114, 115, 116, 117, 118, 119, 120, 121, 122, 123, 124, 125, 126, 127, 128, 129, 130, 131, 132, 133, 134, 135, 136, 137, 138, 139, 140, 141, 142, 143, 144, 145, 146, 147, 148, 149, 150, 151, 152, 153, 154, 155, 156, 157, 158, 159, 160, 161, 162, 163, 164, 165, 166, 167, 168, 169, 170, 171, 172, 173, 174, 175, 176, 177, 178, 179, 180, 181, 182, 183, 184, 185, 186, 187, 188, 189, 190, 191, 192, 193, 194, 195, 196, 197, 198, 199, 200],
      "AcquisitionTime": ["093129.520000", "093131.520000", "093133.520000", "093135.520000", "093137.520000", "093139.520000", "093141.520000", "093143.520000", "093145.520000", "093147.520000", "093149.520000", "093151.520000", "093153.520000", "093155.520000", "093157.520000", "093159.520000", "093201.520000", "093203.520000", "093205.520000", "093207.520000", "093209.520000", "093211.520000", "093213.520000", "093215.520000", "093217.520000", "093219.520000", "093221.520000", "093223.520000", "093225.520000", "093227.520000", "093229.520000", "093231.520000", "093233.520000", "093235.520000", "093237.520000", "093239.520000", "093241.520000", "093243.520000", "093245.520000", "093247.520000", "093249.520000", "093251.520000", "093253.520000", "093255.520000", "093257.520000", "093259.520000", "093301.520000", "093303.520000", "093305.520000", "093307.520000", "093309.520000", "093311.520000", "093313.520000", "093315.520000", "093317.520000", "093319.520000", "093321.520000", "093323.520000", "093325.520000", "093327.520000", "093329.520000", "093331.520000", "093333.520000", "093335.520000", "093337.520000", "093339.520000", "093341.520000", "093343.520000", "093345.520000", "093347.520000", "093349.520000", "093351.520000", "093353.520000", "093355.520000", "093357.520000", "093359.520000", "093401.520000", "093403.520000", "093405.520000", "093407.520000", "093409.520000", "093411.520000", "093413.520000", "093415.520000", "093417.520000", "093419.520000", "093421.520000", "093423.520000", "093425.520000", "093427.520000", "093429.520000", "093431.520000", "093433.520000", "093435.520000", "093437.520000", "093439.520000", "093441.520000", "093443.520000", "093445.520000", "093447.520000", "093449.520000", "093451.520000", "093453.520000", "093455.520000", "093457.520000", "093459.520000", "093501.520000", "093503.520000", "093505.520000", "093507.520000", "093509.520000", "093511.520000", "093513.520000", "093515.520000", "093517.520000", "093519.520000", "093521.520000", "093523.520000", "093525.520000", "093527.520000", "093529.520000", "093531.520000", "093533.520000", "093535.520000", "093537.520000", "093539.520000", "093541.520000", "093543.520000", "093545.520000", "093547.520000", "093549.520000", "093551.520000", "093553.520000", "093555.520000", "093557.520000", "093559.520000", "093601.520000", "093603.520000", "093605.520000", "093607.520000", "093609.520000", "093611.520000", "093613.520000", "093615.520000", "093617.520000", "093619.520000", "093621.520000", "093623.520000", "093625.520000", "093627.520000", "093629.520000", "093631.520000", "093633.520000", "093635.520000", "093637.520000", "093639.520000", "093641.520000", "093643.520000", "093645.520000", "093647.520000", "093649.520000", "093651.520000", "093653.520000", "093655.520000", "093657.520000", "093659.520000", "093701.520000", "093703.520000", "093705.520000", "093707.520000", "093709.520000", "093711.520000", "093713.520000", "093715.520000", "093717.520000", "093719.520000", "093721.520000", "093723.520000", "093725.520000", "093727.520000", "093729.520000", "093731.520000", "093733.520000", "093735.520000", "093737.520000", "093739.520000", "093741.520000", "093743.520000", "093745.520000", "093747.520000", "093749.520000", "093751.520000", "093753.520000", "093755.520000", "093757.520000", "093759.520000", "093801.520000", "093803.520000", "093805.520000", "093807.520000"],
      "ContentTime": ["093218.896000", "093218.900000", "093218.902000", "093218.905000", "093218.907000", "093218.910000", "093218.912000", "093218.915000", "093218.917000", "093218.920000", "093218.923000", "093218.925000", "093218.928000", "093218.930000", "093218.933000", "093218.944000", "093218.947000", "093218.949000", "093218.952000", "093218.954000", "093218.957000", "093218.960000", "093218.962000", "093218.965000", "093258.891000", "093258.894000", "093258.897000", "093258.899000", "093258.902000", "093258.904000", "093258.907000", "093258.909000", "093258.912000", "093258.914000", "093258.917000", "093258.919000", "093258.922000", "093258.924000", "093258.927000", "093258.929000", "093258.932000", "093258.934000", "093258.937000", "093258.940000", "093338.891000", "093338.893000", "093338.896000", "093338.898000", "093338.901000", "093338.904000", "093338.906000", "093338.909000", "093338.911000", "093338.914000", "093338.916000", "093338.919000", "093338.921000", "093338.924000", "093338.926000", "093338.929000", "093338.931000", "093338.934000", "093338.936000", "093338.939000", "093418.890000", "093418.893000", "093418.896000", "093418.898000", "093418.901000", "093418.903000", "093418.906000", "093418.909000", "093418.911000", "093418.914000", "093418.916000", "093418.919000", "093418.921000", "093418.924000", "093418.926000", "093418.929000", "093418.931000", "093418.934000", "093418.936000", "093418.939000", "093458.891000", "093458.894000", "093458.897000", "093458.900000", "093458.902000", "093458.905000", "093458.907000", "093458.910000", "093458.912000", "093458.915000", "093458.917000", "093458.920000", "093458.922000", "093458.925000", "093458.927000", "093458.930000", "093458.932000", "093458.935000", "093458.937000", "093458.940000", "093538.892000", "093538.894000", "093538.897000", "093538.899000", "093538.902000", "093538.905000", "093538.907000", "093538.910000", "093538.912000", "093538.915000", "093538.918000", "093538.920000", "093538.923000", "093538.925000", "093538.928000", "093538.930000", "093538.933000", "093538.935000", "093538.938000", "093538.940000", "093618.891000", "093618.893000", "093618.896000", "093618.898000", "093618.901000", "093618.903000", "093618.906000", "093618.909000", "093618.911000", "093618.914000", "093618.916000", "093618.919000", "093618.921000", "093618.924000", "093618.926000", "093618.929000", "093618.931000", "093618.934000", "093618.936000", "093618.939000", "093658.891000", "093658.894000", "093658.897000", "093658.899000", "093658.902000", "093658.905000", "093658.907000", "093658.910000", "093658.912000", "093658.915000", "093658.917000", "093658.920000", "093658.922000", "093658.925000", "093658.927000", "093658.930000", "093658.932000", "093658.935000", "093658.937000", "093658.940000", "093738.892000", "093738.894000", "093738.897000", "093738.900000", "093738.902000", "093738.905000", "093738.907000", "093738.910000", "093738.912000", "093738.915000", "093738.917000", "093738.920000", "093738.922000", "093738.925000", "093738.927000", "093738.930000", "093738.933000", "093738.935000", "093738.938000", "093738.940000", "093809.467000", "093809.469000", "093809.472000", "093809.475000", "093809.477000", "093809.480000", "093809.482000", "093809.485000", "093809.487000", "093809.490000", "093809.492000", "093809.495000", "093809.499000", "093809.505000", "093809.509000", "093809.512000"],
      "InstanceCreationTime": ["093218.896000", "093218.900000", "093218.902000", "093218.905000", "093218.907000", "093218.910000", "093218.912000", "093218.915000", "093218.917000", "093218.920000", "093218.923000", "093218.925000", "093218.928000", "093218.930000", "093218.933000", "093218.944000", "093218.947000", "093218.949000", "093218.952000", "093218.954000", "093218.957000", "093218.960000", "093218.962000", "093218.965000", "093258.891000", "093258.894000", "093258.897000", "093258.899000", "093258.902000", "093258.904000", "093258.907000", "093258.909000", "093258.912000", "093258.914000", "093258.917000", "093258.919000", "093258.922000", "093258.924000", "093258.927000", "093258.929000", "093258.932000", "093258.934000", "093258.937000", "093258.940000", "093338.891000", "093338.893000", "093338.896000", "093338.898000", "093338.901000", "093338.904000", "093338.906000", "093338.909000", "093338.911000", "093338.914000", "093338.916000", "093338.919000", "093338.921000", "093338.924000", "093338.926000", "093338.929000", "093338.931000", "093338.934000", "093338.936000", "093338.939000", "093418.890000", "093418.893000", "093418.896000", "093418.898000", "093418.901000", "093418.903000", "093418.906000", "093418.909000", "093418.911000", "093418.914000", "093418.916000", "093418.919000", "093418.921000", "093418.924000", "093418.926000", "093418.929000", "093418.931000", "093418.934000", "093418.936000", "093418.939000", "093458.891000", "093458.894000", "093458.897000", "093458.900000", "093458.902000", "093458.905000", "093458.907000", "093458.910000", "093458.912000", "093458.915000", "093458.917000", "093458.920000", "093458.922000", "093458.925000", "093458.927000", "093458.930000", "093458.932000", "093458.935000", "093458.937000", "093458.940000", "093538.892000", "093538.894000", "093538.897000", "093538.899000", "093538.902000", "093538.905000", "093538.907000", "093538.910000", "093538.912000", "093538.915000", "093538.918000", "093538.920000", "093538.923000", "093538.925000", "093538.928000", "093538.930000", "093538.933000", "093538.935000", "093538.938000", "093538.940000", "093618.891000", "093618.893000", "093618.896000", "093618.898000", "093618.901000", "093618.903000", "093618.906000", "093618.909000", "093618.911000", "093618.914000", "093618.916000", "093618.919000", "093618.921000", "093618.924000", "093618.926000", "093618.929000", "093618.931000", "093618.934000", "093618.936000", "093618.939000", "093658.891000", "093658.894000", "093658.897000", "093658.899000", "093658.902000", "093658.905000", "093658.907000", "093658.910000", "093658.912000", "093658.915000", "093658.917000", "093658.920000", "093658.922000", "093658.925000", "093658.927000", "093658.930000", "093658.932000", "093658.935000", "093658.937000", "093658.940000", "093738.892000", "093738.894000", "093738.897000", "093738.900000", "093738.902000", "093738.905000", "093738.907000", "093738.910000", "093738.912000", "093738.915000", "093738.917000", "093738.920000", "093738.922000", "093738.925000", "093738.927000", "093738.930000", "093738.933000", "093738.935000", "093738.938000", "093738.940000", "093809.467000", "093809.469000", "093809.472000", "093809.475000", "093809.477000", "093809.480000", "093809.482000", "093809.485000", "093809.487000", "093809.490000", "093809.492000", "093809.495000", "093809.499000", "093809.505000", "093809.509000", "093809.512000"],
      "InstanceNumber": [1, 2, 3, 4, 5, 6, 7, 8, 9, 10, 11, 12, 13, 14, 15, 16, 17, 18, 19, 20, 21, 22, 23, 24, 25, 26, 27, 28, 29, 30, 31, 32, 33, 34, 35, 36, 37, 38, 39, 40, 41, 42, 43, 44, 45, 46, 47, 48, 49, 50, 51, 52, 53, 54, 55, 56, 57, 58, 59, 60, 61, 62, 63, 64, 65, 66, 67, 68, 69, 70, 71, 72, 73, 74, 75, 76, 77, 78, 79, 80, 81, 82, 83, 84, 85, 86, 87, 88, 89, 90, 91, 92, 93, 94, 95, 96, 97, 98, 99, 100, 101, 102, 103, 104, 105, 106, 107, 108, 109, 110, 111, 112, 113, 114, 115, 116, 117, 118, 119, 120, 121, 122, 123, 124, 125, 126, 127, 128, 129, 130, 131, 132, 133, 134, 135, 136, 137, 138, 139, 140, 141, 142, 143, 144, 145, 146, 147, 148, 149, 150, 151, 152, 153, 154, 155, 156, 157, 158, 159, 160, 161, 162, 163, 164, 165, 166, 167, 168, 169, 170, 171, 172, 173, 174, 175, 176, 177, 178, 179, 180, 181, 182, 183, 184, 185, 186, 187, 188, 189, 190, 191, 192, 193, 194, 195, 196, 197, 198, 199, 200],
      "LargestImagePixelValue": [1960, 1960, 1959, 1961, 1962, 1960, 1960, 1960, 1962, 1962, 1963, 1963, 1962, 1962, 1962, 1964, 1964, 1962, 1962, 1962, 1962, 1961, 1964, 1963, 1964, 1964, 1963, 1962, 1960, 1961, 1961, 1963, 1963, 1962, 1961, 1963, 1963, 1959, 1963, 1964, 1963, 1962, 1960, 1963, 1963, 1963, 1962, 1963, 1962, 1962, 1960, 1962, 1961, 1963, 1965, 1961, 1963, 1963, 1963, 1964, 1965, 1962, 1964, 1964, 1963, 1965, 1963, 1965, 1963, 1966, 1962, 1960, 1963, 1962, 1963, 1963, 1962, 1964, 1965, 1964, 1964, 1962, 1963, 1963, 1963, 1960, 1961, 1960, 1964, 1964, 1963, 1963, 1963, 1965, 1964, 1963, 1964, 1962, 1962, 1965, 1963, 1962, 1966, 1961, 1964, 1964, 1963, 1964, 1964, 1963, 1964, 1961, 1964, 1963, 1964, 1963, 1964, 1965, 1961, 1962, 1964, 1964, 1964, 1963, 1964, 1963, 1964, 1964, 1964, 1963, 1963, 1965, 1963, 1965, 1964, 1963, 1965, 1965, 1965, 1964, 1963, 1963, 1965, 1963, 1966, 1966, 1966, 1964, 1963, 1962, 1965, 1966, 1965, 1965, 1967, 1963, 1965, 1963, 1965, 1963, 1963, 1967, 1964, 1965, 1962, 1966, 1965, 1963, 1965, 1965, 1963, 1966, 1965, 1964, 1966, 1965, 1964, 1964, 1965, 1965, 1966, 1965, 1962, 1965, 1964, 1966, 1967, 1963, 1963, 1966, 1965, 1966, 1965, 1964, 1964, 1966, 1964, 1965, 1965, 1965],
      "WindowCenter": [985.0, 985.0, 985.0, 985.0, 983.0, 985.0, 983.0, 985.0, 984.0, 985.0, 985.0, 985.0, 985.0, 983.0, 985.0, 984.0, 983.0, 985.0, 985.0, 983.0, 985.0, 983.0, 985.0, 985.0, 984.0, 985.0, 985.0, 984.0, 983.0, 985.0, 984.0, 985.0, 985.0, 984.0, 985.0, 985.0, 985.0, 984.0, 985.0, 985.0, 984.0, 985.0, 985.0, 983.0, 985.0, 985.0, 985.0, 985.0, 985.0, 985.0, 984.0, 984.0, 984.0, 984.0, 984.0, 984.0, 982.0, 984.0, 984.0, 983.0, 984.0, 984.0, 983.0, 984.0, 984.0, 983.0, 984.0, 983.0, 984.0, 984.0, 984.0, 984.0, 984.0, 984.0, 984.0, 984.0, 984.0, 984.0, 984.0, 983.0, 984.0, 983.0, 984.0, 984.0, 984.0, 983.0, 983.0, 984.0, 983.0, 982.0, 983.0, 982.0, 983.0, 984.0, 983.0, 984.0, 984.0, 983.0, 982.0, 984.0, 984.0, 985.0, 984.0, 984.0, 984.0, 982.0, 982.0, 984.0, 982.0, 984.0, 984.0, 982.0, 983.0, 984.0, 985.0, 982.0, 982.0, 984.0, 984.0, 984.0, 984.0, 981.0, 981.0, 983.0, 982.0, 984.0, 982.0, 984.0, 984.0, 984.0, 984.0, 984.0, 984.0, 984.0, 984.0, 983.0, 984.0, 983.0, 984.0, 984.0, 983.0, 984.0, 984.0, 984.0, 984.0, 984.0, 984.0, 984.0, 985.0, 982.0, 984.0, 982.0, 984.0, 984.0, 984.0, 984.0, 983.0, 984.0, 984.0, 984.0, 984.0, 984.0, 984.0, 984.0, 984.0, 984.0, 984.0, 983.0, 983.0, 984.0, 984.0, 984.0, 984.0, 984.0, 984.0, 983.0, 984.0, 984.0, 983.0, 984.0, 984.0, 983.0, 982.0, 984.0, 984.0, 984.0, 984.0, 984.0, 984.0, 983.0, 984.0, 984.0, 984.0, 984.0, 984.0, 984.0, 983.0, 983.0, 984.0, 984.0],
      "WindowWidth": [2173.0, 2173.0, 2173.0, 2173.0, 2171.0, 2173.0, 2171.0, 2173.0, 2172.0, 2172.0, 2172.0, 2173.0, 2172.0, 2171.0, 2172.0, 2172.0, 2171.0, 2172.0, 2172.0, 2171.0, 2172.0, 2171.0, 2172.0, 2172.0, 2172.0, 2172.0, 2172.0, 2172.0, 2171.0, 2172.0, 2171.0, 2172.0, 2172.0, 2171.0, 2172.0, 2172.0, 2172.0, 2171.0, 2172.0, 2172.0, 2171.0, 2172.0, 2172.0, 2171.0, 2172.0, 2172.0, 2171.0, 2171.0, 2171.0, 2171.0, 2171.0, 2171.0, 2172.0, 2171.0, 2171.0, 2171.0, 2170.0, 2171.0, 2171.0, 2171.0, 2171.0, 2171.0, 2170.0, 2171.0, 2171.0, 2170.0, 2171.0, 2170.0, 2171.0, 2171.0, 2172.0, 2172.0, 2171.0, 2171.0, 2172.0, 2171.0, 2171.0, 2171.0, 2171.0, 2170.0, 2171.0, 2171.0, 2171.0, 2171.0, 2171.0, 2171.0, 2170.0, 2171.0, 2170.0, 2170.0, 2170.0, 2170.0, 2170.0, 2171.0, 2171.0, 2171.0, 2171.0, 2170.0, 2170.0, 2171.0, 2171.0, 2172.0, 2171.0, 2171.0, 2171.0, 2169.0, 2170.0, 2171.0, 2170.0, 2171.0, 2171.0, 2169.0, 2170.0, 2171.0, 2171.0, 2169.0, 2169.0, 2171.0, 2171.0, 2171.0, 2171.0, 2168.0, 2169.0, 2170.0, 2169.0, 2171.0, 2169.0, 2171.0, 2171.0, 2171.0, 2171.0, 2170.0, 2171.0, 2171.0, 2171.0, 2169.0, 2171.0, 2170.0, 2171.0, 2171.0, 2170.0, 2170.0, 2171.0, 2171.0, 2171.0, 2170.0, 2170.0, 2170.0, 2171.0, 2169.0, 2171.0, 2169.0, 2170.0, 2170.0, 2170.0, 2170.0, 2169.0, 2170.0, 2171.0, 2171.0, 2170.0, 2171.0, 2171.0, 2171.0, 2171.0, 2170.0, 2170.0, 2169.0, 2169.0, 2170.0, 2170.0, 2171.0, 2171.0, 2171.0, 2171.0, 2170.0, 2170.0, 2170.0, 2169.0, 2170.0, 2171.0, 2169.0, 2169.0, 2170.0, 2170.0, 2170.0, 2170.0, 2170.0, 2170.0, 2169.0, 2170.0, 2170.0, 2170.0, 2170.0, 2170.0, 2170.0, 2170.0, 2169.0, 2170.0, 2170.0]
    },
    "slices": {}
  }
}