{
  "AcquisitionMatrixPE": 80,
  "AcquisitionNumber": 1,
  "AcquisitionTime": "09:24:40.177500",
  "BandwidthPerPixelPhaseEncode": 44.643,
  "BaseResolution": 80,
  "BodyPartExamined": "BRAIN",
  "CoilCombinationMethod": "Sum of Squares",
  "ConsistencyInfo": "N4_VE11C_LATEST_20160120",
  "ConversionSoftware": "dcm2niix",
  "ConversionSoftwareVersion": "v1.0.20220720",
  "DerivedVendorReportedEchoSpacing": 0.000559998,
  "DeviceSerialNumber": "66112",
  "DwellTime": 2.7e-06,
  "EchoTime": 0.035,
  "EchoTrainLength": 39,
  "EffectiveEchoSpacing": 0.000279999,
  "FlipAngle": 90,
  "HeudiconvVersion": "0.13.1",
  "ImageOrientationPatientDICOM": [0.98465, 0.174445, 0.00581075, -0.167779, 0.936798, 0.307018],
  "ImageOrientationText": "Tra>Cor(17.7)>Sag(-2.8)",
  "ImageType": [
    "ORIGINAL",
    "PRIMARY",
    "M",
    "ND",
    "NORM",
    "MOSAIC"
],
  "ImagingFrequency": 123.252,
  "InPlanePhaseEncodingDirectionDICOM": "COL",
  "InstitutionAddress": "Maynard 3,Hanover,NH,US,03755",
  "InstitutionName": "Dartmouth College - PBS",
  "InstitutionalDepartmentName": "Department",
  "MRAcquisitionType": "2D",
  "MagneticFieldStrength": 3,
  "Manufacturer": "Siemens",
  "ManufacturersModelName": "Prisma",
  "Modality": "MR",
  "MultibandAccelerationFactor": 4,
  "NonlinearGradientCorrection": false,
  "ParallelReductionFactorInPlane": 2,
  "PartialFourier": 1,
  "PatientPosition": "HFS",
  "PercentPhaseFOV": 100,
  "PercentSampling": 100,
  "PhaseEncodingDirection": "j-",
  "PhaseEncodingSteps": 79,
  "PhaseResolution": 1,
  "PixelBandwidth": 2315,
  "ProcedureStepDescription": "dbic^QA",
  "ProtocolName": "func-bold_task-rest_acq-p2-s4-3.5mm",
  "PulseSequenceDetails": "%SiemensSeq%\\ep2d_bold",
  "ReceiveCoilActiveElements": "HEA;HEP",
  "ReceiveCoilName": "Head_32",
  "ReconMatrixPE": 80,
  "RefLinesPE": 24,
  "RepetitionTime": 2,
  "SAR": 0.0209509,
  "ScanOptions": "FS",
  "ScanningSequence": "EP",
  "SequenceName": "*epfid2d1_80",
  "SequenceVariant": "SK",
  "SeriesDescription": "func-bold_task-rest_acq-p2-s4-3.5mm",
  "SeriesNumber": 7,
  "ShimSetting": [4146, -7681, -7519, 251, -56, -108, -50, 54],
  "SliceThickness": 3.5,
  "SliceTiming": [1.485, 0, 0.99, 0.2475, 1.2375, 0.7425, 1.7325, 0.495, 1.485, 0, 0.99, 0.2475, 1.2375, 0.7425, 1.7325, 0.495, 1.485, 0, 0.99, 0.2475, 1.2375, 0.7425, 1.7325, 0.495, 1.485, 0, 0.99, 0.2475, 1.2375, 0.7425, 1.7325, 0.495],
  "SoftwareVersions": "syngo MR E11",
  "SpacingBetweenSlices": 3.99,
  "StationName": "AWP66112",
  "TaskName": "rest",
  "TotalReadoutTime": 0.0221199,
  "TxRefAmp": 221.447,
  "dcmmeta_affine": [
    [-2.953949451446533, -0.5033361315727234, -0.19197550415992737, 142.32191467285156],
    [-0.523333728313446, 2.8103933334350586, 1.2100886106491089, -99.15106201171875],
    [0.017432237043976784, -0.9210546016693115, 3.797226667404175, -22.823091506958008],
    [0.0, 0.0, 0.0, 1.0]
],
  "dcmmeta_reorient_transform": [
    [0.0, -1.0, 0.0, 79.0],
    [1.0, 0.0, 0.0, 0.0],
    [0.0, 0.0, 1.0, 0.0],
    [0.0, 0.0, 0.0, 1.0]
],
  "dcmmeta_shape": [80, 80, 32, 200],
  "dcmmeta_slice_dim": 2,
  "dcmmeta_version": 0.6,
  "global": {
    "const": {
      "AccessionNumber": "qa",
      "AcquisitionMatrix": [80, 0, 0, 80],
      "AngioFlag": "N",
      "BitsAllocated": 16,
      "BitsStored": 12,
      "BodyPartExamined": "BRAIN",
      "Columns": 480,
      "EchoNumbers": 1,
      "EchoTime": 35.0,
      "EchoTrainLength": 39,
      "FlipAngle": 90.0,
      "HighBit": 11,
      "ImageOrientationPatient": [0.98464985060904, 0.17444456692091, 0.00581074585424, -0.1677787203293, 0.93679780374962, 0.30701820124311],
      "ImagePositionPatient": [-592.68104253677, -789.6154409877, -283.28377413055],
      "ImageType": [
        "ORIGINAL",
        "PRIMARY",
        "M",
        "ND",
        "NORM",
        "MOSAIC"
],
      "ImagedNucleus": "1H",
      "ImagingFrequency": 123.252354,
      "InPlanePhaseEncodingDirection": "COL",
      "MRAcquisitionType": "2D",
      "MagneticFieldStrength": 3.0,
      "Manufacturer": "SIEMENS",
      "ManufacturerModelName": "Prisma",
      "Modality": "MR",
      "NumberOfAverages": 1.0,
      "NumberOfPhaseEncodingSteps": 79,
      "PercentPhaseFieldOfView": 100.0,
      "PercentSampling": 100.0,
      "PerformedProcedureStepStartTime": "091628.826000",
      "PhotometricInterpretation": "MONOCHROME2",
      "PixelBandwidth": 2315.0,
      "PixelRepresentation": 0,
      "PixelSpacing": [3.0, 3.0],
      "ProtocolName": "func-bold_task-rest_acq-p2-s4-3.5mm",
      "RepetitionTime": 2000.0,
      "Rows": 480,
      "SAR": 0.02095094596658,
      "SamplesPerPixel": 1,
      "ScanOptions": "FS",
      "ScanningSequence": "EP",
      "SequenceName": "*epfid2d1_80",
      "SequenceVariant": "SK",
      "SeriesDescription": "func-bold_task-rest_acq-p2-s4-3.5mm",
      "SeriesNumber": 7,
      "SeriesTime": "092538.823000",
      "SliceLocation": -58.63868324914,
      "SliceThickness": 3.5,
      "SmallestImagePixelValue": 0,
      "SoftwareVersions": "syngo MR E11",
      "SpacingBetweenSlices": 3.9899999378644,
      "SpecificCharacterSet": "ISO_IR 100",
      "StudyID": "16",
      "StudyTime": "091628.779000",
      "TransmitCoilName": "Body",
      "VariableFlipAngleFlag": "N",
      "WindowCenter": 924.0,
      "WindowCenterWidthExplanation": "Algo1",
      "dBdt": 0.0},
    "slices": {}
  },
  "time": {
    "samples": {
      "AcquisitionNumber": [1, 2, 3, 4, 5, 6, 7, 8, 9, 10, 11, 12, 13, 14, 15, 16, 17, 18, 19, 20, 21, 22, 23, 24, 25, 26, 27, 28, 29, 30, 31, 32, 33, 34, 35, 36, 37, 38, 39, 40, 41, 42, 43, 44, 45, 46, 47, 48, 49, 50, 51, 52, 53, 54, 55, 56, 57, 58, 59, 60, 61, 62, 63, 64, 65, 66, 67, 68, 69, 70, 71, 72, 73, 74, 75, 76, 77, 78, 79, 80, 81, 82, 83, 84, 85, 86, 87, 88, 89, 90, 91, 92, 93, 94, 95, 96, 97, 98, 99, 100, 101, 102, 103, 104, 105, 106, 107, 108, 109, 110, 111, 112, 113, 114, 115, 116, 117, 118, 119, 120, 121, 122, 123, 124, 125, 126, 127, 128, 129, 130, 131, 132, 133, 134, 135, 136, 137, 138, 139, 140, 141, 142, 143, 144, 145, 146, 147, 148, 149, 150, 151, 152, 153, 154, 155, 156, 157, 158, 159, 160, 161, 162, 163, 164, 165, 166, 167, 168, 169, 170, 171, 172, 173, 174, 175, 176, 177, 178, 179, 180, 181, 182, 183, 184, 185, 186, 187, 188, 189, 190, 191, 192, 193, 194, 195, 196, 197, 198, 199, 200],
      "AcquisitionTime": ["092440.177500", "092442.177500", "092444.177500", "092446.177500", "092448.177500", "092450.177500", "092452.177500", "092454.177500", "092456.177500", "092458.177500", "092500.177500", "092502.177500", "092504.177500", "092506.177500", "092508.177500", "092510.177500", "092512.177500", "092514.177500", "092516.177500", "092518.177500", "092520.177500", "092522.177500", "092524.177500", "092526.177500", "092528.177500", "092530.177500", "092532.177500", "092534.177500", "092536.177500", "092538.177500", "092540.177500", "092542.177500", "092544.177500", "092546.177500", "092548.177500", "092550.177500", "092552.177500", "092554.177500", "092556.177500", "092558.177500", "092600.177500", "092602.177500", "092604.177500", "092606.177500", "092608.177500", "092610.177500", "092612.177500", "092614.177500", "092616.177500", "092618.177500", "092620.177500", "092622.177500", "092624.177500", "092626.177500", "092628.177500", "092630.177500", "092632.177500", "092634.177500", "092636.177500", "092638.177500", "092640.177500", "092642.177500", "092644.177500", "092646.177500", "092648.177500", "092650.177500", "092652.177500", "092654.177500", "092656.177500", "092658.177500", "092700.177500", "092702.177500", "092704.177500", "092706.177500", "092708.177500", "092710.177500", "092712.177500", "092714.177500", "092716.177500", "092718.177500", "092720.177500", "092722.177500", "092724.177500", "092726.177500", "092728.177500", "092730.177500", "092732.177500", "092734.177500", "092736.177500", "092738.177500", "092740.177500", "092742.177500", "092744.177500", "092746.177500", "092748.177500", "092750.177500", "092752.177500", "092754.177500", "092756.177500", "092758.177500", "092800.177500", "092802.177500", "092804.177500", "092806.177500", "092808.177500", "092810.177500", "092812.177500", "092814.177500", "092816.177500", "092818.177500", "092820.177500", "092822.177500", "092824.177500", "092826.177500", "092828.177500", "092830.177500", "092832.177500", "092834.177500", "092836.177500", "092838.177500", "092840.177500", "092842.177500", "092844.177500", "092846.177500", "092848.177500", "092850.177500", "092852.177500", "092854.177500", "092856.177500", "092858.177500", "092900.177500", "092902.177500", "092904.177500", "092906.177500", "092908.177500", "092910.177500", "092912.177500", "092914.177500", "092916.177500", "092918.177500", "092920.177500", "092922.177500", "092924.177500", "092926.177500", "092928.177500", "092930.177500", "092932.177500", "092934.177500", "092936.177500", "092938.177500", "092940.177500", "092942.177500", "092944.177500", "092946.177500", "092948.177500", "092950.177500", "092952.177500", "092954.177500", "092956.177500", "092958.177500", "093000.177500", "093002.177500", "093004.177500", "093006.177500", "093008.177500", "093010.177500", "093012.177500", "093014.177500", "093016.177500", "093018.177500", "093020.177500", "093022.177500", "093024.177500", "093026.177500", "093028.177500", "093030.177500", "093032.177500", "093034.177500", "093036.177500", "093038.177500", "093040.177500", "093042.177500", "093044.177500", "093046.177500", "093048.177500", "093050.177500", "093052.177500", "093054.177500", "093056.177500", "093058.177500", "093100.177500", "093102.177500", "093104.177500", "093106.177500", "093108.177500", "093110.177500", "093112.177500", "093114.177500", "093116.177500", "093118.177500"],
      "ContentTime": ["092538.826000", "092538.830000", "092538.832000", "092538.835000", "092538.837000", "092538.840000", "092538.842000", "092538.853000", "092538.855000", "092538.858000", "092538.861000", "092538.863000", "092538.866000", "092538.868000", "092538.871000", "092538.874000", "092538.876000", "092538.879000", "092538.881000", "092538.884000", "092538.886000", "092538.889000", "092538.892000", "092538.894000", "092538.897000", "092538.899000", "092538.902000", "092538.904000", "092538.907000", "092618.822000", "092618.825000", "092618.827000", "092618.830000", "092618.832000", "092618.835000", "092618.837000", "092618.840000", "092618.842000", "092618.845000", "092618.848000", "092618.850000", "092618.853000", "092618.855000", "092618.858000", "092618.861000", "092618.863000", "092618.866000", "092618.868000", "092618.871000", "092658.821000", "092658.823000", "092658.826000", "092658.829000", "092658.831000", "092658.834000", "092658.836000", "092658.839000", "092658.841000", "092658.844000", "092658.846000", "092658.849000", "092658.852000", "092658.854000", "092658.857000", "092658.859000", "092658.862000", "092658.864000", "092658.867000", "092658.869000", "092738.821000", "092738.824000", "092738.827000", "092738.829000", "092738.832000", "092738.834000", "092738.837000", "092738.840000", "092738.842000", "092738.845000", "092738.847000", "092738.850000", "092738.852000", "092738.855000", "092738.857000", "092738.860000", "092738.863000", "092738.865000", "092738.868000", "092738.870000", "092818.821000", "092818.824000", "092818.827000", "092818.830000", "092818.832000", "092818.835000", "092818.837000", "092818.840000", "092818.842000", "092818.845000", "092818.848000", "092818.850000", "092818.853000", "092818.855000", "092818.858000", "092818.860000", "092818.863000", "092818.866000", "092818.868000", "092818.871000", "092858.821000", "092858.824000", "092858.827000", "092858.829000", "092858.832000", "092858.834000", "092858.837000", "092858.840000", "092858.842000", "092858.845000", "092858.847000", "092858.850000", "092858.852000", "092858.855000", "092858.858000", "092858.860000", "092858.863000", "092858.865000", "092858.868000", "092858.870000", "092938.820000", "092938.823000", "092938.826000", "092938.828000", "092938.831000", "092938.834000", "092938.836000", "092938.839000", "092938.841000", "092938.844000", "092938.846000", "092938.849000", "092938.852000", "092938.854000", "092938.857000", "092938.859000", "092938.862000", "092938.864000", "092938.867000", "092938.870000", "093018.821000", "093018.824000", "093018.827000", "093018.829000", "093018.832000", "093018.834000", "093018.837000", "093018.840000", "093018.842000", "093018.845000", "093018.847000", "093018.850000", "093018.852000", "093018.855000", "093018.858000", "093018.860000", "093018.863000", "093018.865000", "093018.868000", "093018.870000", "093058.822000", "093058.831000", "093058.833000", "093058.836000", "093058.839000", "093058.841000", "093058.844000", "093058.846000", "093058.849000", "093058.851000", "093058.854000", "093058.856000", "093058.859000", "093058.862000", "093058.864000", "093058.867000", "093058.869000", "093058.872000", "093058.874000", "093058.877000", "093119.080000", "093119.083000", "093119.086000", "093119.089000", "093119.092000", "093119.095000", "093119.097000", "093119.100000", "093119.103000", "093119.105000", "093119.108000"],
      "InstanceCreationTime": ["092538.826000", "092538.830000", "092538.832000", "092538.835000", "092538.837000", "092538.840000", "092538.842000", "092538.853000", "092538.855000", "092538.858000", "092538.861000", "092538.863000", "092538.866000", "092538.868000", "092538.871000", "092538.874000", "092538.876000", "092538.879000", "092538.881000", "092538.884000", "092538.886000", "092538.889000", "092538.892000", "092538.894000", "092538.897000", "092538.899000", "092538.902000", "092538.904000", "092538.907000", "092618.822000", "092618.825000", "092618.827000", "092618.830000", "092618.832000", "092618.835000", "092618.837000", "092618.840000", "092618.842000", "092618.845000", "092618.848000", "092618.850000", "092618.853000", "092618.855000", "092618.858000", "092618.861000", "092618.863000", "092618.866000", "092618.868000", "092618.871000", "092658.821000", "092658.823000", "092658.826000", "092658.829000", "092658.831000", "092658.834000", "092658.836000", "092658.839000", "092658.841000", "092658.844000", "092658.846000", "092658.849000", "092658.852000", "092658.854000", "092658.857000", "092658.859000", "092658.862000", "092658.864000", "092658.867000", "092658.869000", "092738.821000", "092738.824000", "092738.827000", "092738.829000", "092738.832000", "092738.834000", "092738.837000", "092738.840000", "092738.842000", "092738.845000", "092738.847000", "092738.850000", "092738.852000", "092738.855000", "092738.857000", "092738.860000", "092738.863000", "092738.865000", "092738.868000", "092738.870000", "092818.821000", "092818.824000", "092818.827000", "092818.830000", "092818.832000", "092818.835000", "092818.837000", "092818.840000", "092818.842000", "092818.845000", "092818.848000", "092818.850000", "092818.853000", "092818.855000", "092818.858000", "092818.860000", "092818.863000", "092818.866000", "092818.868000", "092818.871000", "092858.821000", "092858.824000", "092858.827000", "092858.829000", "092858.832000", "092858.834000", "092858.837000", "092858.840000", "092858.842000", "092858.845000", "092858.847000", "092858.850000", "092858.852000", "092858.855000", "092858.858000", "092858.860000", "092858.863000", "092858.865000", "092858.868000", "092858.870000", "092938.820000", "092938.823000", "092938.826000", "092938.828000", "092938.831000", "092938.834000", "092938.836000", "092938.839000", "092938.841000", "092938.844000", "092938.846000", "092938.849000", "092938.852000", "092938.854000", "092938.857000", "092938.859000", "092938.862000", "092938.864000", "092938.867000", "092938.870000", "093018.821000", "093018.824000", "093018.827000", "093018.829000", "093018.832000", "093018.834000", "093018.837000", "093018.840000", "093018.842000", "093018.845000", "093018.847000", "093018.850000", "093018.852000", "093018.855000", "093018.858000", "093018.860000", "093018.863000", "093018.865000", "093018.868000", "093018.870000", "093058.822000", "093058.831000", "093058.833000", "093058.836000", "093058.839000", "093058.841000", "093058.844000", "093058.846000", "093058.849000", "093058.851000", "093058.854000", "093058.856000", "093058.859000", "093058.862000", "093058.864000", "093058.867000", "093058.869000", "093058.872000", "093058.874000", "093058.877000", "093119.080000", "093119.083000", "093119.086000", "093119.089000", "093119.092000", "093119.095000", "093119.097000", "093119.100000", "093119.103000", "093119.105000", "093119.108000"],
      "InstanceNumber": [1, 2, 3, 4, 5, 6, 7, 8, 9, 10, 11, 12, 13, 14, 15, 16, 17, 18, 19, 20, 21, 22, 23, 24, 25, 26, 27, 28, 29, 30, 31, 32, 33, 34, 35, 36, 37, 38, 39, 40, 41, 42, 43, 44, 45, 46, 47, 48, 49, 50, 51, 52, 53, 54, 55, 56, 57, 58, 59, 60, 61, 62, 63, 64, 65, 66, 67, 68, 69, 70, 71, 72, 73, 74, 75, 76, 77, 78, 79, 80, 81, 82, 83, 84, 85, 86, 87, 88, 89, 90, 91, 92, 93, 94, 95, 96, 97, 98, 99, 100, 101, 102, 103, 104, 105, 106, 107, 108, 109, 110, 111, 112, 113, 114, 115, 116, 117, 118, 119, 120, 121, 122, 123, 124, 125, 126, 127, 128, 129, 130, 131, 132, 133, 134, 135, 136, 137, 138, 139, 140, 141, 142, 143, 144, 145, 146, 147, 148, 149, 150, 151, 152, 153, 154, 155, 156, 157, 158, 159, 160, 161, 162, 163, 164, 165, 166, 167, 168, 169, 170, 171, 172, 173, 174, 175, 176, 177, 178, 179, 180, 181, 182, 183, 184, 185, 186, 187, 188, 189, 190, 191, 192, 193, 194, 195, 196, 197, 198, 199, 200],
      "LargestImagePixelValue": [2001, 2004, 2005, 2001, 2005, 2003, 2000, 2007, 2007, 2002, 2007, 2008, 2003, 2005, 2002, 2000, 2002, 2007, 2006, 2001, 2000, 2010, 2004, 2010, 2003, 2004, 2004, 2005, 2009, 2004, 2004, 2004, 2006, 2001, 2002, 2004, 2008, 2006, 2006, 2005, 1998, 2011, 2010, 2003, 2002, 2001, 2011, 2008, 2005, 2008, 2005, 2000, 2000, 2002, 2007, 2001, 2002, 2002, 2009, 2004, 2000, 1999, 2003, 2004, 2003, 2001, 2008, 2000, 2001, 2003, 2007, 2002, 2000, 2005, 2000, 2002, 2003, 2008, 2006, 2007, 2006, 2003, 2002, 2003, 2001, 2007, 2001, 2003, 1999, 2007, 2004, 2004, 2001, 2007, 2010, 2006, 2011, 2010, 2005, 2006, 2008, 2003, 2008, 2006, 2007, 2005, 2003, 2005, 2003, 2003, 2004, 2004, 2009, 2004, 2002, 2008, 2008, 2004, 2009, 2002, 2008, 2004, 2003, 2004, 2007, 2006, 2009, 2009, 2002, 2002, 2006, 2004, 2006, 2002, 2002, 2005, 2006, 2003, 2009, 2006, 2008, 2007, 2009, 2004, 2008, 2007, 2003, 2005, 2004, 2010, 2005, 2009, 2005, 2005, 2004, 2001, 2005, 2006, 2005, 2003, 2005, 2007, 2000, 2006, 1998, 2005, 2005, 2004, 2007, 2001, 2006, 2002, 2003, 2010, 2008, 2006, 2011, 2007, 2004, 2012, 2007, 2006, 2004, 2007, 2006, 2007, 2005, 2009, 2004, 2000, 2002, 2005, 2002, 2004, 2000, 2002, 2003, 2002, 2002, 2007],
      "WindowWidth": [2118.0, 2118.0, 2118.0, 2118.0, 2118.0, 2118.0, 2118.0, 2118.0, 2118.0, 2118.0, 2118.0, 2118.0, 2118.0, 2118.0, 2118.0, 2118.0, 2118.0, 2118.0, 2118.0, 2118.0, 2118.0, 2118.0, 2118.0, 2118.0, 2118.0, 2118.0, 2118.0, 2118.0, 2118.0, 2118.0, 2118.0, 2118.0, 2118.0, 2118.0, 2118.0, 2118.0, 2118.0, 2118.0, 2118.0, 2118.0, 2118.0, 2118.0, 2118.0, 2118.0, 2118.0, 2118.0, 2118.0, 2118.0, 2118.0, 2118.0, 2118.0, 2118.0, 2118.0, 2118.0, 2118.0, 2118.0, 2118.0, 2118.0, 2118.0, 2118.0, 2118.0, 2118.0, 2118.0, 2118.0, 2118.0, 2118.0, 2118.0, 2118.0, 2118.0, 2118.0, 2118.0, 2118.0, 2118.0, 2118.0, 2118.0, 2118.0, 2118.0, 2118.0, 2118.0, 2118.0, 2118.0, 2118.0, 2118.0, 2118.0, 2118.0, 2118.0, 2118.0, 2118.0, 2118.0, 2118.0, 2118.0, 2118.0, 2118.0, 2118.0, 2118.0, 2118.0, 2118.0, 2118.0, 2118.0, 2118.0, 2118.0, 2118.0, 2118.0, 2118.0, 2118.0, 2118.0, 2118.0, 2118.0, 2118.0, 2118.0, 2118.0, 2118.0, 2118.0, 2118.0, 2118.0, 2118.0, 2118.0, 2118.0, 2118.0, 2118.0, 2118.0, 2118.0, 2118.0, 2118.0, 2118.0, 2118.0, 2118.0, 2118.0, 2118.0, 2118.0, 2117.0, 2118.0, 2118.0, 2118.0, 2118.0, 2118.0, 2118.0, 2118.0, 2118.0, 2118.0, 2118.0, 2118.0, 2118.0, 2118.0, 2118.0, 2118.0, 2118.0, 2118.0, 2118.0, 2118.0, 2118.0, 2118.0, 2118.0, 2117.0, 2118.0, 2120.0, 2119.0, 2120.0, 2119.0, 2120.0, 2120.0, 2120.0, 2120.0, 2119.0, 2120.0, 2120.0, 2119.0, 2119.0, 2119.0, 2120.0, 2119.0, 2119.0, 2119.0, 2118.0, 2119.0, 2120.0, 2120.0, 2119.0, 2119.0, 2119.0, 2120.0, 2120.0, 2120.0, 2120.0, 2120.0, 2120.0, 2119.0, 2119.0, 2119.0, 2119.0, 2119.0, 2119.0, 2120.0, 2120.0, 2119.0, 2120.0, 2120.0, 2120.0, 2120.0, 2120.0]
    },
    "slices": {}
  }
}