{
  "AcquisitionMatrixPE": 122,
  "AcquisitionNumber": 1,
  "AcquisitionTime": "10:41:25.062500",
  "BandwidthPerPixelPhaseEncode": 28.76,
  "BaseResolution": 122,
  "BodyPartExamined": "BRAIN",
  "CoilCombinationMethod": "Adaptive Combine",
  "ConsistencyInfo": "N4_VE11C_LATEST_20160120",
  "ConversionSoftware": "dcm2niix",
  "ConversionSoftwareVersion": "v1.0.20220720",
  "DerivedVendorReportedEchoSpacing": 0.000570008,
  "DeviceSerialNumber": "66112",
  "DiffusionScheme": "Monopolar",
  "DwellTime": 2e-06,
  "EchoTime": 0.075,
  "EchoTrainLength": 61,
  "EffectiveEchoSpacing": 0.000285004,
  "FlipAngle": 90,
  "HeudiconvVersion": "0.13.1",
  "ImageOrientationPatientDICOM": [0.976076, 0.216756, 0.0170814, -0.21157, 0.928734, 0.304452],
  "ImageOrientationText": "Tra>Cor(17.5)>Sag(-2.9)",
  "ImageType": [
    "ORIGINAL",
    "PRIMARY",
    "DIFFUSION",
    "NONE",
    "ND",
    "NORM"
],
  "ImagingFrequency": 123.252,
  "InPlanePhaseEncodingDirectionDICOM": "COL",
  "InstitutionAddress": "Maynard 3,Hanover,NH,US,03755",
  "InstitutionName": "Dartmouth College - PBS",
  "InstitutionalDepartmentName": "Department",
  "MRAcquisitionType": "2D",
  "MagneticFieldStrength": 3,
  "Manufacturer": "Siemens",
  "ManufacturersModelName": "Prisma",
  "MatrixCoilMode": "GRAPPA",
  "Modality": "MR",
  "NonlinearGradientCorrection": false,
  "ParallelReductionFactorInPlane": 2,
  "PartialFourier": 1,
  "PatientPosition": "HFS",
  "PercentPhaseFOV": 100,
  "PercentSampling": 100,
  "PhaseEncodingDirection": "j-",
  "PhaseEncodingSteps": 122,
  "PhaseResolution": 1,
  "PixelBandwidth": 2050,
  "ProcedureStepDescription": "dbic^QA",
  "ProtocolName": "dwi_acq-DTI-30-p2",
  "PulseSequenceDetails": "%SiemensSeq%\\ep2d_diff",
  "ReceiveCoilActiveElements": "HEA;HEP",
  "ReceiveCoilName": "Head_32",
  "ReconMatrixPE": 122,
  "RefLinesPE": 38,
  "RepetitionTime": 7.7,
  "SAR": 0.120464,
  "ScanOptions": "FS",
  "ScanningSequence": "EP",
  "SequenceName": "*ep_b0",
  "SequenceVariant": "SK\\SP",
  "SeriesDescription": "dwi_acq-DTI-30-p2",
  "SeriesNumber": 8,
  "ShimSetting": [4146, -7694, -7500, 337, 6, -147, -77, 31],
  "SliceThickness": 2,
  "SliceTiming": [3.84375, 0, 3.95312, 0.11719, 4.0625, 0.22656, 4.17188, 0.33594, 4.28125, 0.4375, 4.39062, 0.55469, 4.5, 0.66406, 4.60938, 0.77344, 4.71875, 0.88281, 4.82812, 0.99219, 4.9375, 1.10156, 5.05469, 1.21094, 5.16406, 1.32031, 5.26562, 1.42969, 5.375, 1.53906, 5.49219, 1.64844, 5.60156, 1.75781, 5.71094, 1.86719, 5.82031, 1.97656, 5.92969, 2.08594, 6.03906, 2.19531, 6.14844, 2.3125, 6.25781, 2.41406, 6.36719, 2.52344, 6.47656, 2.63281, 6.58594, 2.75, 6.69531, 2.85938, 6.80469, 2.96875, 6.91406, 3.07812, 7.02344, 3.1875, 7.13281, 3.29688, 7.24219, 3.40625, 7.35156, 3.51562, 7.46094, 3.625, 7.57031, 3.73438],
  "SoftwareVersions": "syngo MR E11",
  "SpacingBetweenSlices": 2,
  "SpoilingState": true,
  "StationName": "AWP66112",
  "TotalReadoutTime": 0.0344855,
  "TxRefAmp": 227.809,
  "dcmmeta_affine": [
    [-1.9201503992080688, -0.4162037670612335, -0.10025548934936523, 155.8674774169922],
    [-0.4264044165611267, 1.8270176649093628, 0.6015663146972656, -98.93562316894531],
    [0.03360270708799362, -0.5989227890968323, 1.9047508239746094, -33.675804138183594],
    [0.0, 0.0, 0.0, 1.0]
],
  "dcmmeta_reorient_transform": [
    [0.0, -1.0, 0.0, 121.0],
    [1.0, 0.0, 0.0, 0.0],
    [0.0, 0.0, -1.0, 69.0],
    [0.0, 0.0, 0.0, 1.0]
],
  "dcmmeta_shape": [122, 122, 70, 31],
  "dcmmeta_slice_dim": 2,
  "dcmmeta_version": 0.6,
  "global": {
    "const": {
      "AccessionNumber": "qa",
      "AcquisitionMatrix": [122, 0, 0, 122],
      "AngioFlag": "N",
      "BitsAllocated": 16,
      "BitsStored": 12,
      "BodyPartExamined": "BRAIN",
      "Columns": 122,
      "EchoNumbers": 1,
      "EchoTime": 75.0,
      "EchoTrainLength": 61,
      "FlipAngle": 90.0,
      "HighBit": 11,
      "ImageOrientationPatient": [0.97607645587382, 0.21675557400003, 0.01708137666331, -0.2115702377136, 0.92873395405287, 0.30445242173965],
      "ImageType": [
        "ORIGINAL",
        "PRIMARY",
        "DIFFUSION",
        "NONE",
        "ND",
        "NORM"
],
      "ImagedNucleus": "1H",
      "ImagingFrequency": 123.252418,
      "InPlanePhaseEncodingDirection": "COL",
      "MRAcquisitionType": "2D",
      "MagneticFieldStrength": 3.0,
      "Manufacturer": "SIEMENS",
      "ManufacturerModelName": "Prisma",
      "Modality": "MR",
      "NumberOfAverages": 1.0,
      "NumberOfPhaseEncodingSteps": 122,
      "PercentPhaseFieldOfView": 100.0,
      "PercentSampling": 100.0,
      "PerformedProcedureStepStartTime": "101728.121000",
      "PhotometricInterpretation": "MONOCHROME2",
      "PixelBandwidth": 2050.0,
      "PixelRepresentation": 0,
      "PixelSpacing": [1.9672131538391, 1.9672131538391],
      "ProtocolName": "dwi_acq-DTI-30-p2",
      "RepetitionTime": 7700.0,
      "Rows": 122,
      "SAR": 0.12046427535952,
      "SamplesPerPixel": 1,
      "ScanOptions": "FS",
      "ScanningSequence": "EP",
      "SequenceVariant": [
        "SK",
        "SP"
],
      "SeriesDescription": "dwi_acq-DTI-30-p2",
      "SeriesNumber": 8,
      "SeriesTime": "104137.724000",
      "SliceThickness": 2.0,
      "SmallestImagePixelValue": 0,
      "SoftwareVersions": "syngo MR E11",
      "SpacingBetweenSlices": 2.0,
      "SpecificCharacterSet": "ISO_IR 100",
      "StudyID": "82",
      "StudyTime": "101728.020000",
      "TransmitCoilName": "Body",
      "VariableFlipAngleFlag": "N",
      "WindowCenterWidthExplanation": "Algo1",
      "dBdt": 0.0},
    "slices": {
      "AcquisitionTime": ["104125.062500", "104121.222500", "104125.172500", "104121.332500", "104125.282500", "104121.442500", "104125.392500", "104121.552500", "104125.500000", "104121.660000", "104125.610000", "104121.770000", "104125.720000", "104121.880000", "104125.830000", "104121.990000", "104125.940000", "104122.100000", "104126.050000", "104122.210000", "104126.160000", "104122.320000", "104126.270000", "104122.430000", "104126.380000", "104122.540000", "104126.487500", "104122.647500", "104126.597500", "104122.757500", "104126.707500", "104122.867500", "104126.817500", "104122.977500", "104126.927500", "104123.087500", "104127.037500", "104123.197500", "104127.147500", "104123.307500", "104127.257500", "104123.417500", "104127.365000", "104123.527500", "104127.475000", "104123.635000", "104127.585000", "104123.745000", "104127.695000", "104123.855000", "104127.805000", "104123.965000", "104127.915000", "104124.075000", "104128.025000", "104124.185000", "104128.135000", "104124.295000", "104128.245000", "104124.405000", "104128.352500", "104124.512500", "104128.462500", "104124.622500", "104128.572500", "104124.732500", "104128.682500", "104124.842500", "104128.792500", "104124.952500", "104132.762500", "104128.922500", "104132.872500", "104129.032500", "104132.982500", "104129.142500", "104133.092500", "104129.252500", "104133.200000", "104129.360000", "104133.310000", "104129.470000", "104133.420000", "104129.580000", "104133.530000", "104129.690000", "104133.640000", "104129.800000", "104133.750000", "104129.910000", "104133.860000", "104130.020000", "104133.970000", "104130.130000", "104134.080000", "104130.240000", "104134.187500", "104130.347500", "104134.297500", "104130.457500", "104134.407500", "104130.567500", "104134.517500", "104130.677500", "104134.627500", "104130.787500", "104134.737500", "104130.897500", "104134.847500", "104131.007500", "104134.957500", "104131.117500", "104135.065000", "104131.227500", "104135.175000", "104131.335000", "104135.285000", "104131.445000", "104135.395000", "104131.555000", "104135.505000", "104131.665000", "104135.615000", "104131.775000", "104135.725000", "104131.885000", "104135.835000", "104131.995000", "104135.945000", "104132.105000", "104136.052500", "104132.212500", "104136.162500", "104132.322500", "104136.272500", "104132.432500", "104136.382500", "104132.542500", "104136.492500", "104132.652500", "104140.462500", "104136.622500", "104140.572500", "104136.732500", "104140.682500", "104136.842500", "104140.792500", "104136.952500", "104140.900000", "104137.060000", "104141.010000", "104137.170000", "104141.120000", "104137.280000", "104141.230000", "104137.390000", "104141.340000", "104137.500000", "104141.450000", "104137.610000", "104141.560000", "104137.720000", "104141.670000", "104137.830000", "104141.780000", "104137.940000", "104141.887500", "104138.047500", "104141.997500", "104138.157500", "104142.107500", "104138.267500", "104142.217500", "104138.377500", "104142.327500", "104138.487500", "104142.437500", "104138.597500", "104142.547500", "104138.707500", "104142.657500", "104138.817500", "104142.765000", "104138.927500", "104142.875000", "104139.035000", "104142.985000", "104139.145000", "104143.095000", "104139.255000", "104143.205000", "104139.365000", "104143.315000", "104139.475000", "104143.425000", "104139.585000", "104143.535000", "104139.695000", "104143.645000", "104139.805000", "104143.752500", "104139.912500", "104143.862500", "104140.022500", "104143.972500", "104140.132500", "104144.082500", "104140.242500", "104144.192500", "104140.352500", "104148.162500", "104144.322500", "104148.272500", "104144.432500", "104148.382500", "104144.542500", "104148.492500", "104144.652500", "104148.600000", "104144.760000", "104148.710000", "104144.870000", "104148.820000", "104144.980000", "104148.930000", "104145.090000", "104149.040000", "104145.200000", "104149.150000", "104145.310000", "104149.260000", "104145.420000", "104149.370000", "104145.530000", "104149.480000", "104145.640000", "104149.587500", "104145.747500", "104149.697500", "104145.857500", "104149.807500", "104145.967500", "104149.917500", "104146.077500", "104150.027500", "104146.187500", "104150.137500", "104146.297500", "104150.247500", "104146.407500", "104150.357500", "104146.517500", "104150.465000", "104146.627500", "104150.575000", "104146.735000", "104150.685000", "104146.845000", "104150.795000", "104146.955000", "104150.905000", "104147.065000", "104151.015000", "104147.175000", "104151.125000", "104147.285000", "104151.235000", "104147.395000", "104151.345000", "104147.505000", "104151.452500", "104147.612500", "104151.562500", "104147.722500", "104151.672500", "104147.832500", "104151.782500", "104147.942500", "104151.892500", "104148.052500", "104155.862500", "104152.022500", "104155.972500", "104152.132500", "104156.082500", "104152.242500", "104156.192500", "104152.352500", "104156.300000", "104152.460000", "104156.410000", "104152.570000", "104156.520000", "104152.680000", "104156.630000", "104152.790000", "104156.740000", "104152.900000", "104156.850000", "104153.010000", "104156.960000", "104153.120000", "104157.070000", "104153.230000", "104157.180000", "104153.340000", "104157.287500", "104153.447500", "104157.397500", "104153.557500", "104157.507500", "104153.667500", "104157.617500", "104153.777500", "104157.727500", "104153.887500", "104157.837500", "104153.997500", "104157.947500", "104154.107500", "104158.057500", "104154.217500", "104158.165000", "104154.327500", "104158.275000", "104154.435000", "104158.385000", "104154.545000", "104158.495000", "104154.655000", "104158.605000", "104154.765000", "104158.715000", "104154.875000", "104158.825000", "104154.985000", "104158.935000", "104155.095000", "104159.045000", "104155.205000", "104159.152500", "104155.312500", "104159.262500", "104155.422500", "104159.372500", "104155.532500", "104159.482500", "104155.642500", "104159.592500", "104155.752500", "104203.562500", "104159.722500", "104203.672500", "104159.832500", "104203.782500", "104159.942500", "104203.892500", "104200.052500", "104204.000000", "104200.160000", "104204.110000", "104200.270000", "104204.220000", "104200.380000", "104204.330000", "104200.490000", "104204.440000", "104200.600000", "104204.550000", "104200.710000", "104204.660000", "104200.820000", "104204.770000", "104200.930000", "104204.880000", "104201.040000", "104204.987500", "104201.147500", "104205.097500", "104201.257500", "104205.207500", "104201.367500", "104205.317500", "104201.477500", "104205.427500", "104201.587500", "104205.537500", "104201.697500", "104205.647500", "104201.807500", "104205.757500", "104201.917500", "104205.865000", "104202.027500", "104205.975000", "104202.135000", "104206.085000", "104202.245000", "104206.195000", "104202.355000", "104206.305000", "104202.465000", "104206.415000", "104202.575000", "104206.525000", "104202.685000", "104206.635000", "104202.795000", "104206.745000", "104202.905000", "104206.852500", "104203.012500", "104206.962500", "104203.122500", "104207.072500", "104203.232500", "104207.182500", "104203.342500", "104207.292500", "104203.452500", "104211.262500", "104207.422500", "104211.372500", "104207.532500", "104211.482500", "104207.642500", "104211.592500", "104207.752500", "104211.700000", "104207.860000", "104211.810000", "104207.970000", "104211.920000", "104208.080000", "104212.030000", "104208.190000", "104212.140000", "104208.300000", "104212.250000", "104208.410000", "104212.360000", "104208.520000", "104212.470000", "104208.630000", "104212.580000", "104208.740000", "104212.687500", "104208.847500", "104212.797500", "104208.957500", "104212.907500", "104209.067500", "104213.017500", "104209.177500", "104213.127500", "104209.287500", "104213.237500", "104209.397500", "104213.347500", "104209.507500", "104213.457500", "104209.617500", "104213.565000", "104209.727500", "104213.675000", "104209.835000", "104213.785000", "104209.945000", "104213.895000", "104210.055000", "104214.005000", "104210.165000", "104214.115000", "104210.275000", "104214.225000", "104210.385000", "104214.335000", "104210.495000", "104214.445000", "104210.605000", "104214.552500", "104210.712500", "104214.662500", "104210.822500", "104214.772500", "104210.932500", "104214.882500", "104211.042500", "104214.992500", "104211.152500", "104218.962500", "104215.122500", "104219.072500", "104215.232500", "104219.182500", "104215.342500", "104219.292500", "104215.452500", "104219.400000", "104215.560000", "104219.510000", "104215.670000", "104219.620000", "104215.780000", "104219.730000", "104215.890000", "104219.840000", "104216.000000", "104219.950000", "104216.110000", "104220.060000", "104216.220000", "104220.170000", "104216.330000", "104220.280000", "104216.440000", "104220.387500", "104216.547500", "104220.497500", "104216.657500", "104220.607500", "104216.767500", "104220.717500", "104216.877500", "104220.827500", "104216.987500", "104220.937500", "104217.097500", "104221.047500", "104217.207500", "104221.157500", "104217.317500", "104221.265000", "104217.427500", "104221.375000", "104217.535000", "104221.485000", "104217.645000", "104221.595000", "104217.755000", "104221.705000", "104217.865000", "104221.815000", "104217.975000", "104221.925000", "104218.085000", "104222.035000", "104218.195000", "104222.145000", "104218.305000", "104222.252500", "104218.412500", "104222.362500", "104218.522500", "104222.472500", "104218.632500", "104222.582500", "104218.742500", "104222.692500", "104218.852500", "104226.662500", "104222.822500", "104226.772500", "104222.932500", "104226.882500", "104223.042500", "104226.992500", "104223.152500", "104227.100000", "104223.260000", "104227.210000", "104223.370000", "104227.320000", "104223.480000", "104227.430000", "104223.590000", "104227.540000", "104223.700000", "104227.650000", "104223.810000", "104227.760000", "104223.920000", "104227.870000", "104224.030000", "104227.980000", "104224.140000", "104228.087500", "104224.247500", "104228.197500", "104224.357500", "104228.307500", "104224.467500", "104228.417500", "104224.577500", "104228.527500", "104224.687500", "104228.637500", "104224.797500", "104228.747500", "104224.907500", "104228.857500", "104225.017500", "104228.965000", "104225.127500", "104229.075000", "104225.235000", "104229.185000", "104225.345000", "104229.295000", "104225.455000", "104229.405000", "104225.565000", "104229.515000", "104225.675000", "104229.625000", "104225.785000", "104229.735000", "104225.895000", "104229.845000", "104226.005000", "104229.952500", "104226.112500", "104230.062500", "104226.222500", "104230.172500", "104226.332500", "104230.282500", "104226.442500", "104230.392500", "104226.552500", "104234.362500", "104230.522500", "104234.472500", "104230.632500", "104234.582500", "104230.742500", "104234.692500", "104230.852500", "104234.800000", "104230.960000", "104234.910000", "104231.070000", "104235.020000", "104231.180000", "104235.130000", "104231.290000", "104235.240000", "104231.400000", "104235.350000", "104231.510000", "104235.460000", "104231.620000", "104235.570000", "104231.730000", "104235.680000", "104231.840000", "104235.787500", "104231.947500", "104235.897500", "104232.057500", "104236.007500", "104232.167500", "104236.117500", "104232.277500", "104236.227500", "104232.387500", "104236.337500", "104232.497500", "104236.447500", "104232.607500", "104236.557500", "104232.717500", "104236.665000", "104232.827500", "104236.775000", "104232.935000", "104236.885000", "104233.045000", "104236.995000", "104233.155000", "104237.105000", "104233.265000", "104237.215000", "104233.375000", "104237.325000", "104233.485000", "104237.435000", "104233.595000", "104237.545000", "104233.705000", "104237.652500", "104233.812500", "104237.762500", "104233.922500", "104237.872500", "104234.032500", "104237.982500", "104234.142500", "104238.092500", "104234.252500", "104242.062500", "104238.222500", "104242.172500", "104238.332500", "104242.282500", "104238.442500", "104242.392500", "104238.552500", "104242.500000", "104238.660000", "104242.610000", "104238.770000", "104242.720000", "104238.880000", "104242.830000", "104238.990000", "104242.940000", "104239.100000", "104243.050000", "104239.210000", "104243.160000", "104239.320000", "104243.270000", "104239.430000", "104243.380000", "104239.540000", "104243.487500", "104239.647500", "104243.597500", "104239.757500", "104243.707500", "104239.867500", "104243.817500", "104239.977500", "104243.927500", "104240.087500", "104244.037500", "104240.197500", "104244.147500", "104240.307500", "104244.257500", "104240.417500", "104244.365000", "104240.527500", "104244.475000", "104240.635000", "104244.585000", "104240.745000", "104244.695000", "104240.855000", "104244.805000", "104240.965000", "104244.915000", "104241.075000", "104245.025000", "104241.185000", "104245.135000", "104241.295000", "104245.245000", "104241.405000", "104245.352500", "104241.512500", "104245.462500", "104241.622500", "104245.572500", "104241.732500", "104245.682500", "104241.842500", "104245.792500", "104241.952500", "104249.762500", "104245.922500", "104249.872500", "104246.032500", "104249.982500", "104246.142500", "104250.092500", "104246.252500", "104250.200000", "104246.360000", "104250.310000", "104246.470000", "104250.420000", "104246.580000", "104250.530000", "104246.690000", "104250.640000", "104246.800000", "104250.750000", "104246.910000", "104250.860000", "104247.020000", "104250.970000", "104247.130000", "104251.080000", "104247.240000", "104251.187500", "104247.347500", "104251.297500", "104247.457500", "104251.407500", "104247.567500", "104251.517500", "104247.677500", "104251.627500", "104247.787500", "104251.737500", "104247.897500", "104251.847500", "104248.007500", "104251.957500", "104248.117500", "104252.065000", "104248.227500", "104252.175000", "104248.335000", "104252.285000", "104248.445000", "104252.395000", "104248.555000", "104252.505000", "104248.665000", "104252.615000", "104248.775000", "104252.725000", "104248.885000", "104252.835000", "104248.995000", "104252.945000", "104249.105000", "104253.052500", "104249.212500", "104253.162500", "104249.322500", "104253.272500", "104249.432500", "104253.382500", "104249.542500", "104253.492500", "104249.652500", "104257.462500", "104253.622500", "104257.572500", "104253.732500", "104257.682500", "104253.842500", "104257.792500", "104253.952500", "104257.900000", "104254.060000", "104258.010000", "104254.170000", "104258.120000", "104254.280000", "104258.230000", "104254.390000", "104258.340000", "104254.500000", "104258.450000", "104254.610000", "104258.560000", "104254.720000", "104258.670000", "104254.830000", "104258.780000", "104254.940000", "104258.887500", "104255.047500", "104258.997500", "104255.157500", "104259.107500", "104255.267500", "104259.217500", "104255.377500", "104259.327500", "104255.487500", "104259.437500", "104255.597500", "104259.547500", "104255.707500", "104259.657500", "104255.817500", "104259.765000", "104255.927500", "104259.875000", "104256.035000", "104259.985000", "104256.145000", "104300.095000", "104256.255000", "104300.205000", "104256.365000", "104300.315000", "104256.475000", "104300.425000", "104256.585000", "104300.535000", "104256.695000", "104300.645000", "104256.805000", "104300.752500", "104256.912500", "104300.862500", "104257.022500", "104300.972500", "104257.132500", "104301.082500", "104257.242500", "104301.192500", "104257.352500", "104305.162500", "104301.322500", "104305.272500", "104301.432500", "104305.382500", "104301.542500", "104305.492500", "104301.652500", "104305.600000", "104301.760000", "104305.710000", "104301.870000", "104305.820000", "104301.980000", "104305.930000", "104302.090000", "104306.040000", "104302.200000", "104306.150000", "104302.310000", "104306.260000", "104302.420000", "104306.370000", "104302.530000", "104306.480000", "104302.640000", "104306.587500", "104302.747500", "104306.697500", "104302.857500", "104306.807500", "104302.967500", "104306.917500", "104303.077500", "104307.027500", "104303.187500", "104307.137500", "104303.297500", "104307.247500", "104303.407500", "104307.357500", "104303.517500", "104307.465000", "104303.627500", "104307.575000", "104303.735000", "104307.685000", "104303.845000", "104307.795000", "104303.955000", "104307.905000", "104304.065000", "104308.015000", "104304.175000", "104308.125000", "104304.285000", "104308.235000", "104304.395000", "104308.345000", "104304.505000", "104308.452500", "104304.612500", "104308.562500", "104304.722500", "104308.672500", "104304.832500", "104308.782500", "104304.942500", "104308.892500", "104305.052500", "104312.862500", "104309.022500", "104312.972500", "104309.132500", "104313.082500", "104309.242500", "104313.192500", "104309.352500", "104313.300000", "104309.460000", "104313.410000", "104309.570000", "104313.520000", "104309.680000", "104313.630000", "104309.790000", "104313.740000", "104309.900000", "104313.850000", "104310.010000", "104313.960000", "104310.120000", "104314.070000", "104310.230000", "104314.180000", "104310.340000", "104314.287500", "104310.447500", "104314.397500", "104310.557500", "104314.507500", "104310.667500", "104314.617500", "104310.777500", "104314.727500", "104310.887500", "104314.837500", "104310.997500", "104314.947500", "104311.107500", "104315.057500", "104311.217500", "104315.165000", "104311.327500", "104315.275000", "104311.435000", "104315.385000", "104311.545000", "104315.495000", "104311.655000", "104315.605000", "104311.765000", "104315.715000", "104311.875000", "104315.825000", "104311.985000", "104315.935000", "104312.095000", "104316.045000", "104312.205000", "104316.152500", "104312.312500", "104316.262500", "104312.422500", "104316.372500", "104312.532500", "104316.482500", "104312.642500", "104316.592500", "104312.752500", "104320.562500", "104316.722500", "104320.672500", "104316.832500", "104320.782500", "104316.942500", "104320.892500", "104317.052500", "104321.000000", "104317.160000", "104321.110000", "104317.270000", "104321.220000", "104317.380000", "104321.330000", "104317.490000", "104321.440000", "104317.600000", "104321.550000", "104317.710000", "104321.660000", "104317.820000", "104321.770000", "104317.930000", "104321.880000", "104318.040000", "104321.987500", "104318.147500", "104322.097500", "104318.257500", "104322.207500", "104318.367500", "104322.317500", "104318.477500", "104322.427500", "104318.587500", "104322.537500", "104318.697500", "104322.647500", "104318.807500", "104322.757500", "104318.917500", "104322.865000", "104319.027500", "104322.975000", "104319.135000", "104323.085000", "104319.245000", "104323.195000", "104319.355000", "104323.305000", "104319.465000", "104323.415000", "104319.575000", "104323.525000", "104319.685000", "104323.635000", "104319.795000", "104323.745000", "104319.905000", "104323.852500", "104320.012500", "104323.962500", "104320.122500", "104324.072500", "104320.232500", "104324.182500", "104320.342500", "104324.292500", "104320.452500", "104328.262500", "104324.422500", "104328.372500", "104324.532500", "104328.482500", "104324.642500", "104328.592500", "104324.752500", "104328.700000", "104324.860000", "104328.810000", "104324.970000", "104328.920000", "104325.080000", "104329.030000", "104325.190000", "104329.140000", "104325.300000", "104329.250000", "104325.410000", "104329.360000", "104325.520000", "104329.470000", "104325.630000", "104329.580000", "104325.740000", "104329.687500", "104325.847500", "104329.797500", "104325.957500", "104329.907500", "104326.067500", "104330.017500", "104326.177500", "104330.127500", "104326.287500", "104330.237500", "104326.397500", "104330.347500", "104326.507500", "104330.457500", "104326.617500", "104330.565000", "104326.727500", "104330.675000", "104326.835000", "104330.785000", "104326.945000", "104330.895000", "104327.055000", "104331.005000", "104327.165000", "104331.115000", "104327.275000", "104331.225000", "104327.385000", "104331.335000", "104327.495000", "104331.445000", "104327.605000", "104331.552500", "104327.712500", "104331.662500", "104327.822500", "104331.772500", "104327.932500", "104331.882500", "104328.042500", "104331.992500", "104328.152500", "104335.962500", "104332.122500", "104336.072500", "104332.232500", "104336.182500", "104332.342500", "104336.292500", "104332.452500", "104336.400000", "104332.560000", "104336.510000", "104332.670000", "104336.620000", "104332.780000", "104336.730000", "104332.890000", "104336.840000", "104333.000000", "104336.950000", "104333.110000", "104337.060000", "104333.220000", "104337.170000", "104333.330000", "104337.280000", "104333.440000", "104337.387500", "104333.547500", "104337.497500", "104333.657500", "104337.607500", "104333.767500", "104337.717500", "104333.877500", "104337.827500", "104333.987500", "104337.937500", "104334.097500", "104338.047500", "104334.207500", "104338.157500", "104334.317500", "104338.265000", "104334.427500", "104338.375000", "104334.535000", "104338.485000", "104334.645000", "104338.595000", "104334.755000", "104338.705000", "104334.865000", "104338.815000", "104334.975000", "104338.925000", "104335.085000", "104339.035000", "104335.195000", "104339.145000", "104335.305000", "104339.252500", "104335.412500", "104339.362500", "104335.522500", "104339.472500", "104335.632500", "104339.582500", "104335.742500", "104339.692500", "104335.852500", "104343.662500", "104339.822500", "104343.772500", "104339.932500", "104343.882500", "104340.042500", "104343.992500", "104340.152500", "104344.100000", "104340.260000", "104344.210000", "104340.370000", "104344.320000", "104340.480000", "104344.430000", "104340.590000", "104344.540000", "104340.700000", "104344.650000", "104340.810000", "104344.760000", "104340.920000", "104344.870000", "104341.030000", "104344.980000", "104341.140000", "104345.087500", "104341.247500", "104345.197500", "104341.357500", "104345.307500", "104341.467500", "104345.417500", "104341.577500", "104345.527500", "104341.687500", "104345.637500", "104341.797500", "104345.747500", "104341.907500", "104345.857500", "104342.017500", "104345.965000", "104342.127500", "104346.075000", "104342.235000", "104346.185000", "104342.345000", "104346.295000", "104342.455000", "104346.405000", "104342.565000", "104346.515000", "104342.675000", "104346.625000", "104342.785000", "104346.735000", "104342.895000", "104346.845000", "104343.005000", "104346.952500", "104343.112500", "104347.062500", "104343.222500", "104347.172500", "104343.332500", "104347.282500", "104343.442500", "104347.392500", "104343.552500", "104351.362500", "104347.522500", "104351.472500", "104347.632500", "104351.582500", "104347.742500", "104351.692500", "104347.852500", "104351.800000", "104347.960000", "104351.910000", "104348.070000", "104352.020000", "104348.180000", "104352.130000", "104348.290000", "104352.240000", "104348.400000", "104352.350000", "104348.510000", "104352.460000", "104348.620000", "104352.570000", "104348.730000", "104352.680000", "104348.840000", "104352.787500", "104348.947500", "104352.897500", "104349.057500", "104353.007500", "104349.167500", "104353.117500", "104349.277500", "104353.227500", "104349.387500", "104353.337500", "104349.497500", "104353.447500", "104349.607500", "104353.557500", "104349.717500", "104353.665000", "104349.827500", "104353.775000", "104349.935000", "104353.885000", "104350.045000", "104353.995000", "104350.155000", "104354.105000", "104350.265000", "104354.215000", "104350.375000", "104354.325000", "104350.485000", "104354.435000", "104350.595000", "104354.545000", "104350.705000", "104354.652500", "104350.812500", "104354.762500", "104350.922500", "104354.872500", "104351.032500", "104354.982500", "104351.142500", "104355.092500", "104351.252500", "104359.062500", "104355.222500", "104359.172500", "104355.332500", "104359.282500", "104355.442500", "104359.392500", "104355.552500", "104359.500000", "104355.660000", "104359.610000", "104355.770000", "104359.720000", "104355.880000", "104359.830000", "104355.990000", "104359.940000", "104356.100000", "104400.050000", "104356.210000", "104400.160000", "104356.320000", "104400.270000", "104356.430000", "104400.380000", "104356.540000", "104400.487500", "104356.647500", "104400.597500", "104356.757500", "104400.707500", "104356.867500", "104400.817500", "104356.977500", "104400.927500", "10