{
  "AcquisitionMatrixPE": 122,
  "AcquisitionNumber": 1,
  "AcquisitionTime": "10:45:47.475000",
  "BandwidthPerPixelPhaseEncode": 27.785,
  "BaseResolution": 122,
  "BodyPartExamined": "BRAIN",
  "CoilCombinationMethod": "Adaptive Combine",
  "ConsistencyInfo": "N4_VE11C_LATEST_20160120",
  "ConversionSoftware": "dcm2niix",
  "ConversionSoftwareVersion": "v1.0.20220720",
  "DerivedVendorReportedEchoSpacing": 0.000590011,
  "DeviceSerialNumber": "66112",
  "DiffusionScheme": "Monopolar",
  "DwellTime": 2e-06,
  "EchoTime": 0.068,
  "EchoTrainLength": 61,
  "EffectiveEchoSpacing": 0.000295005,
  "FlipAngle": 90,
  "HeudiconvVersion": "0.13.1",
  "ImageOrientationPatientDICOM": [0.976076, 0.216756, 0.0170814, -0.21157, 0.928734, 0.304452],
  "ImageOrientationText": "Tra>Cor(17.5)>Sag(-2.9)",
  "ImageType": [
    "ORIGINAL",
    "PRIMARY",
    "DIFFUSION",
    "NONE",
    "ND",
    "NORM"
],
  "ImagingFrequency": 123.252,
  "InPlanePhaseEncodingDirectionDICOM": "COL",
  "InstitutionAddress": "Maynard 3,Hanover,NH,US,03755",
  "InstitutionName": "Dartmouth College - PBS",
  "InstitutionalDepartmentName": "Department",
  "MRAcquisitionType": "2D",
  "MagneticFieldStrength": 3,
  "Manufacturer": "Siemens",
  "ManufacturersModelName": "Prisma",
  "Modality": "MR",
  "MultibandAccelerationFactor": 4,
  "NonlinearGradientCorrection": false,
  "ParallelReductionFactorInPlane": 2,
  "PartialFourier": 1,
  "PatientPosition": "HFS",
  "PercentPhaseFOV": 100,
  "PercentSampling": 100,
  "PhaseEncodingDirection": "j-",
  "PhaseEncodingSteps": 122,
  "PhaseResolution": 1,
  "PixelBandwidth": 2050,
  "ProcedureStepDescription": "dbic^QA",
  "ProtocolName": "dwi_acq-DTI-30-p2-s4",
  "PulseSequenceDetails": "%SiemensSeq%\\ep2d_diff",
  "ReceiveCoilActiveElements": "HEA;HEP",
  "ReceiveCoilName": "Head_32",
  "ReconMatrixPE": 122,
  "RefLinesPE": 38,
  "RepetitionTime": 3.6,
  "SAR": 0.190251,
  "ScanOptions": "FS",
  "ScanningSequence": "EP",
  "SequenceName": "*ep_b0",
  "SequenceVariant": "SK\\SP",
  "SeriesDescription": "dwi_acq-DTI-30-p2-s4",
  "SeriesNumber": 9,
  "ShimSetting": [4146, -7694, -7500, 338, 6, -150, -77, 31],
  "SliceThickness": 2,
  "SliceTiming": [2.58594, 0, 1.78906, 0.19531, 1.98438, 0.39844, 2.1875, 0.59375, 2.38281, 0.99219, 2.78125, 1.19531, 2.98438, 1.39062, 3.17969, 1.58594, 3.38281, 0.79688, 2.58594, 0, 1.78906, 0.19531, 1.98438, 0.39844, 2.1875, 0.59375, 2.38281, 0.99219, 2.78125, 1.19531, 2.98438, 1.39062, 3.17969, 1.58594, 3.38281, 0.79688, 2.58594, 0, 1.78906, 0.19531, 1.98438, 0.39844, 2.1875, 0.59375, 2.38281, 0.99219, 2.78125, 1.19531, 2.98438, 1.39062, 3.17969, 1.58594, 3.38281, 0.79688, 2.58594, 0, 1.78906, 0.19531, 1.98438, 0.39844, 2.1875, 0.59375, 2.38281, 0.99219, 2.78125, 1.19531, 2.98438, 1.39062, 3.17969, 1.58594, 3.38281, 0.79688],
  "SoftwareVersions": "syngo MR E11",
  "SpacingBetweenSlices": 2,
  "SpoilingState": true,
  "StationName": "AWP66112",
  "TotalReadoutTime": 0.0356956,
  "TxRefAmp": 227.809,
  "dcmmeta_affine": [
    [-1.9201503992080688, -0.4162037670612335, -0.10025548934936523, 155.9677276611328],
    [-0.4264044165611267, 1.8270176649093628, 0.6015644073486328, -99.53705596923828],
    [0.03360270708799362, -0.5989227890968323, 1.9047508239746094, -35.5805549621582],
    [0.0, 0.0, 0.0, 1.0]
],
  "dcmmeta_reorient_transform": [
    [0.0, -1.0, 0.0, 121.0],
    [1.0, 0.0, 0.0, 0.0],
    [0.0, 0.0, -1.0, 71.0],
    [0.0, 0.0, 0.0, 1.0]
],
  "dcmmeta_shape": [122, 122, 72, 31],
  "dcmmeta_slice_dim": 2,
  "dcmmeta_version": 0.6,
  "global": {
    "const": {
      "AccessionNumber": "qa",
      "AcquisitionMatrix": [122, 0, 0, 122],
      "AngioFlag": "N",
      "BitsAllocated": 16,
      "BitsStored": 12,
      "BodyPartExamined": "BRAIN",
      "Columns": 122,
      "EchoNumbers": 1,
      "EchoTime": 68.0,
      "EchoTrainLength": 61,
      "FlipAngle": 90.0,
      "HighBit": 11,
      "ImageOrientationPatient": [0.97607645587382, 0.21675557400003, 0.01708137666331, -0.2115702377136, 0.92873395405287, 0.30445242173965],
      "ImageType": [
        "ORIGINAL",
        "PRIMARY",
        "DIFFUSION",
        "NONE",
        "ND",
        "NORM"
],
      "ImagedNucleus": "1H",
      "ImagingFrequency": 123.252418,
      "InPlanePhaseEncodingDirection": "COL",
      "MRAcquisitionType": "2D",
      "MagneticFieldStrength": 3.0,
      "Manufacturer": "SIEMENS",
      "ManufacturerModelName": "Prisma",
      "Modality": "MR",
      "NumberOfAverages": 1.0,
      "NumberOfPhaseEncodingSteps": 122,
      "PercentPhaseFieldOfView": 100.0,
      "PercentSampling": 100.0,
      "PerformedProcedureStepStartTime": "101728.121000",
      "PhotometricInterpretation": "MONOCHROME2",
      "PixelBandwidth": 2050.0,
      "PixelRepresentation": 0,
      "PixelSpacing": [1.9672131538391, 1.9672131538391],
      "ProtocolName": "dwi_acq-DTI-30-p2-s4",
      "RepetitionTime": 3600.0,
      "Rows": 122,
      "SAR": 0.1902514972201,
      "SamplesPerPixel": 1,
      "ScanOptions": "FS",
      "ScanningSequence": "EP",
      "SequenceVariant": [
        "SK",
        "SP"
],
      "SeriesDescription": "dwi_acq-DTI-30-p2-s4",
      "SeriesNumber": 9,
      "SeriesTime": "104556.308000",
      "SliceThickness": 2.0,
      "SmallestImagePixelValue": 0,
      "SoftwareVersions": "syngo MR E11",
      "SpacingBetweenSlices": 2.0,
      "SpecificCharacterSet": "ISO_IR 100",
      "StudyID": "82",
      "StudyTime": "101728.020000",
      "TransmitCoilName": "Body",
      "VariableFlipAngleFlag": "N",
      "WindowCenterWidthExplanation": "Algo1",
      "dBdt": 0.0},
    "slices": {
      "AcquisitionTime": ["104547.475000", "104544.890000", "104546.680000", "104545.087500", "104546.877500", "104545.287500", "104547.077500", "104545.485000", "104547.275000", "104545.882500", "104547.672500", "104546.082500", "104547.872500", "104546.280000", "104548.070000", "104546.480000", "104548.270000", "104545.685000", "104547.475000", "104544.890000", "104546.680000", "104545.087500", "104546.877500", "104545.287500", "104547.077500", "104545.485000", "104547.275000", "104545.882500", "104547.672500", "104546.082500", "104547.872500", "104546.280000", "104548.070000", "104546.480000", "104548.270000", "104545.685000", "104547.475000", "104544.890000", "104546.680000", "104545.087500", "104546.877500", "104545.287500", "104547.077500", "104545.485000", "104547.275000", "104545.882500", "104547.672500", "104546.082500", "104547.872500", "104546.280000", "104548.070000", "104546.480000", "104548.270000", "104545.685000", "104547.475000", "104544.890000", "104546.680000", "104545.087500", "104546.877500", "104545.287500", "104547.077500", "104545.485000", "104547.275000", "104545.882500", "104547.672500", "104546.082500", "104547.872500", "104546.280000", "104548.070000", "104546.480000", "104548.270000", "104545.685000", "104551.075000", "104548.490000", "104550.280000", "104548.687500", "104550.477500", "104548.887500", "104550.677500", "104549.085000", "104550.875000", "104549.482500", "104551.272500", "104549.682500", "104551.472500", "104549.880000", "104551.670000", "104550.080000", "104551.870000", "104549.285000", "104551.075000", "104548.490000", "104550.280000", "104548.687500", "104550.477500", "104548.887500", "104550.677500", "104549.085000", "104550.875000", "104549.482500", "104551.272500", "104549.682500", "104551.472500", "104549.880000", "104551.670000", "104550.080000", "104551.870000", "104549.285000", "104551.075000", "104548.490000", "104550.280000", "104548.687500", "104550.477500", "104548.887500", "104550.677500", "104549.085000", "104550.875000", "104549.482500", "104551.272500", "104549.682500", "104551.472500", "104549.880000", "104551.670000", "104550.080000", "104551.870000", "104549.285000", "104551.075000", "104548.490000", "104550.280000", "104548.687500", "104550.477500", "104548.887500", "104550.677500", "104549.085000", "104550.875000", "104549.482500", "104551.272500", "104549.682500", "104551.472500", "104549.880000", "104551.670000", "104550.080000", "104551.870000", "104549.285000", "104554.675000", "104552.090000", "104553.880000", "104552.287500", "104554.077500", "104552.487500", "104554.277500", "104552.685000", "104554.475000", "104553.082500", "104554.872500", "104553.282500", "104555.072500", "104553.480000", "104555.270000", "104553.680000", "104555.470000", "104552.885000", "104554.675000", "104552.090000", "104553.880000", "104552.287500", "104554.077500", "104552.487500", "104554.277500", "104552.685000", "104554.475000", "104553.082500", "104554.872500", "104553.282500", "104555.072500", "104553.480000", "104555.270000", "104553.680000", "104555.470000", "104552.885000", "104554.675000", "104552.090000", "104553.880000", "104552.287500", "104554.077500", "104552.487500", "104554.277500", "104552.685000", "104554.475000", "104553.082500", "104554.872500", "104553.282500", "104555.072500", "104553.480000", "104555.270000", "104553.680000", "104555.470000", "104552.885000", "104554.675000", "104552.090000", "104553.880000", "104552.287500", "104554.077500", "104552.487500", "104554.277500", "104552.685000", "104554.475000", "104553.082500", "104554.872500", "104553.282500", "104555.072500", "104553.480000", "104555.270000", "104553.680000", "104555.470000", "104552.885000", "104558.275000", "104555.690000", "104557.480000", "104555.887500", "104557.677500", "104556.087500", "104557.877500", "104556.285000", "104558.075000", "104556.682500", "104558.472500", "104556.882500", "104558.672500", "104557.080000", "104558.870000", "104557.280000", "104559.070000", "104556.485000", "104558.275000", "104555.690000", "104557.480000", "104555.887500", "104557.677500", "104556.087500", "104557.877500", "104556.285000", "104558.075000", "104556.682500", "104558.472500", "104556.882500", "104558.672500", "104557.080000", "104558.870000", "104557.280000", "104559.070000", "104556.485000", "104558.275000", "104555.690000", "104557.480000", "104555.887500", "104557.677500", "104556.087500", "104557.877500", "104556.285000", "104558.075000", "104556.682500", "104558.472500", "104556.882500", "104558.672500", "104557.080000", "104558.870000", "104557.280000", "104559.070000", "104556.485000", "104558.275000", "104555.690000", "104557.480000", "104555.887500", "104557.677500", "104556.087500", "104557.877500", "104556.285000", "104558.075000", "104556.682500", "104558.472500", "104556.882500", "104558.672500", "104557.080000", "104558.870000", "104557.280000", "104559.070000", "104556.485000", "104601.875000", "104559.290000", "104601.080000", "104559.487500", "104601.277500", "104559.687500", "104601.477500", "104559.885000", "104601.675000", "104600.282500", "104602.072500", "104600.482500", "104602.272500", "104600.680000", "104602.470000", "104600.880000", "104602.670000", "104600.085000", "104601.875000", "104559.290000", "104601.080000", "104559.487500", "104601.277500", "104559.687500", "104601.477500", "104559.885000", "104601.675000", "104600.282500", "104602.072500", "104600.482500", "104602.272500", "104600.680000", "104602.470000", "104600.880000", "104602.670000", "104600.085000", "104601.875000", "104559.290000", "104601.080000", "104559.487500", "104601.277500", "104559.687500", "104601.477500", "104559.885000", "104601.675000", "104600.282500", "104602.072500", "104600.482500", "104602.272500", "104600.680000", "104602.470000", "104600.880000", "104602.670000", "104600.085000", "104601.875000", "104559.290000", "104601.080000", "104559.487500", "104601.277500", "104559.687500", "104601.477500", "104559.885000", "104601.675000", "104600.282500", "104602.072500", "104600.482500", "104602.272500", "104600.680000", "104602.470000", "104600.880000", "104602.670000", "104600.085000", "104605.475000", "104602.890000", "104604.680000", "104603.087500", "104604.877500", "104603.287500", "104605.077500", "104603.485000", "104605.275000", "104603.882500", "104605.672500", "104604.082500", "104605.872500", "104604.280000", "104606.070000", "104604.480000", "104606.270000", "104603.685000", "104605.475000", "104602.890000", "104604.680000", "104603.087500", "104604.877500", "104603.287500", "104605.077500", "104603.485000", "104605.275000", "104603.882500", "104605.672500", "104604.082500", "104605.872500", "104604.280000", "104606.070000", "104604.480000", "104606.270000", "104603.685000", "104605.475000", "104602.890000", "104604.680000", "104603.087500", "104604.877500", "104603.287500", "104605.077500", "104603.485000", "104605.275000", "104603.882500", "104605.672500", "104604.082500", "104605.872500", "104604.280000", "104606.070000", "104604.480000", "104606.270000", "104603.685000", "104605.475000", "104602.890000", "104604.680000", "104603.087500", "104604.877500", "104603.287500", "104605.077500", "104603.485000", "104605.275000", "104603.882500", "104605.672500", "104604.082500", "104605.872500", "104604.280000", "104606.070000", "104604.480000", "104606.270000", "104603.685000", "104609.075000", "104606.490000", "104608.280000", "104606.687500", "104608.477500", "104606.887500", "104608.677500", "104607.085000", "104608.875000", "104607.482500", "104609.272500", "104607.682500", "104609.472500", "104607.880000", "104609.670000", "104608.080000", "104609.870000", "104607.285000", "104609.075000", "104606.490000", "104608.280000", "104606.687500", "104608.477500", "104606.887500", "104608.677500", "104607.085000", "104608.875000", "104607.482500", "104609.272500", "104607.682500", "104609.472500", "104607.880000", "104609.670000", "104608.080000", "104609.870000", "104607.285000", "104609.075000", "104606.490000", "104608.280000", "104606.687500", "104608.477500", "104606.887500", "104608.677500", "104607.085000", "104608.875000", "104607.482500", "104609.272500", "104607.682500", "104609.472500", "104607.880000", "104609.670000", "104608.080000", "104609.870000", "104607.285000", "104609.075000", "104606.490000", "104608.280000", "104606.687500", "104608.477500", "104606.887500", "104608.677500", "104607.085000", "104608.875000", "104607.482500", "104609.272500", "104607.682500", "104609.472500", "104607.880000", "104609.670000", "104608.080000", "104609.870000", "104607.285000", "104612.675000", "104610.090000", "104611.880000", "104610.287500", "104612.077500", "104610.487500", "104612.277500", "104610.685000", "104612.475000", "104611.082500", "104612.872500", "104611.282500", "104613.072500", "104611.480000", "104613.270000", "104611.680000", "104613.470000", "104610.885000", "104612.675000", "104610.090000", "104611.880000", "104610.287500", "104612.077500", "104610.487500", "104612.277500", "104610.685000", "104612.475000", "104611.082500", "104612.872500", "104611.282500", "104613.072500", "104611.480000", "104613.270000", "104611.680000", "104613.470000", "104610.885000", "104612.675000", "104610.090000", "104611.880000", "104610.287500", "104612.077500", "104610.487500", "104612.277500", "104610.685000", "104612.475000", "104611.082500", "104612.872500", "104611.282500", "104613.072500", "104611.480000", "104613.270000", "104611.680000", "104613.470000", "104610.885000", "104612.675000", "104610.090000", "104611.880000", "104610.287500", "104612.077500", "104610.487500", "104612.277500", "104610.685000", "104612.475000", "104611.082500", "104612.872500", "104611.282500", "104613.072500", "104611.480000", "104613.270000", "104611.680000", "104613.470000", "104610.885000", "104616.275000", "104613.690000", "104615.480000", "104613.887500", "104615.677500", "104614.087500", "104615.877500", "104614.285000", "104616.075000", "104614.682500", "104616.472500", "104614.882500", "104616.672500", "104615.080000", "104616.870000", "104615.280000", "104617.070000", "104614.485000", "104616.275000", "104613.690000", "104615.480000", "104613.887500", "104615.677500", "104614.087500", "104615.877500", "104614.285000", "104616.075000", "104614.682500", "104616.472500", "104614.882500", "104616.672500", "104615.080000", "104616.870000", "104615.280000", "104617.070000", "104614.485000", "104616.275000", "104613.690000", "104615.480000", "104613.887500", "104615.677500", "104614.087500", "104615.877500", "104614.285000", "104616.075000", "104614.682500", "104616.472500", "104614.882500", "104616.672500", "104615.080000", "104616.870000", "104615.280000", "104617.070000", "104614.485000", "104616.275000", "104613.690000", "104615.480000", "104613.887500", "104615.677500", "104614.087500", "104615.877500", "104614.285000", "104616.075000", "104614.682500", "104616.472500", "104614.882500", "104616.672500", "104615.080000", "104616.870000", "104615.280000", "104617.070000", "104614.485000", "104619.875000", "104617.290000", "104619.080000", "104617.487500", "104619.277500", "104617.687500", "104619.477500", "104617.885000", "104619.675000", "104618.282500", "104620.072500", "104618.482500", "104620.272500", "104618.680000", "104620.470000", "104618.880000", "104620.670000", "104618.085000", "104619.875000", "104617.290000", "104619.080000", "104617.487500", "104619.277500", "104617.687500", "104619.477500", "104617.885000", "104619.675000", "104618.282500", "104620.072500", "104618.482500", "104620.272500", "104618.680000", "104620.470000", "104618.880000", "104620.670000", "104618.085000", "104619.875000", "104617.290000", "104619.080000", "104617.487500", "104619.277500", "104617.687500", "104619.477500", "104617.885000", "104619.675000", "104618.282500", "104620.072500", "104618.482500", "104620.272500", "104618.680000", "104620.470000", "104618.880000", "104620.670000", "104618.085000", "104619.875000", "104617.290000", "104619.080000", "104617.487500", "104619.277500", "104617.687500", "104619.477500", "104617.885000", "104619.675000", "104618.282500", "104620.072500", "104618.482500", "104620.272500", "104618.680000", "104620.470000", "104618.880000", "104620.670000", "104618.085000", "104623.475000", "104620.890000", "104622.680000", "104621.087500", "104622.877500", "104621.287500", "104623.077500", "104621.485000", "104623.275000", "104621.882500", "104623.672500", "104622.082500", "104623.872500", "104622.280000", "104624.070000", "104622.480000", "104624.270000", "104621.685000", "104623.475000", "104620.890000", "104622.680000", "104621.087500", "104622.877500", "104621.287500", "104623.077500", "104621.485000", "104623.275000", "104621.882500", "104623.672500", "104622.082500", "104623.872500", "104622.280000", "104624.070000", "104622.480000", "104624.270000", "104621.685000", "104623.475000", "104620.890000", "104622.680000", "104621.087500", "104622.877500", "104621.287500", "104623.077500", "104621.485000", "104623.275000", "104621.882500", "104623.672500", "104622.082500", "104623.872500", "104622.280000", "104624.070000", "104622.480000", "104624.270000", "104621.685000", "104623.475000", "104620.890000", "104622.680000", "104621.087500", "104622.877500", "104621.287500", "104623.077500", "104621.485000", "104623.275000", "104621.882500", "104623.672500", "104622.082500", "104623.872500", "104622.280000", "104624.070000", "104622.480000", "104624.270000", "104621.685000", "104627.075000", "104624.490000", "104626.280000", "104624.687500", "104626.477500", "104624.887500", "104626.677500", "104625.085000", "104626.875000", "104625.482500", "104627.272500", "104625.682500", "104627.472500", "104625.880000", "104627.670000", "104626.080000", "104627.870000", "104625.285000", "104627.075000", "104624.490000", "104626.280000", "104624.687500", "104626.477500", "104624.887500", "104626.677500", "104625.085000", "104626.875000", "104625.482500", "104627.272500", "104625.682500", "104627.472500", "104625.880000", "104627.670000", "104626.080000", "104627.870000", "104625.285000", "104627.075000", "104624.490000", "104626.280000", "104624.687500", "104626.477500", "104624.887500", "104626.677500", "104625.085000", "104626.875000", "104625.482500", "104627.272500", "104625.682500", "104627.472500", "104625.880000", "104627.670000", "104626.080000", "104627.870000", "104625.285000", "104627.075000", "104624.490000", "104626.280000", "104624.687500", "104626.477500", "104624.887500", "104626.677500", "104625.085000", "104626.875000", "104625.482500", "104627.272500", "104625.682500", "104627.472500", "104625.880000", "104627.670000", "104626.080000", "104627.870000", "104625.285000", "104630.675000", "104628.090000", "104629.880000", "104628.287500", "104630.077500", "104628.487500", "104630.277500", "104628.685000", "104630.475000", "104629.082500", "104630.872500", "104629.282500", "104631.072500", "104629.480000", "104631.270000", "104629.680000", "104631.470000", "104628.885000", "104630.675000", "104628.090000", "104629.880000", "104628.287500", "104630.077500", "104628.487500", "104630.277500", "104628.685000", "104630.475000", "104629.082500", "104630.872500", "104629.282500", "104631.072500", "104629.480000", "104631.270000", "104629.680000", "104631.470000", "104628.885000", "104630.675000", "104628.090000", "104629.880000", "104628.287500", "104630.077500", "104628.487500", "104630.277500", "104628.685000", "104630.475000", "104629.082500", "104630.872500", "104629.282500", "104631.072500", "104629.480000", "104631.270000", "104629.680000", "104631.470000", "104628.885000", "104630.675000", "104628.090000", "104629.880000", "104628.287500", "104630.077500", "104628.487500", "104630.277500", "104628.685000", "104630.475000", "104629.082500", "104630.872500", "104629.282500", "104631.072500", "104629.480000", "104631.270000", "104629.680000", "104631.470000", "104628.885000", "104634.275000", "104631.690000", "104633.480000", "104631.887500", "104633.677500", "104632.087500", "104633.877500", "104632.285000", "104634.075000", "104632.682500", "104634.472500", "104632.882500", "104634.672500", "104633.080000", "104634.870000", "104633.280000", "104635.070000", "104632.485000", "104634.275000", "104631.690000", "104633.480000", "104631.887500", "104633.677500", "104632.087500", "104633.877500", "104632.285000", "104634.075000", "104632.682500", "104634.472500", "104632.882500", "104634.672500", "104633.080000", "104634.870000", "104633.280000", "104635.070000", "104632.485000", "104634.275000", "104631.690000", "104633.480000", "104631.887500", "104633.677500", "104632.087500", "104633.877500", "104632.285000", "104634.075000", "104632.682500", "104634.472500", "104632.882500", "104634.672500", "104633.080000", "104634.870000", "104633.280000", "104635.070000", "104632.485000", "104634.275000", "104631.690000", "104633.480000", "104631.887500", "104633.677500", "104632.087500", "104633.877500", "104632.285000", "104634.075000", "104632.682500", "104634.472500", "104632.882500", "104634.672500", "104633.080000", "104634.870000", "104633.280000", "104635.070000", "104632.485000", "104637.875000", "104635.290000", "104637.080000", "104635.487500", "104637.277500", "104635.687500", "104637.477500", "104635.885000", "104637.675000", "104636.282500", "104638.072500", "104636.482500", "104638.272500", "104636.680000", "104638.470000", "104636.880000", "104638.670000", "104636.085000", "104637.875000", "104635.290000", "104637.080000", "104635.487500", "104637.277500", "104635.687500", "104637.477500", "104635.885000", "104637.675000", "104636.282500", "104638.072500", "104636.482500", "104638.272500", "104636.680000", "104638.470000", "104636.880000", "104638.670000", "104636.085000", "104637.875000", "104635.290000", "104637.080000", "104635.487500", "104637.277500", "104635.687500", "104637.477500", "104635.885000", "104637.675000", "104636.282500", "104638.072500", "104636.482500", "104638.272500", "104636.680000", "104638.470000", "104636.880000", "104638.670000", "104636.085000", "104637.875000", "104635.290000", "104637.080000", "104635.487500", "104637.277500", "104635.687500", "104637.477500", "104635.885000", "104637.675000", "104636.282500", "104638.072500", "104636.482500", "104638.272500", "104636.680000", "104638.470000", "104636.880000", "104638.670000", "104636.085000", "104641.475000", "104638.890000", "104640.680000", "104639.087500", "104640.877500", "104639.287500", "104641.077500", "104639.485000", "104641.275000", "104639.882500", "104641.672500", "104640.082500", "104641.872500", "104640.280000", "104642.070000", "104640.480000", "104642.270000", "104639.685000", "104641.475000", "104638.890000", "104640.680000", "104639.087500", "104640.877500", "104639.287500", "104641.077500", "104639.485000", "104641.275000", "104639.882500", "104641.672500", "104640.082500", "104641.872500", "104640.280000", "104642.070000", "104640.480000", "104642.270000", "104639.685000", "104641.475000", "104638.890000", "104640.680000", "104639.087500", "104640.877500", "104639.287500", "104641.077500", "104639.485000", "104641.275000", "104639.882500", "104641.672500", "104640.082500", "104641.872500", "104640.280000", "104642.070000", "104640.480000", "104642.270000", "104639.685000", "104641.475000", "104638.890000", "104640.680000", "104639.087500", "104640.877500", "104639.287500", "104641.077500", "104639.485000", "104641.275000", "104639.882500", "104641.672500", "104640.082500", "104641.872500", "104640.280000", "104642.070000", "104640.480000", "104642.270000", "104639.685000", "104645.075000", "104642.490000", "104644.280000", "104642.687500", "104644.477500", "104642.887500", "104644.677500", "104643.085000", "104644.875000", "104643.482500", "104645.272500", "104643.682500", "104645.472500", "104643.880000", "104645.670000", "104644.080000", "104645.870000", "104643.285000", "104645.075000", "104642.490000", "104644.280000", "104642.687500", "104644.477500", "104642.887500", "104644.677500", "104643.085000", "104644.875000", "104643.482500", "104645.272500", "104643.682500", "104645.472500", "104643.880000", "104645.670000", "104644.080000", "104645.870000", "104643.285000", "104645.075000", "104642.490000", "104644.280000", "104642.687500", "104644.477500", "104642.887500", "104644.677500", "104643.085000", "104644.875000", "104643.482500", "104645.272500", "104643.682500", "104645.472500", "104643.880000", "104645.670000", "104644.080000", "104645.870000", "104643.285000", "104645.075000", "104642.490000", "104644.280000", "104642.687500", "104644.477500", "104642.887500", "104644.677500", "104643.085000", "104644.875000", "104643.482500", "104645.272500", "104643.682500", "104645.472500", "104643.880000", "104645.670000", "104644.080000", "104645.870000", "104643.285000", "104648.675000", "104646.090000", "104647.880000", "104646.287500", "104648.077500", "104646.487500", "104648.277500", "104646.685000", "104648.475000", "104647.082500", "104648.872500", "104647.282500", "104649.072500", "104647.480000", "104649.270000", "104647.680000", "104649.470000", "104646.885000", "104648.675000", "104646.090000", "104647.880000", "104646.287500", "104648.077500", "104646.487500", "104648.277500", "104646.685000", "104648.475000", "104647.082500", "104648.872500", "104647.282500", "104649.072500", "104647.480000", "104649.270000", "104647.680000", "104649.470000", "104646.885000", "104648.675000", "104646.090000", "104647.880000", "104646.287500", "104648.077500", "104646.487500", "104648.277500", "104646.685000", "104648.475000", "104647.082500", "104648.872500", "104647.282500", "104649.072500", "104647.480000", "104649.270000", "104647.680000", "104649.470000", "104646.885000", "104648.675000", "104646.090000", "104647.880000", "104646.287500", "104648.077500", "104646.487500", "104648.277500", "104646.685000", "104648.475000", "104647.082500", "104648.872500", "104647.282500", "104649.072500", "104647.480000", "104649.270000", "104647.680000", "104649.470000", "104646.885000", "104652.275000", "104649.690000", "104651.480000", "104649.887500", "104651.677500", "104650.087500", "104651.877500", "104650.285000", "104652.075000", "104650.682500", "104652.472500", "104650.882500", "104652.672500", "104651.080000", "104652.870000", "104651.280000", "104653.070000", "104650.485000", "104652.275000", "104649.690000", "104651.480000", "104649.887500", "104651.677500", "104650.087500", "104651.877500", "104650.285000", "104652.075000", "104650.682500", "104652.472500", "104650.882500", "104652.672500", "104651.080000", "104652.870000", "104651.280000", "104653.070000", "104650.485000", "104652.275000", "104649.690000", "104651.480000", "104649.887500", "104651.677500", "104650.087500", "104651.877500", "104650.285000", "104652.075000", "104650.682500", "104652.472500", "104650.882500", "104652.672500", "104651.080000", "104652.870000", "104651.280000", "104653.070000", "104650.485000", "104652.275000", "104649.690000", "104651.480000", "104649.887500", "104651.677500", "104650.087500", "104651.877500", "104650.285000", "104652.075000", "104650.682500", "104652.472500", "104650.882500", "104652.672500", "104651.080000", "104652.870000", "104651.280000", "104653.070000", "104650.485000", "104655.875000", "104653.290000", "104655.080000", "104653.487500", "104655.277500", "104653.687500", "104655.477500", "104653.885000", "104655.675000", "104654.282500", "104656.072500", "104654.482500", "104656.272500", "104654.680000", "104656.470000", "104654.880000", "104656.670000", "104654.085000", "104655.875000", "104653.290000", "104655.080000", "104653.487500", "104655.277500", "104653.687500", "104655.477500", "104653.885000", "104655.675000", "104654.282500", "104656.072500", "104654.482500", "104656.272500", "104654.680000", "104656.470000", "104654.880000", "104656.670000", "104654.085000", "104655.875000", "104653.290000", "104655.080000", "104653.487500", "104655.277500", "104653.687500", "104655.477500", "104653.885000", "104655.675000", "104654.282500", "104656.072500", "104654.482500", "104656.272500", "104654.680000", "104656.470000", "104654.880000", "104656.670000", "104654.085000", "104655.875000", "104653.290000", "104655.080000", "104653.487500", "104655.277500", "104653.687500", "104655.477500", "104653.885000", "104655.675000", "104654.282500", "104656.072500", "104654.4