{
  "AcquisitionMatrixPE": 80,
  "AcquisitionNumber": 1,
  "AcquisitionTime": "09:20:58.487500",
  "BandwidthPerPixelPhaseEncode": 25,
  "BaseResolution": 80,
  "BodyPartExamined": "BRAIN",
  "CoilCombinationMethod": "Sum of Squares",
  "ConsistencyInfo": "N4_VE11E_LATEST_20181129",
  "ConversionSoftware": "dcm2niix",
  "ConversionSoftwareVersion": "v1.0.20220720",
  "DerivedVendorReportedEchoSpacing": 0.0005,
  "DeviceSerialNumber": "66112",
  "DwellTime": 2.7e-06,
  "EchoTime": 0.03,
  "EchoTrainLength": 80,
  "EffectiveEchoSpacing": 0.0005,
  "FlipAngle": 10,
  "HeudiconvVersion": "0.13.1",
  "ImageOrientationPatientDICOM": [0.999959, 0.00901172, 2.99653e-05, -0.00855197, 0.947885, 0.318498],
  "ImageOrientationText": "Tra>Cor(18.6)>Sag(-0.2)",
  "ImageType": [
    "ORIGINAL",
    "PRIMARY",
    "M",
    "ND",
    "NORM",
    "MOSAIC"
],
  "ImagingFrequency": 123.259,
  "InPlanePhaseEncodingDirectionDICOM": "COL",
  "InstitutionAddress": "Maynard 3,Hanover,NH,US,03755",
  "InstitutionName": "Dartmouth College - PBS",
  "InstitutionalDepartmentName": "Department",
  "MRAcquisitionType": "2D",
  "MagneticFieldStrength": 3,
  "Manufacturer": "Siemens",
  "ManufacturersModelName": "Prisma",
  "MatrixCoilMode": "SENSE",
  "Modality": "MR",
  "NonlinearGradientCorrection": false,
  "PartialFourier": 1,
  "PatientPosition": "HFS",
  "PercentPhaseFOV": 100,
  "PercentSampling": 100,
  "PhaseEncodingDirection": "j-",
  "PhaseEncodingSteps": 80,
  "PhaseResolution": 1,
  "PixelBandwidth": 2315,
  "ProcedureStepDescription": "dbic^QA",
  "ProtocolName": "func-bold_fa-10",
  "PulseSequenceDetails": "%SiemensSeq%\\ep2d_bold",
  "ReceiveCoilActiveElements": "HC1-7;NC1,2",
  "ReceiveCoilName": "HeadNeck_64",
  "ReconMatrixPE": 80,
  "RepetitionTime": 2,
  "SAR": 0.00869347,
  "ScanOptions": "FS",
  "ScanningSequence": "EP",
  "SequenceName": "*epfid2d1_80",
  "SequenceVariant": "SK",
  "SeriesDescription": "func-bold_fa-10",
  "SeriesNumber": 9,
  "ShimSetting": [4217, -7739, -7484, -121, -139, -239, -47, 100],
  "SliceThickness": 3.5,
  "SliceTiming": [0.99, 0, 1.0575, 0.0675, 1.1225, 0.1325, 1.1875, 0.1975, 1.255, 0.265, 1.32, 0.33, 1.3875, 0.3975, 1.4525, 0.4625, 1.5175, 0.5275, 1.585, 0.595, 1.65, 0.66, 1.715, 0.7275, 1.7825, 0.7925, 1.8475, 0.8575, 1.915, 0.925],
  "SoftwareVersions": "syngo MR E11",
  "SpacingBetweenSlices": 3.99,
  "StationName": "AWP66112",
  "TotalReadoutTime": 0.0395,
  "TxRefAmp": 213.544,
  "dcmmeta_affine": [
    [-2.999878168106079, -0.025655901059508324, -0.011338818818330765, 122.49063110351562],
    [-0.027035163715481758, 2.8436551094055176, 1.270755410194397, -126.78166198730469],
    [8.989595517050475e-05, -0.9554932117462158, 3.782215118408203, -19.532711029052734],
    [0.0, 0.0, 0.0, 1.0]
],
  "dcmmeta_reorient_transform": [
    [0.0, -1.0, 0.0, 79.0],
    [1.0, 0.0, 0.0, 0.0],
    [0.0, 0.0, 1.0, 0.0],
    [0.0, 0.0, 0.0, 1.0]
],
  "dcmmeta_shape": [80, 80, 30, 200],
  "dcmmeta_slice_dim": 2,
  "dcmmeta_version": 0.6,
  "global": {
    "const": {
      "AccessionNumber": "qa64",
      "AcquisitionMatrix": [80, 0, 0, 80],
      "AngioFlag": "N",
      "BitsAllocated": 16,
      "BitsStored": 12,
      "BodyPartExamined": "BRAIN",
      "Columns": 480,
      "EchoNumbers": 1,
      "EchoTime": 30.0,
      "EchoTrainLength": 80,
      "FlipAngle": 10.0,
      "HighBit": 11,
      "ImageOrientationPatient": [0.99995939316531, 0.00901172139781, 2.996531778e-05, -0.0085519670628, 0.94788504119668, 0.31849774337495],
      "ImagePositionPatient": [-715.30826967015, -672.00515309208, -286.13330047849],
      "ImageType": [
        "ORIGINAL",
        "PRIMARY",
        "M",
        "ND",
        "NORM",
        "MOSAIC"
],
      "ImagedNucleus": "1H",
      "ImagingFrequency": 123.259253,
      "InPlanePhaseEncodingDirection": "COL",
      "MRAcquisitionType": "2D",
      "MagneticFieldStrength": 3.0,
      "Manufacturer": "SIEMENS",
      "ManufacturerModelName": "Prisma",
      "Modality": "MR",
      "NumberOfAverages": 1.0,
      "NumberOfPhaseEncodingSteps": 80,
      "PercentPhaseFieldOfView": 100.0,
      "PercentSampling": 100.0,
      "PerformedProcedureStepStartTime": "085943.953000",
      "PhotometricInterpretation": "MONOCHROME2",
      "PixelBandwidth": 2315.0,
      "PixelRepresentation": 0,
      "PixelSpacing": [3.0, 3.0],
      "ProtocolName": "func-bold_fa-10",
      "RepetitionTime": 2000.0,
      "Rows": 480,
      "SAR": 0.00869346943972,
      "SamplesPerPixel": 1,
      "ScanOptions": "FS",
      "ScanningSequence": "EP",
      "SequenceName": "*epfid2d1_80",
      "SequenceVariant": "SK",
      "SeriesDescription": "func-bold_fa-10",
      "SeriesNumber": 9,
      "SeriesTime": "092141.506000",
      "SliceLocation": -59.241677392055,
      "SliceThickness": 3.5,
      "SmallestImagePixelValue": 0,
      "SoftwareVersions": "syngo MR E11",
      "SpacingBetweenSlices": 3.9899999980729,
      "SpecificCharacterSet": "ISO_IR 100",
      "StudyID": "6",
      "StudyTime": "085943.902000",
      "TransmitCoilName": "Body",
      "VariableFlipAngleFlag": "N",
      "WindowCenterWidthExplanation": "Algo1"
    },
    "slices": {}
  },
  "time": {
    "samples": {
      "AcquisitionNumber": [1, 2, 3, 4, 5, 6, 7, 8, 9, 10, 11, 12, 13, 14, 15, 16, 17, 18, 19, 20, 21, 22, 23, 24, 25, 26, 27, 28, 29, 30, 31, 32, 33, 34, 35, 36, 37, 38, 39, 40, 41, 42, 43, 44, 45, 46, 47, 48, 49, 50, 51, 52, 53, 54, 55, 56, 57, 58, 59, 60, 61, 62, 63, 64, 65, 66, 67, 68, 69, 70, 71, 72, 73, 74, 75, 76, 77, 78, 79, 80, 81, 82, 83, 84, 85, 86, 87, 88, 89, 90, 91, 92, 93, 94, 95, 96, 97, 98, 99, 100, 101, 102, 103, 104, 105, 106, 107, 108, 109, 110, 111, 112, 113, 114, 115, 116, 117, 118, 119, 120, 121, 122, 123, 124, 125, 126, 127, 128, 129, 130, 131, 132, 133, 134, 135, 136, 137, 138, 139, 140, 141, 142, 143, 144, 145, 146, 147, 148, 149, 150, 151, 152, 153, 154, 155, 156, 157, 158, 159, 160, 161, 162, 163, 164, 165, 166, 167, 168, 169, 170, 171, 172, 173, 174, 175, 176, 177, 178, 179, 180, 181, 182, 183, 184, 185, 186, 187, 188, 189, 190, 191, 192, 193, 194, 195, 196, 197, 198, 199, 200],
      "AcquisitionTime": ["092058.487500", "092100.487500", "092102.487500", "092104.487500", "092106.487500", "092108.487500", "092110.487500", "092112.487500", "092114.487500", "092116.487500", "092118.487500", "092120.487500", "092122.487500", "092124.487500", "092126.487500", "092128.487500", "092130.487500", "092132.487500", "092134.487500", "092136.487500", "092138.487500", "092140.487500", "092142.487500", "092144.487500", "092146.487500", "092148.487500", "092150.487500", "092152.487500", "092154.487500", "092156.487500", "092158.487500", "092200.487500", "092202.487500", "092204.487500", "092206.487500", "092208.487500", "092210.487500", "092212.487500", "092214.487500", "092216.487500", "092218.487500", "092220.487500", "092222.487500", "092224.487500", "092226.487500", "092228.487500", "092230.487500", "092232.487500", "092234.487500", "092236.487500", "092238.487500", "092240.487500", "092242.487500", "092244.487500", "092246.487500", "092248.487500", "092250.487500", "092252.487500", "092254.487500", "092256.487500", "092258.487500", "092300.487500", "092302.487500", "092304.487500", "092306.487500", "092308.487500", "092310.487500", "092312.487500", "092314.487500", "092316.487500", "092318.487500", "092320.487500", "092322.487500", "092324.487500", "092326.487500", "092328.487500", "092330.487500", "092332.487500", "092334.487500", "092336.487500", "092338.487500", "092340.487500", "092342.487500", "092344.487500", "092346.487500", "092348.487500", "092350.487500", "092352.487500", "092354.487500", "092356.487500", "092358.487500", "092400.487500", "092402.487500", "092404.487500", "092406.487500", "092408.487500", "092410.487500", "092412.487500", "092414.487500", "092416.487500", "092418.487500", "092420.487500", "092422.487500", "092424.487500", "092426.487500", "092428.487500", "092430.487500", "092432.487500", "092434.487500", "092436.487500", "092438.487500", "092440.487500", "092442.487500", "092444.487500", "092446.487500", "092448.487500", "092450.487500", "092452.487500", "092454.487500", "092456.487500", "092458.487500", "092500.487500", "092502.487500", "092504.487500", "092506.487500", "092508.487500", "092510.487500", "092512.487500", "092514.487500", "092516.487500", "092518.487500", "092520.487500", "092522.487500", "092524.487500", "092526.487500", "092528.487500", "092530.487500", "092532.487500", "092534.487500", "092536.487500", "092538.487500", "092540.487500", "092542.487500", "092544.487500", "092546.487500", "092548.487500", "092550.487500", "092552.487500", "092554.487500", "092556.487500", "092558.487500", "092600.487500", "092602.487500", "092604.487500", "092606.487500", "092608.487500", "092610.487500", "092612.487500", "092614.487500", "092616.487500", "092618.487500", "092620.487500", "092622.487500", "092624.487500", "092626.487500", "092628.487500", "092630.487500", "092632.487500", "092634.487500", "092636.487500", "092638.487500", "092640.487500", "092642.487500", "092644.487500", "092646.487500", "092648.487500", "092650.487500", "092652.487500", "092654.487500", "092656.487500", "092658.487500", "092700.487500", "092702.487500", "092704.487500", "092706.487500", "092708.487500", "092710.487500", "092712.487500", "092714.487500", "092716.487500", "092718.487500", "092720.487500", "092722.487500", "092724.487500", "092726.487500", "092728.487500", "092730.487500", "092732.487500", "092734.487500", "092736.487500"],
      "ContentTime": ["092141.509000", "092141.512000", "092141.514000", "092141.517000", "092141.519000", "092141.521000", "092141.524000", "092141.526000", "092141.528000", "092141.530000", "092141.533000", "092141.535000", "092141.537000", "092141.540000", "092141.542000", "092141.544000", "092141.546000", "092141.549000", "092141.551000", "092141.553000", "092141.555000", "092221.503000", "092221.506000", "092221.508000", "092221.510000", "092221.513000", "092221.515000", "092221.517000", "092221.519000", "092221.522000", "092221.524000", "092221.526000", "092221.529000", "092221.531000", "092221.533000", "092221.535000", "092221.538000", "092221.540000", "092221.542000", "092221.544000", "092221.547000", "092301.504000", "092301.507000", "092301.509000", "092301.511000", "092301.514000", "092301.516000", "092301.518000", "092301.521000", "092301.523000", "092301.525000", "092301.527000", "092301.530000", "092301.532000", "092301.534000", "092301.537000", "092301.539000", "092301.541000", "092301.543000", "092301.546000", "092301.560000", "092341.504000", "092341.507000", "092341.509000", "092341.511000", "092341.514000", "092341.516000", "092341.518000", "092341.521000", "092341.523000", "092341.525000", "092341.527000", "092341.530000", "092341.532000", "092341.534000", "092341.537000", "092341.539000", "092341.541000", "092341.543000", "092341.546000", "092341.548000", "092421.504000", "092421.507000", "092421.509000", "092421.511000", "092421.513000", "092421.516000", "092421.518000", "092421.520000", "092421.522000", "092421.525000", "092421.527000", "092421.529000", "092421.531000", "092421.534000", "092421.536000", "092421.538000", "092421.541000", "092421.543000", "092421.545000", "092421.547000", "092501.503000", "092501.506000", "092501.508000", "092501.510000", "092501.513000", "092501.515000", "092501.517000", "092501.519000", "092501.522000", "092501.524000", "092501.526000", "092501.529000", "092501.531000", "092501.533000", "092501.535000", "092501.538000", "092501.540000", "092501.542000", "092501.545000", "092501.555000", "092541.504000", "092541.507000", "092541.509000", "092541.511000", "092541.514000", "092541.516000", "092541.518000", "092541.521000", "092541.523000", "092541.525000", "092541.527000", "092541.530000", "092541.532000", "092541.534000", "092541.536000", "092541.539000", "092541.541000", "092541.543000", "092541.545000", "092541.548000", "092621.504000", "092621.507000", "092621.509000", "092621.511000", "092621.514000", "092621.516000", "092621.518000", "092621.520000", "092621.523000", "092621.525000", "092621.527000", "092621.530000", "092621.532000", "092621.534000", "092621.537000", "092621.539000", "092621.541000", "092621.543000", "092621.546000", "092621.548000", "092701.503000", "092701.506000", "092701.508000", "092701.510000", "092701.513000", "092701.515000", "092701.517000", "092701.519000", "092701.522000", "092701.531000", "092701.533000", "092701.536000", "092701.538000", "092701.540000", "092701.542000", "092701.545000", "092701.547000", "092701.549000", "092701.552000", "092701.554000", "092738.427000", "092738.430000", "092738.432000", "092738.434000", "092738.437000", "092738.440000", "092738.442000", "092738.444000", "092738.447000", "092738.449000", "092738.452000", "092738.454000", "092738.456000", "092738.458000", "092738.461000", "092738.463000", "092738.465000", "092738.468000", "092738.470000"],
      "InstanceCreationTime": ["092141.509000", "092141.512000", "092141.514000", "092141.517000", "092141.519000", "092141.521000", "092141.524000", "092141.526000", "092141.528000", "092141.530000", "092141.533000", "092141.535000", "092141.537000", "092141.540000", "092141.542000", "092141.544000", "092141.546000", "092141.549000", "092141.551000", "092141.553000", "092141.555000", "092221.503000", "092221.506000", "092221.508000", "092221.510000", "092221.513000", "092221.515000", "092221.517000", "092221.519000", "092221.522000", "092221.524000", "092221.526000", "092221.529000", "092221.531000", "092221.533000", "092221.535000", "092221.538000", "092221.540000", "092221.542000", "092221.544000", "092221.547000", "092301.504000", "092301.507000", "092301.509000", "092301.511000", "092301.514000", "092301.516000", "092301.518000", "092301.521000", "092301.523000", "092301.525000", "092301.527000", "092301.530000", "092301.532000", "092301.534000", "092301.537000", "092301.539000", "092301.541000", "092301.543000", "092301.546000", "092301.560000", "092341.504000", "092341.507000", "092341.509000", "092341.511000", "092341.514000", "092341.516000", "092341.518000", "092341.521000", "092341.523000", "092341.525000", "092341.527000", "092341.530000", "092341.532000", "092341.534000", "092341.537000", "092341.539000", "092341.541000", "092341.543000", "092341.546000", "092341.548000", "092421.504000", "092421.507000", "092421.509000", "092421.511000", "092421.513000", "092421.516000", "092421.518000", "092421.520000", "092421.522000", "092421.525000", "092421.527000", "092421.529000", "092421.531000", "092421.534000", "092421.536000", "092421.538000", "092421.541000", "092421.543000", "092421.545000", "092421.547000", "092501.503000", "092501.506000", "092501.508000", "092501.510000", "092501.513000", "092501.515000", "092501.517000", "092501.519000", "092501.522000", "092501.524000", "092501.526000", "092501.529000", "092501.531000", "092501.533000", "092501.535000", "092501.538000", "092501.540000", "092501.542000", "092501.545000", "092501.555000", "092541.504000", "092541.507000", "092541.509000", "092541.511000", "092541.514000", "092541.516000", "092541.518000", "092541.521000", "092541.523000", "092541.525000", "092541.527000", "092541.530000", "092541.532000", "092541.534000", "092541.536000", "092541.539000", "092541.541000", "092541.543000", "092541.545000", "092541.548000", "092621.504000", "092621.507000", "092621.509000", "092621.511000", "092621.514000", "092621.516000", "092621.518000", "092621.520000", "092621.523000", "092621.525000", "092621.527000", "092621.530000", "092621.532000", "092621.534000", "092621.537000", "092621.539000", "092621.541000", "092621.543000", "092621.546000", "092621.548000", "092701.503000", "092701.506000", "092701.508000", "092701.510000", "092701.513000", "092701.515000", "092701.517000", "092701.519000", "092701.522000", "092701.531000", "092701.533000", "092701.536000", "092701.538000", "092701.540000", "092701.542000", "092701.545000", "092701.547000", "092701.549000", "092701.552000", "092701.554000", "092738.427000", "092738.430000", "092738.432000", "092738.434000", "092738.437000", "092738.440000", "092738.442000", "092738.444000", "092738.447000", "092738.449000", "092738.452000", "092738.454000", "092738.456000", "092738.458000", "092738.461000", "092738.463000", "092738.465000", "092738.468000", "092738.470000"],
      "InstanceNumber": [1, 2, 3, 4, 5, 6, 7, 8, 9, 10, 11, 12, 13, 14, 15, 16, 17, 18, 19, 20, 21, 22, 23, 24, 25, 26, 27, 28, 29, 30, 31, 32, 33, 34, 35, 36, 37, 38, 39, 40, 41, 42, 43, 44, 45, 46, 47, 48, 49, 50, 51, 52, 53, 54, 55, 56, 57, 58, 59, 60, 61, 62, 63, 64, 65, 66, 67, 68, 69, 70, 71, 72, 73, 74, 75, 76, 77, 78, 79, 80, 81, 82, 83, 84, 85, 86, 87, 88, 89, 90, 91, 92, 93, 94, 95, 96, 97, 98, 99, 100, 101, 102, 103, 104, 105, 106, 107, 108, 109, 110, 111, 112, 113, 114, 115, 116, 117, 118, 119, 120, 121, 122, 123, 124, 125, 126, 127, 128, 129, 130, 131, 132, 133, 134, 135, 136, 137, 138, 139, 140, 141, 142, 143, 144, 145, 146, 147, 148, 149, 150, 151, 152, 153, 154, 155, 156, 157, 158, 159, 160, 161, 162, 163, 164, 165, 166, 167, 168, 169, 170, 171, 172, 173, 174, 175, 176, 177, 178, 179, 180, 181, 182, 183, 184, 185, 186, 187, 188, 189, 190, 191, 192, 193, 194, 195, 196, 197, 198, 199, 200],
      "LargestImagePixelValue": [675, 674, 673, 670, 673, 674, 673, 672, 671, 674, 675, 673, 673, 672, 672, 673, 673, 674, 674, 671, 673, 670, 672, 672, 671, 672, 672, 672, 670, 672, 673, 677, 671, 673, 672, 670, 673, 674, 669, 674, 674, 675, 672, 670, 674, 671, 673, 671, 673, 676, 670, 674, 674, 674, 672, 672, 674, 675, 676, 672, 674, 673, 676, 671, 672, 674, 673, 672, 674, 678, 672, 674, 674, 672, 673, 673, 672, 671, 674, 678, 671, 672, 672, 672, 673, 675, 674, 673, 669, 669, 673, 675, 672, 673, 669, 673, 673, 672, 672, 669, 673, 671, 669, 675, 672, 674, 674, 672, 673, 672, 671, 672, 669, 672, 673, 674, 672, 669, 671, 678, 670, 669, 670, 668, 669, 672, 669, 669, 670, 668, 668, 668, 673, 670, 673, 671, 674, 670, 671, 676, 674, 674, 674, 671, 669, 675, 674, 672, 672, 668, 670, 670, 674, 673, 671, 675, 672, 671, 674, 670, 673, 672, 673, 674, 669, 673, 670, 672, 674, 670, 672, 669, 675, 673, 669, 670, 670, 674, 673, 677, 672, 673, 673, 669, 674, 672, 672, 672, 671, 674, 673, 674, 670, 675, 669, 670, 672, 672, 678, 672],
      "WindowCenter": [467.0, 466.0, 466.0, 466.0, 467.0, 466.0, 466.0, 467.0, 466.0, 466.0, 466.0, 467.0, 467.0, 466.0, 467.0, 466.0, 467.0, 466.0, 466.0, 467.0, 466.0, 466.0, 466.0, 466.0, 466.0, 466.0, 466.0, 466.0, 467.0, 466.0, 466.0, 466.0, 466.0, 466.0, 466.0, 466.0, 466.0, 466.0, 465.0, 466.0, 466.0, 466.0, 466.0, 466.0, 466.0, 466.0, 466.0, 466.0, 466.0, 466.0, 466.0, 466.0, 466.0, 466.0, 466.0, 466.0, 466.0, 466.0, 466.0, 466.0, 466.0, 466.0, 466.0, 466.0, 466.0, 466.0, 466.0, 466.0, 466.0, 466.0, 465.0, 466.0, 465.0, 466.0, 465.0, 466.0, 466.0, 466.0, 466.0, 466.0, 465.0, 465.0, 465.0, 466.0, 465.0, 466.0, 465.0, 466.0, 465.0, 464.0, 466.0, 465.0, 465.0, 466.0, 465.0, 466.0, 465.0, 466.0, 466.0, 465.0, 466.0, 465.0, 465.0, 465.0, 466.0, 465.0, 465.0, 465.0, 465.0, 466.0, 465.0, 466.0, 464.0, 465.0, 466.0, 465.0, 465.0, 464.0, 465.0, 466.0, 465.0, 465.0, 465.0, 465.0, 464.0, 465.0, 464.0, 464.0, 465.0, 464.0, 464.0, 464.0, 465.0, 466.0, 465.0, 465.0, 465.0, 465.0, 466.0, 465.0, 465.0, 465.0, 465.0, 465.0, 464.0, 465.0, 465.0, 465.0, 465.0, 464.0, 465.0, 465.0, 465.0, 465.0, 465.0, 465.0, 465.0, 465.0, 465.0, 465.0, 465.0, 465.0, 465.0, 465.0, 464.0, 465.0, 465.0, 465.0, 465.0, 465.0, 465.0, 464.0, 465.0, 465.0, 464.0, 465.0, 465.0, 465.0, 465.0, 465.0, 465.0, 465.0, 465.0, 464.0, 465.0, 465.0, 465.0, 465.0, 465.0, 465.0, 465.0, 465.0, 465.0, 465.0, 464.0, 465.0, 465.0, 465.0, 465.0, 465.0],
      "WindowWidth": [968.0, 968.0, 968.0, 968.0, 968.0, 968.0, 968.0, 969.0, 968.0, 968.0, 967.0, 968.0, 968.0, 968.0, 968.0, 967.0, 968.0, 967.0, 968.0, 968.0, 967.0, 968.0, 967.0, 968.0, 967.0, 967.0, 968.0, 967.0, 968.0, 967.0, 968.0, 967.0, 967.0, 968.0, 967.0, 968.0, 967.0, 967.0, 966.0, 967.0, 968.0, 967.0, 967.0, 967.0, 967.0, 967.0, 967.0, 967.0, 967.0, 967.0, 967.0, 967.0, 967.0, 967.0, 967.0, 967.0, 967.0, 967.0, 967.0, 967.0, 967.0, 967.0, 967.0, 967.0, 967.0, 967.0, 967.0, 967.0, 967.0, 967.0, 966.0, 967.0, 966.0, 966.0, 966.0, 967.0, 967.0, 967.0, 967.0, 967.0, 966.0, 966.0, 966.0, 966.0, 966.0, 967.0, 966.0, 967.0, 966.0, 965.0, 967.0, 966.0, 966.0, 967.0, 965.0, 967.0, 966.0, 967.0, 967.0, 966.0, 967.0, 966.0, 966.0, 966.0, 967.0, 966.0, 966.0, 966.0, 966.0, 967.0, 966.0, 967.0, 965.0, 966.0, 967.0, 966.0, 966.0, 965.0, 966.0, 967.0, 966.0, 965.0, 966.0, 965.0, 965.0, 966.0, 965.0, 964.0, 966.0, 964.0, 965.0, 965.0, 966.0, 967.0, 966.0, 966.0, 966.0, 966.0, 967.0, 966.0, 966.0, 966.0, 966.0, 966.0, 964.0, 966.0, 966.0, 966.0, 966.0, 964.0, 966.0, 966.0, 966.0, 966.0, 966.0, 966.0, 966.0, 966.0, 965.0, 966.0, 966.0, 966.0, 966.0, 965.0, 964.0, 965.0, 966.0, 966.0, 966.0, 966.0, 965.0, 964.0, 965.0, 966.0, 964.0, 965.0, 966.0, 965.0, 966.0, 965.0, 966.0, 966.0, 965.0, 964.0, 965.0, 966.0, 965.0, 965.0, 966.0, 965.0, 966.0, 965.0, 966.0, 966.0, 964.0, 966.0, 965.0, 966.0, 965.0, 965.0]
    },
    "slices": {}
  }
}