{
  "AcquisitionMatrixPE": 80,
  "AcquisitionNumber": 1,
  "AcquisitionTime": "09:14:12.482500",
  "BandwidthPerPixelPhaseEncode": 25,
  "BaseResolution": 80,
  "BodyPartExamined": "BRAIN",
  "CoilCombinationMethod": "Sum of Squares",
  "ConsistencyInfo": "N4_VE11E_LATEST_20181129",
  "ConversionSoftware": "dcm2niix",
  "ConversionSoftwareVersion": "v1.0.20220720",
  "DerivedVendorReportedEchoSpacing": 0.0005,
  "DeviceSerialNumber": "66112",
  "DwellTime": 2.7e-06,
  "EchoTime": 0.03,
  "EchoTrainLength": 80,
  "EffectiveEchoSpacing": 0.0005,
  "FlipAngle": 77,
  "HeudiconvVersion": "0.13.1",
  "ImageOrientationPatientDICOM": [0.999959, 0.00901172, 2.99653e-05, -0.00855197, 0.947885, 0.318498],
  "ImageOrientationText": "Tra>Cor(18.6)>Sag(-0.2)",
  "ImageType": [
    "ORIGINAL",
    "PRIMARY",
    "M",
    "ND",
    "NORM",
    "MOSAIC"
],
  "ImagingFrequency": 123.259,
  "InPlanePhaseEncodingDirectionDICOM": "COL",
  "InstitutionAddress": "Maynard 3,Hanover,NH,US,03755",
  "InstitutionName": "Dartmouth College - PBS",
  "InstitutionalDepartmentName": "Department",
  "MRAcquisitionType": "2D",
  "MagneticFieldStrength": 3,
  "Manufacturer": "Siemens",
  "ManufacturersModelName": "Prisma",
  "MatrixCoilMode": "SENSE",
  "Modality": "MR",
  "NonlinearGradientCorrection": false,
  "PartialFourier": 1,
  "PatientPosition": "HFS",
  "PercentPhaseFOV": 100,
  "PercentSampling": 100,
  "PhaseEncodingDirection": "j-",
  "PhaseEncodingSteps": 80,
  "PhaseResolution": 1,
  "PixelBandwidth": 2315,
  "ProcedureStepDescription": "dbic^QA",
  "ProtocolName": "func-bold_fa-77",
  "PulseSequenceDetails": "%SiemensSeq%\\ep2d_bold",
  "ReceiveCoilActiveElements": "HC1-7;NC1,2",
  "ReceiveCoilName": "HeadNeck_64",
  "ReconMatrixPE": 80,
  "RepetitionTime": 2,
  "SAR": 0.0324082,
  "ScanOptions": "FS",
  "ScanningSequence": "EP",
  "SequenceName": "*epfid2d1_80",
  "SequenceVariant": "SK",
  "SeriesDescription": "func-bold_fa-77",
  "SeriesNumber": 7,
  "ShimSetting": [4217, -7739, -7484, -121, -139, -239, -47, 100],
  "SliceThickness": 3.5,
  "SliceTiming": [0.99, 0, 1.055, 0.065, 1.12, 0.13, 1.1875, 0.1975, 1.2525, 0.2625, 1.32, 0.33, 1.385, 0.395, 1.45, 0.46, 1.5175, 0.5275, 1.5825, 0.5925, 1.65, 0.66, 1.715, 0.725, 1.78, 0.79, 1.8475, 0.8575, 1.9125, 0.9225],
  "SoftwareVersions": "syngo MR E11",
  "SpacingBetweenSlices": 3.99,
  "StationName": "AWP66112",
  "TotalReadoutTime": 0.0395,
  "TxRefAmp": 213.544,
  "dcmmeta_affine": [
    [-2.999878168106079, -0.025655901059508324, -0.011338818818330765, 122.49063110351562],
    [-0.027035163715481758, 2.8436551094055176, 1.270755410194397, -126.78166198730469],
    [8.989595517050475e-05, -0.9554932117462158, 3.782215118408203, -19.532711029052734],
    [0.0, 0.0, 0.0, 1.0]
],
  "dcmmeta_reorient_transform": [
    [0.0, -1.0, 0.0, 79.0],
    [1.0, 0.0, 0.0, 0.0],
    [0.0, 0.0, 1.0, 0.0],
    [0.0, 0.0, 0.0, 1.0]
],
  "dcmmeta_shape": [80, 80, 30, 200],
  "dcmmeta_slice_dim": 2,
  "dcmmeta_version": 0.6,
  "global": {
    "const": {
      "AccessionNumber": "qa64",
      "AcquisitionMatrix": [80, 0, 0, 80],
      "AngioFlag": "N",
      "BitsAllocated": 16,
      "BitsStored": 12,
      "BodyPartExamined": "BRAIN",
      "Columns": 480,
      "EchoNumbers": 1,
      "EchoTime": 30.0,
      "EchoTrainLength": 80,
      "FlipAngle": 77.0,
      "HighBit": 11,
      "ImageOrientationPatient": [0.99995939316531, 0.00901172139781, 2.996531778e-05, -0.0085519670628, 0.94788504119668, 0.31849774337495],
      "ImagePositionPatient": [-715.30826967015, -672.00515309208, -286.13330047849],
      "ImageType": [
        "ORIGINAL",
        "PRIMARY",
        "M",
        "ND",
        "NORM",
        "MOSAIC"
],
      "ImagedNucleus": "1H",
      "ImagingFrequency": 123.259251,
      "InPlanePhaseEncodingDirection": "COL",
      "MRAcquisitionType": "2D",
      "MagneticFieldStrength": 3.0,
      "Manufacturer": "SIEMENS",
      "ManufacturerModelName": "Prisma",
      "Modality": "MR",
      "NumberOfAverages": 1.0,
      "NumberOfPhaseEncodingSteps": 80,
      "PercentPhaseFieldOfView": 100.0,
      "PercentSampling": 100.0,
      "PerformedProcedureStepStartTime": "085943.953000",
      "PhotometricInterpretation": "MONOCHROME2",
      "PixelBandwidth": 2315.0,
      "PixelRepresentation": 0,
      "PixelSpacing": [3.0, 3.0],
      "ProtocolName": "func-bold_fa-77",
      "RepetitionTime": 2000.0,
      "Rows": 480,
      "SAR": 0.03240819694132,
      "SamplesPerPixel": 1,
      "ScanOptions": "FS",
      "ScanningSequence": "EP",
      "SequenceName": "*epfid2d1_80",
      "SequenceVariant": "SK",
      "SeriesDescription": "func-bold_fa-77",
      "SeriesNumber": 7,
      "SeriesTime": "091501.687000",
      "SliceLocation": -59.241677392055,
      "SliceThickness": 3.5,
      "SmallestImagePixelValue": 0,
      "SoftwareVersions": "syngo MR E11",
      "SpacingBetweenSlices": 3.9899999980729,
      "SpecificCharacterSet": "ISO_IR 100",
      "StudyID": "6",
      "StudyTime": "085943.902000",
      "TransmitCoilName": "Body",
      "VariableFlipAngleFlag": "N",
      "WindowCenterWidthExplanation": "Algo1"
    },
    "slices": {}
  },
  "time": {
    "samples": {
      "AcquisitionNumber": [1, 2, 3, 4, 5, 6, 7, 8, 9, 10, 11, 12, 13, 14, 15, 16, 17, 18, 19, 20, 21, 22, 23, 24, 25, 26, 27, 28, 29, 30, 31, 32, 33, 34, 35, 36, 37, 38, 39, 40, 41, 42, 43, 44, 45, 46, 47, 48, 49, 50, 51, 52, 53, 54, 55, 56, 57, 58, 59, 60, 61, 62, 63, 64, 65, 66, 67, 68, 69, 70, 71, 72, 73, 74, 75, 76, 77, 78, 79, 80, 81, 82, 83, 84, 85, 86, 87, 88, 89, 90, 91, 92, 93, 94, 95, 96, 97, 98, 99, 100, 101, 102, 103, 104, 105, 106, 107, 108, 109, 110, 111, 112, 113, 114, 115, 116, 117, 118, 119, 120, 121, 122, 123, 124, 125, 126, 127, 128, 129, 130, 131, 132, 133, 134, 135, 136, 137, 138, 139, 140, 141, 142, 143, 144, 145, 146, 147, 148, 149, 150, 151, 152, 153, 154, 155, 156, 157, 158, 159, 160, 161, 162, 163, 164, 165, 166, 167, 168, 169, 170, 171, 172, 173, 174, 175, 176, 177, 178, 179, 180, 181, 182, 183, 184, 185, 186, 187, 188, 189, 190, 191, 192, 193, 194, 195, 196, 197, 198, 199, 200],
      "AcquisitionTime": ["091412.482500", "091414.482500", "091416.482500", "091418.482500", "091420.482500", "091422.482500", "091424.482500", "091426.482500", "091428.482500", "091430.482500", "091432.482500", "091434.482500", "091436.482500", "091438.482500", "091440.482500", "091442.482500", "091444.482500", "091446.482500", "091448.482500", "091450.482500", "091452.482500", "091454.482500", "091456.482500", "091458.482500", "091500.482500", "091502.482500", "091504.482500", "091506.482500", "091508.482500", "091510.482500", "091512.482500", "091514.482500", "091516.482500", "091518.482500", "091520.482500", "091522.482500", "091524.482500", "091526.482500", "091528.482500", "091530.482500", "091532.482500", "091534.482500", "091536.482500", "091538.482500", "091540.482500", "091542.482500", "091544.482500", "091546.482500", "091548.482500", "091550.482500", "091552.482500", "091554.482500", "091556.482500", "091558.482500", "091600.482500", "091602.482500", "091604.482500", "091606.482500", "091608.482500", "091610.482500", "091612.482500", "091614.482500", "091616.482500", "091618.482500", "091620.482500", "091622.482500", "091624.482500", "091626.482500", "091628.482500", "091630.482500", "091632.482500", "091634.482500", "091636.482500", "091638.482500", "091640.482500", "091642.482500", "091644.482500", "091646.482500", "091648.482500", "091650.482500", "091652.482500", "091654.482500", "091656.482500", "091658.482500", "091700.482500", "091702.482500", "091704.482500", "091706.482500", "091708.482500", "091710.482500", "091712.482500", "091714.482500", "091716.482500", "091718.482500", "091720.482500", "091722.482500", "091724.482500", "091726.482500", "091728.482500", "091730.482500", "091732.482500", "091734.482500", "091736.482500", "091738.482500", "091740.482500", "091742.482500", "091744.482500", "091746.482500", "091748.482500", "091750.482500", "091752.482500", "091754.482500", "091756.482500", "091758.482500", "091800.482500", "091802.482500", "091804.482500", "091806.482500", "091808.482500", "091810.482500", "091812.482500", "091814.482500", "091816.482500", "091818.482500", "091820.482500", "091822.482500", "091824.482500", "091826.482500", "091828.482500", "091830.482500", "091832.482500", "091834.482500", "091836.482500", "091838.482500", "091840.482500", "091842.482500", "091844.482500", "091846.482500", "091848.482500", "091850.482500", "091852.482500", "091854.482500", "091856.482500", "091858.482500", "091900.482500", "091902.482500", "091904.482500", "091906.482500", "091908.482500", "091910.482500", "091912.482500", "091914.482500", "091916.482500", "091918.482500", "091920.482500", "091922.482500", "091924.482500", "091926.482500", "091928.482500", "091930.482500", "091932.482500", "091934.482500", "091936.482500", "091938.482500", "091940.482500", "091942.482500", "091944.482500", "091946.482500", "091948.482500", "091950.482500", "091952.482500", "091954.482500", "091956.482500", "091958.482500", "092000.482500", "092002.482500", "092004.482500", "092006.482500", "092008.482500", "092010.482500", "092012.482500", "092014.482500", "092016.482500", "092018.482500", "092020.482500", "092022.482500", "092024.482500", "092026.482500", "092028.482500", "092030.482500", "092032.482500", "092034.482500", "092036.482500", "092038.482500", "092040.482500", "092042.482500", "092044.482500", "092046.482500", "092048.482500", "092050.482500"],
      "ContentTime": ["091501.690000", "091501.693000", "091501.695000", "091501.698000", "091501.700000", "091501.702000", "091501.705000", "091501.707000", "091501.709000", "091501.711000", "091501.714000", "091501.717000", "091501.720000", "091501.722000", "091501.724000", "091501.727000", "091501.729000", "091501.731000", "091501.733000", "091501.736000", "091501.738000", "091501.740000", "091501.743000", "091501.745000", "091541.684000", "091541.687000", "091541.689000", "091541.691000", "091541.694000", "091541.696000", "091541.698000", "091541.701000", "091541.703000", "091541.705000", "091541.707000", "091541.710000", "091541.712000", "091541.715000", "091541.718000", "091541.720000", "091541.723000", "091541.725000", "091541.727000", "091541.729000", "091621.685000", "091621.688000", "091621.690000", "091621.692000", "091621.695000", "091621.697000", "091621.699000", "091621.702000", "091621.704000", "091621.706000", "091621.708000", "091621.711000", "091621.713000", "091621.717000", "091621.719000", "091621.722000", "091621.724000", "091621.726000", "091621.757000", "091621.759000", "091701.685000", "091701.688000", "091701.690000", "091701.692000", "091701.694000", "091701.697000", "091701.699000", "091701.701000", "091701.704000", "091701.706000", "091701.708000", "091701.710000", "091701.713000", "091701.716000", "091701.719000", "091701.721000", "091701.723000", "091701.725000", "091701.728000", "091701.730000", "091741.685000", "091741.688000", "091741.690000", "091741.692000", "091741.695000", "091741.697000", "091741.699000", "091741.701000", "091741.704000", "091741.706000", "091741.708000", "091741.710000", "091741.713000", "091741.716000", "091741.719000", "091741.721000", "091741.723000", "091741.725000", "091741.728000", "091741.730000", "091821.684000", "091821.687000", "091821.689000", "091821.691000", "091821.694000", "091821.696000", "091821.698000", "091821.701000", "091821.703000", "091821.705000", "091821.708000", "091821.710000", "091821.712000", "091821.716000", "091821.718000", "091821.720000", "091821.723000", "091821.725000", "091821.727000", "091821.730000", "091901.685000", "091901.688000", "091901.690000", "091901.692000", "091901.695000", "091901.697000", "091901.699000", "091901.702000", "091901.704000", "091901.706000", "091901.709000", "091901.711000", "091901.713000", "091901.717000", "091901.719000", "091901.721000", "091901.724000", "091901.726000", "091901.728000", "091901.731000", "091941.685000", "091941.688000", "091941.690000", "091941.692000", "091941.694000", "091941.697000", "091941.699000", "091941.701000", "091941.704000", "091941.706000", "091941.708000", "091941.711000", "091941.713000", "091941.716000", "091941.718000", "091941.721000", "091941.723000", "091941.725000", "091941.727000", "091941.730000", "092021.684000", "092021.687000", "092021.689000", "092021.691000", "092021.694000", "092021.696000", "092021.698000", "092021.701000", "092021.703000", "092021.705000", "092021.708000", "092021.710000", "092021.712000", "092021.716000", "092021.718000", "092021.720000", "092021.723000", "092021.725000", "092021.727000", "092021.730000", "092051.756000", "092051.759000", "092051.761000", "092051.764000", "092051.766000", "092051.769000", "092051.771000", "092051.773000", "092051.775000", "092051.778000", "092051.780000", "092051.782000", "092051.785000", "092051.790000", "092051.793000", "092051.797000"],
      "InstanceCreationTime": ["091501.690000", "091501.693000", "091501.695000", "091501.698000", "091501.700000", "091501.702000", "091501.705000", "091501.707000", "091501.709000", "091501.711000", "091501.714000", "091501.717000", "091501.720000", "091501.722000", "091501.724000", "091501.727000", "091501.729000", "091501.731000", "091501.733000", "091501.736000", "091501.738000", "091501.740000", "091501.743000", "091501.745000", "091541.684000", "091541.687000", "091541.689000", "091541.691000", "091541.694000", "091541.696000", "091541.698000", "091541.701000", "091541.703000", "091541.705000", "091541.707000", "091541.710000", "091541.712000", "091541.715000", "091541.718000", "091541.720000", "091541.723000", "091541.725000", "091541.727000", "091541.729000", "091621.685000", "091621.688000", "091621.690000", "091621.692000", "091621.695000", "091621.697000", "091621.699000", "091621.702000", "091621.704000", "091621.706000", "091621.708000", "091621.711000", "091621.713000", "091621.717000", "091621.719000", "091621.722000", "091621.724000", "091621.726000", "091621.757000", "091621.759000", "091701.685000", "091701.688000", "091701.690000", "091701.692000", "091701.694000", "091701.697000", "091701.699000", "091701.701000", "091701.704000", "091701.706000", "091701.708000", "091701.710000", "091701.713000", "091701.716000", "091701.719000", "091701.721000", "091701.723000", "091701.725000", "091701.728000", "091701.730000", "091741.685000", "091741.688000", "091741.690000", "091741.692000", "091741.695000", "091741.697000", "091741.699000", "091741.701000", "091741.704000", "091741.706000", "091741.708000", "091741.710000", "091741.713000", "091741.716000", "091741.719000", "091741.721000", "091741.723000", "091741.725000", "091741.728000", "091741.730000", "091821.684000", "091821.687000", "091821.689000", "091821.691000", "091821.694000", "091821.696000", "091821.698000", "091821.701000", "091821.703000", "091821.705000", "091821.708000", "091821.710000", "091821.712000", "091821.716000", "091821.718000", "091821.720000", "091821.723000", "091821.725000", "091821.727000", "091821.730000", "091901.685000", "091901.688000", "091901.690000", "091901.692000", "091901.695000", "091901.697000", "091901.699000", "091901.702000", "091901.704000", "091901.706000", "091901.709000", "091901.711000", "091901.713000", "091901.717000", "091901.719000", "091901.721000", "091901.724000", "091901.726000", "091901.728000", "091901.731000", "091941.685000", "091941.688000", "091941.690000", "091941.692000", "091941.694000", "091941.697000", "091941.699000", "091941.701000", "091941.704000", "091941.706000", "091941.708000", "091941.711000", "091941.713000", "091941.716000", "091941.718000", "091941.721000", "091941.723000", "091941.725000", "091941.727000", "091941.730000", "092021.684000", "092021.687000", "092021.689000", "092021.691000", "092021.694000", "092021.696000", "092021.698000", "092021.701000", "092021.703000", "092021.705000", "092021.708000", "092021.710000", "092021.712000", "092021.716000", "092021.718000", "092021.720000", "092021.723000", "092021.725000", "092021.727000", "092021.730000", "092051.756000", "092051.759000", "092051.761000", "092051.764000", "092051.766000", "092051.769000", "092051.771000", "092051.773000", "092051.775000", "092051.778000", "092051.780000", "092051.782000", "092051.785000", "092051.790000", "092051.793000", "092051.797000"],
      "InstanceNumber": [1, 2, 3, 4, 5, 6, 7, 8, 9, 10, 11, 12, 13, 14, 15, 16, 17, 18, 19, 20, 21, 22, 23, 24, 25, 26, 27, 28, 29, 30, 31, 32, 33, 34, 35, 36, 37, 38, 39, 40, 41, 42, 43, 44, 45, 46, 47, 48, 49, 50, 51, 52, 53, 54, 55, 56, 57, 58, 59, 60, 61, 62, 63, 64, 65, 66, 67, 68, 69, 70, 71, 72, 73, 74, 75, 76, 77, 78, 79, 80, 81, 82, 83, 84, 85, 86, 87, 88, 89, 90, 91, 92, 93, 94, 95, 96, 97, 98, 99, 100, 101, 102, 103, 104, 105, 106, 107, 108, 109, 110, 111, 112, 113, 114, 115, 116, 117, 118, 119, 120, 121, 122, 123, 124, 125, 126, 127, 128, 129, 130, 131, 132, 133, 134, 135, 136, 137, 138, 139, 140, 141, 142, 143, 144, 145, 146, 147, 148, 149, 150, 151, 152, 153, 154, 155, 156, 157, 158, 159, 160, 161, 162, 163, 164, 165, 166, 167, 168, 169, 170, 171, 172, 173, 174, 175, 176, 177, 178, 179, 180, 181, 182, 183, 184, 185, 186, 187, 188, 189, 190, 191, 192, 193, 194, 195, 196, 197, 198, 199, 200],
      "LargestImagePixelValue": [4095, 4095, 4095, 4095, 4090, 4092, 4093, 4085, 4085, 4095, 4087, 4074, 4075, 4072, 4058, 4059, 4064, 4075, 4095, 4095, 4091, 4067, 4069, 4076, 4088, 4095, 4092, 4079, 4077, 4075, 4095, 4095, 4095, 4095, 4095, 4095, 4095, 4095, 4095, 4091, 4095, 4095, 4095, 4089, 4086, 4095, 4095, 4092, 4095, 4095, 4078, 4095, 4092, 4066, 4065, 4091, 4073, 4077, 4071, 4082, 4095, 4076, 4065, 4068, 4070, 4076, 4074, 4070, 4068, 4087, 4091, 4073, 4065, 4076, 4055, 4059, 4069, 4061, 4060, 4065, 4063, 4059, 4060, 4066, 4062, 4066, 4081, 4080, 4081, 4083, 4083, 4074, 4076, 4073, 4083, 4070, 4063, 4079, 4073, 4074, 4067, 4070, 4063, 4080, 4080, 4084, 4083, 4094, 4095, 4095, 4095, 4090, 4095, 4089, 4093, 4095, 4094, 4093, 4093, 4088, 4095, 4090, 4089, 4094, 4095, 4095, 4089, 4092, 4095, 4095, 4095, 4095, 4095, 4093, 4089, 4095, 4089, 4085, 4090, 4094, 4095, 4092, 4095, 4095, 4090, 4091, 4083, 4085, 4092, 4086, 4095, 4081, 4094, 4095, 4093, 4093, 4092, 4090, 4093, 4095, 4094, 4095, 4093, 4083, 4090, 4094, 4093, 4089, 4095, 4095, 4095, 4091, 4088, 4090, 4095, 4095, 4095, 4095, 4094, 4091, 4095, 4092, 4093, 4095, 4095, 4095, 4095, 4095, 4095, 4095, 4095, 4095, 4095, 4095, 4095, 4095, 4095, 4095, 4095, 4095],
      "WindowCenter": [1437.0, 1436.0, 1437.0, 1437.0, 1437.0, 1437.0, 1437.0, 1437.0, 1436.0, 1436.0, 1436.0, 1436.0, 1436.0, 1435.0, 1435.0, 1435.0, 1436.0, 1435.0, 1436.0, 1436.0, 1435.0, 1436.0, 1435.0, 1435.0, 1435.0, 1435.0, 1434.0, 1434.0, 1433.0, 1434.0, 1434.0, 1434.0, 1434.0, 1434.0, 1434.0, 1434.0, 1434.0, 1434.0, 1434.0, 1434.0, 1433.0, 1434.0, 1434.0, 1434.0, 1434.0, 1434.0, 1434.0, 1434.0, 1434.0, 1434.0, 1434.0, 1434.0, 1434.0, 1434.0, 1434.0, 1433.0, 1433.0, 1433.0, 1433.0, 1433.0, 1433.0, 1433.0, 1432.0, 1433.0, 1433.0, 1433.0, 1433.0, 1433.0, 1433.0, 1433.0, 1433.0, 1433.0, 1433.0, 1433.0, 1433.0, 1433.0, 1434.0, 1433.0, 1432.0, 1432.0, 1433.0, 1432.0, 1433.0, 1432.0, 1432.0, 1433.0, 1433.0, 1433.0, 1432.0, 1433.0, 1433.0, 1432.0, 1432.0, 1433.0, 1432.0, 1433.0, 1432.0, 1432.0, 1432.0, 1432.0, 1432.0, 1432.0, 1433.0, 1432.0, 1433.0, 1432.0, 1431.0, 1433.0, 1431.0, 1431.0, 1432.0, 1431.0, 1431.0, 1431.0, 1431.0, 1431.0, 1431.0, 1431.0, 1431.0, 1431.0, 1431.0, 1431.0, 1431.0, 1432.0, 1431.0, 1431.0, 1430.0, 1431.0, 1431.0, 1431.0, 1431.0, 1430.0, 1430.0, 1431.0, 1431.0, 1431.0, 1431.0, 1431.0, 1430.0, 1430.0, 1430.0, 1430.0, 1431.0, 1430.0, 1430.0, 1430.0, 1430.0, 1430.0, 1430.0, 1430.0, 1430.0, 1430.0, 1430.0, 1430.0, 1430.0, 1431.0, 1430.0, 1430.0, 1429.0, 1430.0, 1429.0, 1429.0, 1429.0, 1429.0, 1430.0, 1430.0, 1429.0, 1430.0, 1430.0, 1429.0, 1428.0, 1430.0, 1429.0, 1429.0, 1429.0, 1429.0, 1430.0, 1429.0, 1429.0, 1429.0, 1429.0, 1429.0, 1429.0, 1429.0, 1429.0, 1429.0, 1429.0, 1429.0, 1428.0, 1429.0, 1428.0, 1428.0, 1428.0, 1428.0, 1428.0, 1429.0, 1429.0, 1428.0, 1428.0, 1428.0],
      "WindowWidth": [3387.0, 3388.0, 3387.0, 3387.0, 3387.0, 3387.0, 3387.0, 3387.0, 3386.0, 3386.0, 3386.0, 3386.0, 3386.0, 3386.0, 3386.0, 3386.0, 3386.0, 3386.0, 3387.0, 3387.0, 3387.0, 3386.0, 3386.0, 3386.0, 3386.0, 3386.0, 3386.0, 3386.0, 3386.0, 3386.0, 3386.0, 3386.0, 3386.0, 3386.0, 3386.0, 3386.0, 3386.0, 3386.0, 3386.0, 3386.0, 3386.0, 3385.0, 3386.0, 3385.0, 3386.0, 3386.0, 3385.0, 3386.0, 3385.0, 3385.0, 3385.0, 3385.0, 3385.0, 3385.0, 3385.0, 3385.0, 3385.0, 3385.0, 3385.0, 3385.0, 3385.0, 3385.0, 3385.0, 3385.0, 3385.0, 3385.0, 3385.0, 3385.0, 3385.0, 3385.0, 3385.0, 3385.0, 3385.0, 3385.0, 3385.0, 3385.0, 3384.0, 3385.0, 3385.0, 3385.0, 3384.0, 3385.0, 3384.0, 3385.0, 3385.0, 3384.0, 3384.0, 3384.0, 3385.0, 3384.0, 3384.0, 3384.0, 3384.0, 3384.0, 3384.0, 3384.0, 3384.0, 3384.0, 3384.0, 3384.0, 3384.0, 3384.0, 3384.0, 3384.0, 3384.0, 3384.0, 3384.0, 3384.0, 3384.0, 3384.0, 3383.0, 3384.0, 3384.0, 3384.0, 3384.0, 3384.0, 3384.0, 3384.0, 3384.0, 3384.0, 3384.0, 3384.0, 3383.0, 3383.0, 3383.0, 3383.0, 3384.0, 3383.0, 3383.0, 3383.0, 3383.0, 3384.0, 3384.0, 3383.0, 3383.0, 3383.0, 3383.0, 3383.0, 3383.0, 3383.0, 3383.0, 3383.0, 3383.0, 3383.0, 3383.0, 3383.0, 3383.0, 3383.0, 3383.0, 3383.0, 3383.0, 3383.0, 3383.0, 3383.0, 3383.0, 3382.0, 3383.0, 3383.0, 3383.0, 3382.0, 3383.0, 3383.0, 3383.0, 3383.0, 3382.0, 3382.0, 3383.0, 3382.0, 3382.0, 3382.0, 3382.0, 3382.0, 3382.0, 3382.0, 3382.0, 3382.0, 3382.0, 3382.0, 3382.0, 3382.0, 3382.0, 3382.0, 3382.0, 3382.0, 3382.0, 3382.0, 3382.0, 3382.0, 3382.0, 3381.0, 3382.0, 3382.0, 3382.0, 3382.0, 3382.0, 3382.0, 3381.0, 3382.0, 3382.0, 3382.0]
    },
    "slices": {}
  }
}