{
  "AcquisitionMatrixPE": 80,
  "AcquisitionNumber": 1,
  "AcquisitionTime": "09:09:40.502500",
  "BandwidthPerPixelPhaseEncode": 25,
  "BaseResolution": 80,
  "BodyPartExamined": "BRAIN",
  "CoilCombinationMethod": "Sum of Squares",
  "ConsistencyInfo": "N4_VE11E_LATEST_20181129",
  "ConversionSoftware": "dcm2niix",
  "ConversionSoftwareVersion": "v1.0.20220720",
  "DerivedVendorReportedEchoSpacing": 0.0005,
  "DeviceSerialNumber": "66112",
  "DwellTime": 2.7e-06,
  "EchoTime": 0.03,
  "EchoTrainLength": 80,
  "EffectiveEchoSpacing": 0.0005,
  "FlipAngle": 10,
  "HeudiconvVersion": "0.13.1",
  "ImageOrientationPatientDICOM": [0.990574, 0.136536, 0.0110405, -0.12426, 0.861737, 0.491903],
  "ImageOrientationText": "Tra>Cor(29.3)>Sag(-3.3)",
  "ImageType": [
    "ORIGINAL",
    "PRIMARY",
    "M",
    "ND",
    "NORM",
    "MOSAIC"
],
  "ImagingFrequency": 123.252,
  "InPlanePhaseEncodingDirectionDICOM": "COL",
  "InstitutionAddress": "Maynard 3,Hanover,NH,US,03755",
  "InstitutionName": "Dartmouth College - PBS",
  "InstitutionalDepartmentName": "Department",
  "MRAcquisitionType": "2D",
  "MagneticFieldStrength": 3,
  "Manufacturer": "Siemens",
  "ManufacturersModelName": "Prisma",
  "MatrixCoilMode": "SENSE",
  "Modality": "MR",
  "NonlinearGradientCorrection": false,
  "PartialFourier": 1,
  "PatientPosition": "HFS",
  "PercentPhaseFOV": 100,
  "PercentSampling": 100,
  "PhaseEncodingDirection": "j-",
  "PhaseEncodingSteps": 80,
  "PhaseResolution": 1,
  "PixelBandwidth": 2315,
  "ProcedureStepDescription": "dbic^QA",
  "ProtocolName": "func-bold_fa-10",
  "PulseSequenceDetails": "%SiemensSeq%\\ep2d_bold",
  "ReceiveCoilActiveElements": "HC1-7;NC1,2",
  "ReceiveCoilName": "HeadNeck_64",
  "ReconMatrixPE": 80,
  "RepetitionTime": 2,
  "SAR": 0.0100116,
  "ScanOptions": "FS",
  "ScanningSequence": "EP",
  "SequenceName": "*epfid2d1_80",
  "SequenceVariant": "SK",
  "SeriesDescription": "func-bold_fa-10",
  "SeriesNumber": 9,
  "ShimSetting": [4137, -7724, -7522, 162, -82, -182, -25, 68],
  "SliceThickness": 3.5,
  "SliceTiming": [0.9875, 0, 1.055, 0.065, 1.12, 0.13, 1.1875, 0.1975, 1.2525, 0.2625, 1.3175, 0.33, 1.385, 0.395, 1.45, 0.46, 1.5175, 0.5275, 1.5825, 0.5925, 1.6475, 0.6575, 1.715, 0.725, 1.78, 0.79, 1.8475, 0.8575, 1.9125, 0.9225],
  "SoftwareVersions": "syngo MR E11",
  "SpacingBetweenSlices": 3.99,
  "StationName": "AWP66112",
  "TotalReadoutTime": 0.0395,
  "TxRefAmp": 227.37,
  "dcmmeta_affine": [
    [-2.9717206954956055, -0.3727811574935913, -0.23001769185066223, 138.4229278564453],
    [-0.40960830450057983, 2.5852105617523193, 1.9496673345565796, -98.59281921386719],
    [0.03312157839536667, -1.4757102727890015, 3.4736132621765137, 37.57972717285156],
    [0.0, 0.0, 0.0, 1.0]
],
  "dcmmeta_reorient_transform": [
    [0.0, -1.0, 0.0, 79.0],
    [1.0, 0.0, 0.0, 0.0],
    [0.0, 0.0, 1.0, 0.0],
    [0.0, 0.0, 0.0, 1.0]
],
  "dcmmeta_shape": [80, 80, 30, 200],
  "dcmmeta_slice_dim": 2,
  "dcmmeta_version": 0.6,
  "global": {
    "const": {
      "AccessionNumber": "qa64",
      "AcquisitionMatrix": [80, 0, 0, 80],
      "AngioFlag": "N",
      "BitsAllocated": 16,
      "BitsStored": 12,
      "BodyPartExamined": "BRAIN",
      "Columns": 480,
      "EchoNumbers": 1,
      "EchoTime": 30.0,
      "EchoTrainLength": 80,
      "FlipAngle": 10.0,
      "HighBit": 11,
      "ImageOrientationPatient": [0.99057357163517, 0.13653609764062, 0.01104052621098, -0.124260390211, 0.86173684530941, 0.49190341009266],
      "ImagePositionPatient": [-628.76112993052, -704.60257586219, -380.76774357466],
      "ImageType": [
        "ORIGINAL",
        "PRIMARY",
        "M",
        "ND",
        "NORM",
        "MOSAIC"
],
      "ImagedNucleus": "1H",
      "ImagingFrequency": 123.252363,
      "InPlanePhaseEncodingDirection": "COL",
      "MRAcquisitionType": "2D",
      "MagneticFieldStrength": 3.0,
      "Manufacturer": "SIEMENS",
      "ManufacturerModelName": "Prisma",
      "Modality": "MR",
      "NumberOfAverages": 1.0,
      "NumberOfPhaseEncodingSteps": 80,
      "PercentPhaseFieldOfView": 100.0,
      "PercentSampling": 100.0,
      "PerformedProcedureStepStartTime": "084506.864000",
      "PhotometricInterpretation": "MONOCHROME2",
      "PixelBandwidth": 2315.0,
      "PixelRepresentation": 0,
      "PixelSpacing": [3.0, 3.0],
      "ProtocolName": "func-bold_fa-10",
      "RepetitionTime": 2000.0,
      "Rows": 480,
      "SAR": 0.0100116145472,
      "SamplesPerPixel": 1,
      "ScanOptions": "FS",
      "ScanningSequence": "EP",
      "SequenceName": "*epfid2d1_80",
      "SequenceVariant": "SK",
      "SeriesDescription": "func-bold_fa-10",
      "SeriesNumber": 9,
      "SeriesTime": "091025.887000",
      "SliceLocation": -23.439971535263,
      "SliceThickness": 3.5,
      "SmallestImagePixelValue": 0,
      "SoftwareVersions": "syngo MR E11",
      "SpacingBetweenSlices": 3.9900000050096,
      "SpecificCharacterSet": "ISO_IR 100",
      "StudyID": "3",
      "StudyTime": "084506.774000",
      "TransmitCoilName": "Body",
      "VariableFlipAngleFlag": "N",
      "WindowCenterWidthExplanation": "Algo1"
    },
    "slices": {}
  },
  "time": {
    "samples": {
      "AcquisitionNumber": [1, 2, 3, 4, 5, 6, 7, 8, 9, 10, 11, 12, 13, 14, 15, 16, 17, 18, 19, 20, 21, 22, 23, 24, 25, 26, 27, 28, 29, 30, 31, 32, 33, 34, 35, 36, 37, 38, 39, 40, 41, 42, 43, 44, 45, 46, 47, 48, 49, 50, 51, 52, 53, 54, 55, 56, 57, 58, 59, 60, 61, 62, 63, 64, 65, 66, 67, 68, 69, 70, 71, 72, 73, 74, 75, 76, 77, 78, 79, 80, 81, 82, 83, 84, 85, 86, 87, 88, 89, 90, 91, 92, 93, 94, 95, 96, 97, 98, 99, 100, 101, 102, 103, 104, 105, 106, 107, 108, 109, 110, 111, 112, 113, 114, 115, 116, 117, 118, 119, 120, 121, 122, 123, 124, 125, 126, 127, 128, 129, 130, 131, 132, 133, 134, 135, 136, 137, 138, 139, 140, 141, 142, 143, 144, 145, 146, 147, 148, 149, 150, 151, 152, 153, 154, 155, 156, 157, 158, 159, 160, 161, 162, 163, 164, 165, 166, 167, 168, 169, 170, 171, 172, 173, 174, 175, 176, 177, 178, 179, 180, 181, 182, 183, 184, 185, 186, 187, 188, 189, 190, 191, 192, 193, 194, 195, 196, 197, 198, 199, 200],
      "AcquisitionTime": ["090940.502500", "090942.502500", "090944.502500", "090946.502500", "090948.502500", "090950.502500", "090952.502500", "090954.502500", "090956.502500", "090958.502500", "091000.502500", "091002.502500", "091004.502500", "091006.502500", "091008.502500", "091010.502500", "091012.502500", "091014.502500", "091016.502500", "091018.502500", "091020.502500", "091022.502500", "091024.502500", "091026.502500", "091028.502500", "091030.502500", "091032.502500", "091034.502500", "091036.502500", "091038.502500", "091040.502500", "091042.502500", "091044.502500", "091046.502500", "091048.502500", "091050.502500", "091052.502500", "091054.502500", "091056.502500", "091058.502500", "091100.502500", "091102.502500", "091104.502500", "091106.502500", "091108.502500", "091110.502500", "091112.502500", "091114.502500", "091116.502500", "091118.502500", "091120.502500", "091122.502500", "091124.502500", "091126.502500", "091128.502500", "091130.502500", "091132.502500", "091134.502500", "091136.502500", "091138.502500", "091140.502500", "091142.502500", "091144.502500", "091146.502500", "091148.502500", "091150.502500", "091152.502500", "091154.502500", "091156.502500", "091158.502500", "091200.502500", "091202.502500", "091204.502500", "091206.502500", "091208.502500", "091210.502500", "091212.502500", "091214.502500", "091216.502500", "091218.502500", "091220.502500", "091222.502500", "091224.502500", "091226.502500", "091228.502500", "091230.502500", "091232.502500", "091234.502500", "091236.502500", "091238.502500", "091240.502500", "091242.502500", "091244.502500", "091246.502500", "091248.502500", "091250.502500", "091252.502500", "091254.502500", "091256.502500", "091258.502500", "091300.502500", "091302.502500", "091304.502500", "091306.502500", "091308.502500", "091310.502500", "091312.502500", "091314.502500", "091316.502500", "091318.502500", "091320.502500", "091322.502500", "091324.502500", "091326.502500", "091328.502500", "091330.502500", "091332.502500", "091334.502500", "091336.502500", "091338.502500", "091340.502500", "091342.502500", "091344.502500", "091346.502500", "091348.502500", "091350.502500", "091352.502500", "091354.502500", "091356.502500", "091358.502500", "091400.502500", "091402.502500", "091404.502500", "091406.502500", "091408.502500", "091410.502500", "091412.502500", "091414.502500", "091416.502500", "091418.502500", "091420.502500", "091422.502500", "091424.502500", "091426.502500", "091428.502500", "091430.502500", "091432.502500", "091434.502500", "091436.502500", "091438.502500", "091440.502500", "091442.502500", "091444.502500", "091446.502500", "091448.502500", "091450.502500", "091452.502500", "091454.502500", "091456.502500", "091458.502500", "091500.502500", "091502.502500", "091504.502500", "091506.502500", "091508.502500", "091510.502500", "091512.502500", "091514.502500", "091516.502500", "091518.502500", "091520.502500", "091522.502500", "091524.502500", "091526.502500", "091528.502500", "091530.502500", "091532.502500", "091534.502500", "091536.502500", "091538.502500", "091540.502500", "091542.502500", "091544.502500", "091546.502500", "091548.502500", "091550.502500", "091552.502500", "091554.502500", "091556.502500", "091558.502500", "091600.502500", "091602.502500", "091604.502500", "091606.502500", "091608.502500", "091610.502500", "091612.502500", "091614.502500", "091616.502500", "091618.502500"],
      "ContentTime": ["091025.891000", "091025.894000", "091025.896000", "091025.899000", "091025.901000", "091025.903000", "091025.906000", "091025.908000", "091025.910000", "091025.913000", "091025.915000", "091025.917000", "091025.920000", "091025.922000", "091025.924000", "091025.927000", "091025.929000", "091025.931000", "091025.934000", "091025.936000", "091025.938000", "091025.941000", "091025.943000", "091105.886000", "091105.889000", "091105.891000", "091105.894000", "091105.897000", "091105.899000", "091105.901000", "091105.903000", "091105.906000", "091105.909000", "091105.911000", "091105.913000", "091105.916000", "091105.918000", "091105.920000", "091105.922000", "091105.925000", "091105.927000", "091105.929000", "091105.932000", "091145.887000", "091145.889000", "091145.892000", "091145.894000", "091145.897000", "091145.899000", "091145.902000", "091145.904000", "091145.906000", "091145.909000", "091145.911000", "091145.913000", "091145.915000", "091145.918000", "091145.926000", "091145.928000", "091145.931000", "091145.933000", "091145.935000", "091145.938000", "091225.886000", "091225.923000", "091225.926000", "091225.928000", "091225.931000", "091225.933000", "091225.935000", "091225.937000", "091225.940000", "091225.942000", "091225.944000", "091225.947000", "091225.949000", "091225.951000", "091225.954000", "091225.956000", "091225.958000", "091225.961000", "091225.963000", "091225.965000", "091305.886000", "091305.939000", "091305.941000", "091305.944000", "091305.946000", "091305.948000", "091305.951000", "091305.953000", "091305.955000", "091305.958000", "091305.960000", "091305.962000", "091305.964000", "091305.967000", "091305.969000", "091305.971000", "091305.974000", "091305.976000", "091305.978000", "091305.981000", "091345.886000", "091345.935000", "091345.938000", "091345.940000", "091345.942000", "091345.944000", "091345.947000", "091345.949000", "091345.951000", "091345.954000", "091345.956000", "091345.965000", "091345.967000", "091345.969000", "091345.972000", "091345.974000", "091345.977000", "091345.979000", "091345.981000", "091345.984000", "091425.886000", "091425.931000", "091425.934000", "091425.936000", "091425.938000", "091425.941000", "091425.943000", "091425.945000", "091425.947000", "091425.950000", "091425.952000", "091425.954000", "091425.957000", "091425.959000", "091425.961000", "091425.964000", "091425.966000", "091425.968000", "091425.971000", "091425.973000", "091505.886000", "091505.889000", "091505.891000", "091505.893000", "091505.896000", "091505.898000", "091505.901000", "091505.903000", "091505.905000", "091505.908000", "091505.910000", "091505.912000", "091505.915000", "091505.917000", "091505.919000", "091505.922000", "091505.924000", "091505.926000", "091505.929000", "091505.931000", "091545.886000", "091545.889000", "091545.891000", "091545.894000", "091545.896000", "091545.899000", "091545.901000", "091545.903000", "091545.906000", "091545.908000", "091545.910000", "091545.913000", "091545.915000", "091545.917000", "091545.920000", "091545.922000", "091545.924000", "091545.926000", "091545.929000", "091545.931000", "091619.667000", "091619.669000", "091619.672000", "091619.674000", "091619.677000", "091619.679000", "091619.681000", "091619.684000", "091619.686000", "091619.688000", "091619.691000", "091619.693000", "091619.696000", "091619.699000", "091619.702000", "091619.705000", "091619.707000"],
      "InstanceCreationTime": ["091025.891000", "091025.894000", "091025.896000", "091025.899000", "091025.901000", "091025.903000", "091025.906000", "091025.908000", "091025.910000", "091025.913000", "091025.915000", "091025.917000", "091025.920000", "091025.922000", "091025.924000", "091025.927000", "091025.929000", "091025.931000", "091025.934000", "091025.936000", "091025.938000", "091025.941000", "091025.943000", "091105.886000", "091105.889000", "091105.891000", "091105.894000", "091105.897000", "091105.899000", "091105.901000", "091105.903000", "091105.906000", "091105.909000", "091105.911000", "091105.913000", "091105.916000", "091105.918000", "091105.920000", "091105.922000", "091105.925000", "091105.927000", "091105.929000", "091105.932000", "091145.887000", "091145.889000", "091145.892000", "091145.894000", "091145.897000", "091145.899000", "091145.902000", "091145.904000", "091145.906000", "091145.909000", "091145.911000", "091145.913000", "091145.915000", "091145.918000", "091145.926000", "091145.928000", "091145.931000", "091145.933000", "091145.935000", "091145.938000", "091225.886000", "091225.923000", "091225.926000", "091225.928000", "091225.931000", "091225.933000", "091225.935000", "091225.937000", "091225.940000", "091225.942000", "091225.944000", "091225.947000", "091225.949000", "091225.951000", "091225.954000", "091225.956000", "091225.958000", "091225.961000", "091225.963000", "091225.965000", "091305.886000", "091305.939000", "091305.941000", "091305.944000", "091305.946000", "091305.948000", "091305.951000", "091305.953000", "091305.955000", "091305.958000", "091305.960000", "091305.962000", "091305.964000", "091305.967000", "091305.969000", "091305.971000", "091305.974000", "091305.976000", "091305.978000", "091305.981000", "091345.886000", "091345.935000", "091345.938000", "091345.940000", "091345.942000", "091345.944000", "091345.947000", "091345.949000", "091345.951000", "091345.954000", "091345.956000", "091345.965000", "091345.967000", "091345.969000", "091345.972000", "091345.974000", "091345.977000", "091345.979000", "091345.981000", "091345.984000", "091425.886000", "091425.931000", "091425.934000", "091425.936000", "091425.938000", "091425.941000", "091425.943000", "091425.945000", "091425.947000", "091425.950000", "091425.952000", "091425.954000", "091425.957000", "091425.959000", "091425.961000", "091425.964000", "091425.966000", "091425.968000", "091425.971000", "091425.973000", "091505.886000", "091505.889000", "091505.891000", "091505.893000", "091505.896000", "091505.898000", "091505.901000", "091505.903000", "091505.905000", "091505.908000", "091505.910000", "091505.912000", "091505.915000", "091505.917000", "091505.919000", "091505.922000", "091505.924000", "091505.926000", "091505.929000", "091505.931000", "091545.886000", "091545.889000", "091545.891000", "091545.894000", "091545.896000", "091545.899000", "091545.901000", "091545.903000", "091545.906000", "091545.908000", "091545.910000", "091545.913000", "091545.915000", "091545.917000", "091545.920000", "091545.922000", "091545.924000", "091545.926000", "091545.929000", "091545.931000", "091619.667000", "091619.669000", "091619.672000", "091619.674000", "091619.677000", "091619.679000", "091619.681000", "091619.684000", "091619.686000", "091619.688000", "091619.691000", "091619.693000", "091619.696000", "091619.699000", "091619.702000", "091619.705000", "091619.707000"],
      "InstanceNumber": [1, 2, 3, 4, 5, 6, 7, 8, 9, 10, 11, 12, 13, 14, 15, 16, 17, 18, 19, 20, 21, 22, 23, 24, 25, 26, 27, 28, 29, 30, 31, 32, 33, 34, 35, 36, 37, 38, 39, 40, 41, 42, 43, 44, 45, 46, 47, 48, 49, 50, 51, 52, 53, 54, 55, 56, 57, 58, 59, 60, 61, 62, 63, 64, 65, 66, 67, 68, 69, 70, 71, 72, 73, 74, 75, 76, 77, 78, 79, 80, 81, 82, 83, 84, 85, 86, 87, 88, 89, 90, 91, 92, 93, 94, 95, 96, 97, 98, 99, 100, 101, 102, 103, 104, 105, 106, 107, 108, 109, 110, 111, 112, 113, 114, 115, 116, 117, 118, 119, 120, 121, 122, 123, 124, 125, 126, 127, 128, 129, 130, 131, 132, 133, 134, 135, 136, 137, 138, 139, 140, 141, 142, 143, 144, 145, 146, 147, 148, 149, 150, 151, 152, 153, 154, 155, 156, 157, 158, 159, 160, 161, 162, 163, 164, 165, 166, 167, 168, 169, 170, 171, 172, 173, 174, 175, 176, 177, 178, 179, 180, 181, 182, 183, 184, 185, 186, 187, 188, 189, 190, 191, 192, 193, 194, 195, 196, 197, 198, 199, 200],
      "LargestImagePixelValue": [660, 666, 663, 662, 662, 661, 663, 660, 665, 662, 663, 663, 663, 660, 661, 663, 662, 664, 663, 663, 660, 662, 664, 662, 665, 662, 664, 665, 664, 666, 663, 662, 665, 663, 663, 665, 660, 666, 661, 663, 662, 664, 662, 667, 662, 663, 667, 664, 667, 662, 662, 662, 661, 663, 665, 663, 660, 662, 663, 664, 663, 662, 663, 666, 663, 664, 666, 660, 666, 664, 666, 661, 663, 661, 662, 665, 662, 664, 661, 665, 663, 664, 666, 662, 664, 660, 665, 664, 661, 660, 666, 663, 662, 664, 659, 665, 662, 665, 661, 663, 663, 661, 663, 662, 663, 664, 662, 662, 664, 661, 663, 662, 668, 663, 661, 666, 662, 664, 661, 664, 663, 661, 665, 662, 664, 661, 663, 663, 665, 663, 665, 667, 661, 664, 662, 659, 661, 663, 662, 663, 662, 664, 664, 663, 661, 660, 664, 663, 662, 662, 662, 665, 664, 663, 662, 667, 662, 664, 661, 663, 663, 663, 661, 660, 662, 661, 665, 665, 662, 661, 665, 661, 660, 663, 663, 662, 662, 663, 662, 662, 660, 660, 663, 661, 660, 659, 663, 663, 664, 662, 662, 662, 665, 663, 662, 663, 662, 665, 661, 661],
      "WindowCenter": [465.0, 465.0, 465.0, 465.0, 465.0, 465.0, 465.0, 465.0, 465.0, 465.0, 465.0, 465.0, 465.0, 465.0, 465.0, 465.0, 465.0, 465.0, 465.0, 465.0, 465.0, 465.0, 465.0, 465.0, 465.0, 465.0, 465.0, 465.0, 465.0, 465.0, 465.0, 465.0, 465.0, 465.0, 465.0, 465.0, 465.0, 465.0, 465.0, 465.0, 465.0, 465.0, 465.0, 465.0, 465.0, 465.0, 465.0, 465.0, 465.0, 465.0, 465.0, 465.0, 465.0, 465.0, 465.0, 465.0, 465.0, 465.0, 465.0, 465.0, 465.0, 464.0, 465.0, 465.0, 465.0, 465.0, 465.0, 465.0, 464.0, 465.0, 464.0, 465.0, 464.0, 465.0, 465.0, 465.0, 465.0, 464.0, 465.0, 464.0, 465.0, 464.0, 465.0, 464.0, 465.0, 465.0, 464.0, 465.0, 464.0, 465.0, 464.0, 465.0, 464.0, 465.0, 464.0, 464.0, 464.0, 464.0, 465.0, 464.0, 465.0, 464.0, 464.0, 464.0, 464.0, 464.0, 464.0, 464.0, 464.0, 464.0, 464.0, 464.0, 464.0, 464.0, 464.0, 464.0, 464.0, 464.0, 464.0, 464.0, 464.0, 464.0, 464.0, 464.0, 464.0, 464.0, 464.0, 464.0, 464.0, 464.0, 464.0, 464.0, 464.0, 464.0, 464.0, 464.0, 464.0, 464.0, 464.0, 464.0, 464.0, 464.0, 464.0, 464.0, 464.0, 464.0, 464.0, 464.0, 464.0, 464.0, 464.0, 464.0, 464.0, 464.0, 464.0, 464.0, 464.0, 464.0, 464.0, 464.0, 464.0, 464.0, 464.0, 464.0, 464.0, 464.0, 464.0, 464.0, 464.0, 464.0, 464.0, 464.0, 464.0, 464.0, 464.0, 464.0, 464.0, 464.0, 464.0, 464.0, 464.0, 464.0, 464.0, 464.0, 464.0, 464.0, 464.0, 464.0, 464.0, 464.0, 464.0, 464.0, 464.0, 464.0, 464.0, 464.0, 464.0, 464.0, 464.0, 464.0],
      "WindowWidth": [966.0, 965.0, 965.0, 965.0, 966.0, 965.0, 965.0, 966.0, 965.0, 965.0, 965.0, 965.0, 965.0, 965.0, 965.0, 965.0, 965.0, 964.0, 965.0, 965.0, 965.0, 965.0, 965.0, 965.0, 965.0, 965.0, 965.0, 965.0, 964.0, 965.0, 964.0, 965.0, 964.0, 965.0, 964.0, 965.0, 965.0, 964.0, 965.0, 964.0, 965.0, 964.0, 965.0, 964.0, 965.0, 964.0, 964.0, 965.0, 964.0, 965.0, 964.0, 964.0, 964.0, 964.0, 964.0, 964.0, 964.0, 964.0, 965.0, 964.0, 965.0, 964.0, 964.0, 964.0, 964.0, 964.0, 964.0, 964.0, 964.0, 965.0, 964.0, 964.0, 964.0, 964.0, 964.0, 964.0, 964.0, 964.0, 964.0, 964.0, 964.0, 964.0, 964.0, 964.0, 964.0, 964.0, 964.0, 964.0, 964.0, 964.0, 963.0, 964.0, 964.0, 964.0, 963.0, 964.0, 964.0, 964.0, 964.0, 963.0, 964.0, 964.0, 964.0, 963.0, 964.0, 964.0, 964.0, 964.0, 964.0, 964.0, 963.0, 964.0, 963.0, 964.0, 964.0, 964.0, 964.0, 964.0, 964.0, 963.0, 964.0, 963.0, 964.0, 964.0, 964.0, 964.0, 964.0, 964.0, 963.0, 964.0, 964.0, 964.0, 963.0, 963.0, 964.0, 964.0, 964.0, 963.0, 964.0, 963.0, 963.0, 963.0, 964.0, 963.0, 963.0, 963.0, 964.0, 963.0, 963.0, 964.0, 963.0, 963.0, 963.0, 964.0, 963.0, 964.0, 963.0, 963.0, 964.0, 963.0, 963.0, 963.0, 963.0, 964.0, 964.0, 964.0, 963.0, 963.0, 963.0, 963.0, 963.0, 964.0, 963.0, 964.0, 963.0, 963.0, 963.0, 963.0, 963.0, 963.0, 964.0, 963.0, 963.0, 963.0, 963.0, 963.0, 963.0, 963.0, 963.0, 963.0, 963.0, 964.0, 963.0, 963.0, 963.0, 963.0, 963.0, 963.0, 963.0, 963.0]
    },
    "slices": {}
  }
}