{
  "AcquisitionMatrixPE": 80,
  "AcquisitionNumber": 1,
  "AcquisitionTime": "09:02:53.500000",
  "BandwidthPerPixelPhaseEncode": 25,
  "BaseResolution": 80,
  "BodyPartExamined": "BRAIN",
  "CoilCombinationMethod": "Sum of Squares",
  "ConsistencyInfo": "N4_VE11E_LATEST_20181129",
  "ConversionSoftware": "dcm2niix",
  "ConversionSoftwareVersion": "v1.0.20220720",
  "DerivedVendorReportedEchoSpacing": 0.0005,
  "DeviceSerialNumber": "66112",
  "DwellTime": 2.7e-06,
  "EchoTime": 0.03,
  "EchoTrainLength": 80,
  "EffectiveEchoSpacing": 0.0005,
  "FlipAngle": 77,
  "HeudiconvVersion": "0.13.1",
  "ImageOrientationPatientDICOM": [0.990574, 0.136536, 0.0110405, -0.12426, 0.861737, 0.491903],
  "ImageOrientationText": "Tra>Cor(29.3)>Sag(-3.3)",
  "ImageType": [
    "ORIGINAL",
    "PRIMARY",
    "M",
    "ND",
    "NORM",
    "MOSAIC"
],
  "ImagingFrequency": 123.252,
  "InPlanePhaseEncodingDirectionDICOM": "COL",
  "InstitutionAddress": "Maynard 3,Hanover,NH,US,03755",
  "InstitutionName": "Dartmouth College - PBS",
  "InstitutionalDepartmentName": "Department",
  "MRAcquisitionType": "2D",
  "MagneticFieldStrength": 3,
  "Manufacturer": "Siemens",
  "ManufacturersModelName": "Prisma",
  "MatrixCoilMode": "SENSE",
  "Modality": "MR",
  "NonlinearGradientCorrection": false,
  "PartialFourier": 1,
  "PatientPosition": "HFS",
  "PercentPhaseFOV": 100,
  "PercentSampling": 100,
  "PhaseEncodingDirection": "j-",
  "PhaseEncodingSteps": 80,
  "PhaseResolution": 1,
  "PixelBandwidth": 2315,
  "ProcedureStepDescription": "dbic^QA",
  "ProtocolName": "func-bold_fa-77",
  "PulseSequenceDetails": "%SiemensSeq%\\ep2d_bold",
  "ReceiveCoilActiveElements": "HC1-7;NC1,2",
  "ReceiveCoilName": "HeadNeck_64",
  "ReconMatrixPE": 80,
  "RepetitionTime": 2,
  "SAR": 0.0373221,
  "ScanOptions": "FS",
  "ScanningSequence": "EP",
  "SequenceName": "*epfid2d1_80",
  "SequenceVariant": "SK",
  "SeriesDescription": "func-bold_fa-77",
  "SeriesNumber": 7,
  "ShimSetting": [4137, -7724, -7522, 162, -82, -182, -25, 68],
  "SliceThickness": 3.5,
  "SliceTiming": [0.99, 0, 1.055, 0.0675, 1.1225, 0.1325, 1.1875, 0.1975, 1.255, 0.265, 1.32, 0.33, 1.385, 0.3975, 1.4525, 0.4625, 1.5175, 0.5275, 1.585, 0.595, 1.65, 0.66, 1.715, 0.725, 1.7825, 0.7925, 1.8475, 0.8575, 1.915, 0.925],
  "SoftwareVersions": "syngo MR E11",
  "SpacingBetweenSlices": 3.99,
  "StationName": "AWP66112",
  "TotalReadoutTime": 0.0395,
  "TxRefAmp": 227.37,
  "dcmmeta_affine": [
    [-2.9717206954956055, -0.3727811574935913, -0.23001769185066223, 138.4229278564453],
    [-0.40960830450057983, 2.5852105617523193, 1.9496673345565796, -98.59281921386719],
    [0.03312157839536667, -1.4757102727890015, 3.4736132621765137, 37.57972717285156],
    [0.0, 0.0, 0.0, 1.0]
],
  "dcmmeta_reorient_transform": [
    [0.0, -1.0, 0.0, 79.0],
    [1.0, 0.0, 0.0, 0.0],
    [0.0, 0.0, 1.0, 0.0],
    [0.0, 0.0, 0.0, 1.0]
],
  "dcmmeta_shape": [80, 80, 30, 200],
  "dcmmeta_slice_dim": 2,
  "dcmmeta_version": 0.6,
  "global": {
    "const": {
      "AccessionNumber": "qa64",
      "AcquisitionMatrix": [80, 0, 0, 80],
      "AngioFlag": "N",
      "BitsAllocated": 16,
      "BitsStored": 12,
      "BodyPartExamined": "BRAIN",
      "Columns": 480,
      "EchoNumbers": 1,
      "EchoTime": 30.0,
      "EchoTrainLength": 80,
      "FlipAngle": 77.0,
      "HighBit": 11,
      "ImageOrientationPatient": [0.99057357163517, 0.13653609764062, 0.01104052621098, -0.124260390211, 0.86173684530941, 0.49190341009266],
      "ImagePositionPatient": [-628.76112993052, -704.60257586219, -380.76774357466],
      "ImageType": [
        "ORIGINAL",
        "PRIMARY",
        "M",
        "ND",
        "NORM",
        "MOSAIC"
],
      "ImagedNucleus": "1H",
      "ImagingFrequency": 123.252362,
      "InPlanePhaseEncodingDirection": "COL",
      "MRAcquisitionType": "2D",
      "MagneticFieldStrength": 3.0,
      "Manufacturer": "SIEMENS",
      "ManufacturerModelName": "Prisma",
      "Modality": "MR",
      "NumberOfAverages": 1.0,
      "NumberOfPhaseEncodingSteps": 80,
      "PercentPhaseFieldOfView": 100.0,
      "PercentSampling": 100.0,
      "PerformedProcedureStepStartTime": "084506.864000",
      "PhotometricInterpretation": "MONOCHROME2",
      "PixelBandwidth": 2315.0,
      "PixelRepresentation": 0,
      "PixelSpacing": [3.0, 3.0],
      "ProtocolName": "func-bold_fa-77",
      "RepetitionTime": 2000.0,
      "Rows": 480,
      "SAR": 0.03732207946335,
      "SamplesPerPixel": 1,
      "ScanOptions": "FS",
      "ScanningSequence": "EP",
      "SequenceName": "*epfid2d1_80",
      "SequenceVariant": "SK",
      "SeriesDescription": "func-bold_fa-77",
      "SeriesNumber": 7,
      "SeriesTime": "090345.802000",
      "SliceLocation": -23.439971535263,
      "SliceThickness": 3.5,
      "SmallestImagePixelValue": 0,
      "SoftwareVersions": "syngo MR E11",
      "SpacingBetweenSlices": 3.9900000050096,
      "SpecificCharacterSet": "ISO_IR 100",
      "StudyID": "3",
      "StudyTime": "084506.774000",
      "TransmitCoilName": "Body",
      "VariableFlipAngleFlag": "N",
      "WindowCenterWidthExplanation": "Algo1"
    },
    "slices": {}
  },
  "time": {
    "samples": {
      "AcquisitionNumber": [1, 2, 3, 4, 5, 6, 7, 8, 9, 10, 11, 12, 13, 14, 15, 16, 17, 18, 19, 20, 21, 22, 23, 24, 25, 26, 27, 28, 29, 30, 31, 32, 33, 34, 35, 36, 37, 38, 39, 40, 41, 42, 43, 44, 45, 46, 47, 48, 49, 50, 51, 52, 53, 54, 55, 56, 57, 58, 59, 60, 61, 62, 63, 64, 65, 66, 67, 68, 69, 70, 71, 72, 73, 74, 75, 76, 77, 78, 79, 80, 81, 82, 83, 84, 85, 86, 87, 88, 89, 90, 91, 92, 93, 94, 95, 96, 97, 98, 99, 100, 101, 102, 103, 104, 105, 106, 107, 108, 109, 110, 111, 112, 113, 114, 115, 116, 117, 118, 119, 120, 121, 122, 123, 124, 125, 126, 127, 128, 129, 130, 131, 132, 133, 134, 135, 136, 137, 138, 139, 140, 141, 142, 143, 144, 145, 146, 147, 148, 149, 150, 151, 152, 153, 154, 155, 156, 157, 158, 159, 160, 161, 162, 163, 164, 165, 166, 167, 168, 169, 170, 171, 172, 173, 174, 175, 176, 177, 178, 179, 180, 181, 182, 183, 184, 185, 186, 187, 188, 189, 190, 191, 192, 193, 194, 195, 196, 197, 198, 199, 200],
      "AcquisitionTime": ["090253.500000", "090255.500000", "090257.500000", "090259.500000", "090301.500000", "090303.500000", "090305.500000", "090307.500000", "090309.500000", "090311.500000", "090313.500000", "090315.500000", "090317.500000", "090319.500000", "090321.500000", "090323.500000", "090325.500000", "090327.500000", "090329.500000", "090331.500000", "090333.500000", "090335.500000", "090337.500000", "090339.500000", "090341.500000", "090343.500000", "090345.500000", "090347.500000", "090349.500000", "090351.500000", "090353.500000", "090355.500000", "090357.500000", "090359.500000", "090401.500000", "090403.500000", "090405.500000", "090407.500000", "090409.500000", "090411.500000", "090413.500000", "090415.500000", "090417.500000", "090419.500000", "090421.500000", "090423.500000", "090425.500000", "090427.500000", "090429.500000", "090431.500000", "090433.500000", "090435.500000", "090437.500000", "090439.500000", "090441.500000", "090443.500000", "090445.500000", "090447.500000", "090449.500000", "090451.500000", "090453.500000", "090455.500000", "090457.500000", "090459.500000", "090501.500000", "090503.500000", "090505.500000", "090507.500000", "090509.500000", "090511.500000", "090513.500000", "090515.500000", "090517.500000", "090519.500000", "090521.500000", "090523.500000", "090525.500000", "090527.500000", "090529.500000", "090531.500000", "090533.500000", "090535.500000", "090537.500000", "090539.500000", "090541.500000", "090543.500000", "090545.500000", "090547.500000", "090549.500000", "090551.500000", "090553.500000", "090555.500000", "090557.500000", "090559.500000", "090601.500000", "090603.500000", "090605.500000", "090607.500000", "090609.500000", "090611.500000", "090613.500000", "090615.500000", "090617.500000", "090619.500000", "090621.500000", "090623.500000", "090625.500000", "090627.500000", "090629.500000", "090631.500000", "090633.500000", "090635.500000", "090637.500000", "090639.500000", "090641.500000", "090643.500000", "090645.500000", "090647.500000", "090649.500000", "090651.500000", "090653.500000", "090655.500000", "090657.500000", "090659.500000", "090701.500000", "090703.500000", "090705.500000", "090707.500000", "090709.500000", "090711.500000", "090713.500000", "090715.500000", "090717.500000", "090719.500000", "090721.500000", "090723.500000", "090725.500000", "090727.500000", "090729.500000", "090731.500000", "090733.500000", "090735.500000", "090737.500000", "090739.500000", "090741.500000", "090743.500000", "090745.500000", "090747.500000", "090749.500000", "090751.500000", "090753.500000", "090755.500000", "090757.500000", "090759.500000", "090801.500000", "090803.500000", "090805.500000", "090807.500000", "090809.500000", "090811.500000", "090813.500000", "090815.500000", "090817.500000", "090819.500000", "090821.500000", "090823.500000", "090825.500000", "090827.500000", "090829.500000", "090831.500000", "090833.500000", "090835.500000", "090837.500000", "090839.500000", "090841.500000", "090843.500000", "090845.500000", "090847.500000", "090849.500000", "090851.500000", "090853.500000", "090855.500000", "090857.500000", "090859.500000", "090901.500000", "090903.500000", "090905.500000", "090907.500000", "090909.500000", "090911.500000", "090913.500000", "090915.500000", "090917.500000", "090919.500000", "090921.500000", "090923.500000", "090925.500000", "090927.500000", "090929.500000", "090931.500000"],
      "ContentTime": ["090345.805000", "090345.808000", "090345.810000", "090345.813000", "090345.816000", "090345.823000", "090345.825000", "090345.828000", "090345.830000", "090345.833000", "090345.835000", "090345.837000", "090345.840000", "090345.842000", "090345.844000", "090345.847000", "090345.849000", "090345.852000", "090345.854000", "090345.856000", "090345.859000", "090345.861000", "090345.863000", "090345.866000", "090345.868000", "090345.871000", "090425.800000", "090425.803000", "090425.806000", "090425.808000", "090425.810000", "090425.812000", "090425.815000", "090425.817000", "090425.819000", "090425.822000", "090425.824000", "090425.827000", "090425.829000", "090425.831000", "090425.834000", "090425.836000", "090425.839000", "090425.841000", "090425.843000", "090425.846000", "090505.801000", "090505.803000", "090505.806000", "090505.808000", "090505.810000", "090505.813000", "090505.815000", "090505.817000", "090505.820000", "090505.822000", "090505.824000", "090505.827000", "090505.829000", "090505.831000", "090505.834000", "090505.836000", "090505.839000", "090505.841000", "090505.843000", "090505.846000", "090545.800000", "090545.803000", "090545.806000", "090545.808000", "090545.810000", "090545.813000", "090545.815000", "090545.818000", "090545.820000", "090545.823000", "090545.825000", "090545.828000", "090545.830000", "090545.832000", "090545.835000", "090545.837000", "090545.840000", "090545.842000", "090545.844000", "090545.847000", "090625.800000", "090625.803000", "090625.806000", "090625.808000", "090625.810000", "090625.813000", "090625.815000", "090625.818000", "090625.820000", "090625.822000", "090625.825000", "090625.827000", "090625.829000", "090625.832000", "090625.834000", "090625.836000", "090625.839000", "090625.841000", "090625.844000", "090625.846000", "090705.801000", "090705.804000", "090705.806000", "090705.809000", "090705.811000", "090705.813000", "090705.816000", "090705.818000", "090705.821000", "090705.823000", "090705.825000", "090705.828000", "090705.830000", "090705.832000", "090705.835000", "090705.837000", "090705.839000", "090705.842000", "090705.844000", "090705.846000", "090745.800000", "090745.803000", "090745.805000", "090745.808000", "090745.810000", "090745.812000", "090745.815000", "090745.817000", "090745.819000", "090745.822000", "090745.824000", "090745.826000", "090745.829000", "090745.831000", "090745.833000", "090745.836000", "090745.838000", "090745.840000", "090745.843000", "090745.845000", "090825.800000", "090825.803000", "090825.805000", "090825.808000", "090825.810000", "090825.813000", "090825.815000", "090825.817000", "090825.820000", "090825.822000", "090825.825000", "090825.827000", "090825.829000", "090825.832000", "090825.834000", "090825.836000", "090825.839000", "090825.841000", "090825.844000", "090825.846000", "090905.801000", "090905.803000", "090905.806000", "090905.808000", "090905.810000", "090905.813000", "090905.815000", "090905.818000", "090905.820000", "090905.822000", "090905.825000", "090905.827000", "090905.829000", "090905.832000", "090905.834000", "090905.837000", "090905.839000", "090905.841000", "090905.844000", "090905.846000", "090933.155000", "090933.158000", "090933.161000", "090933.163000", "090933.166000", "090933.168000", "090933.170000", "090933.173000", "090933.175000", "090933.178000", "090933.180000", "090933.183000", "090933.189000", "090933.192000"],
      "InstanceCreationTime": ["090345.805000", "090345.808000", "090345.810000", "090345.813000", "090345.816000", "090345.823000", "090345.825000", "090345.828000", "090345.830000", "090345.833000", "090345.835000", "090345.837000", "090345.840000", "090345.842000", "090345.844000", "090345.847000", "090345.849000", "090345.852000", "090345.854000", "090345.856000", "090345.859000", "090345.861000", "090345.863000", "090345.866000", "090345.868000", "090345.871000", "090425.800000", "090425.803000", "090425.806000", "090425.808000", "090425.810000", "090425.812000", "090425.815000", "090425.817000", "090425.819000", "090425.822000", "090425.824000", "090425.827000", "090425.829000", "090425.831000", "090425.834000", "090425.836000", "090425.839000", "090425.841000", "090425.843000", "090425.846000", "090505.801000", "090505.803000", "090505.806000", "090505.808000", "090505.810000", "090505.813000", "090505.815000", "090505.817000", "090505.820000", "090505.822000", "090505.824000", "090505.827000", "090505.829000", "090505.831000", "090505.834000", "090505.836000", "090505.839000", "090505.841000", "090505.843000", "090505.846000", "090545.800000", "090545.803000", "090545.806000", "090545.808000", "090545.810000", "090545.813000", "090545.815000", "090545.818000", "090545.820000", "090545.823000", "090545.825000", "090545.828000", "090545.830000", "090545.832000", "090545.835000", "090545.837000", "090545.840000", "090545.842000", "090545.844000", "090545.847000", "090625.800000", "090625.803000", "090625.806000", "090625.808000", "090625.810000", "090625.813000", "090625.815000", "090625.818000", "090625.820000", "090625.822000", "090625.825000", "090625.827000", "090625.829000", "090625.832000", "090625.834000", "090625.836000", "090625.839000", "090625.841000", "090625.844000", "090625.846000", "090705.801000", "090705.804000", "090705.806000", "090705.809000", "090705.811000", "090705.813000", "090705.816000", "090705.818000", "090705.821000", "090705.823000", "090705.825000", "090705.828000", "090705.830000", "090705.832000", "090705.835000", "090705.837000", "090705.839000", "090705.842000", "090705.844000", "090705.846000", "090745.800000", "090745.803000", "090745.805000", "090745.808000", "090745.810000", "090745.812000", "090745.815000", "090745.817000", "090745.819000", "090745.822000", "090745.824000", "090745.826000", "090745.829000", "090745.831000", "090745.833000", "090745.836000", "090745.838000", "090745.840000", "090745.843000", "090745.845000", "090825.800000", "090825.803000", "090825.805000", "090825.808000", "090825.810000", "090825.813000", "090825.815000", "090825.817000", "090825.820000", "090825.822000", "090825.825000", "090825.827000", "090825.829000", "090825.832000", "090825.834000", "090825.836000", "090825.839000", "090825.841000", "090825.844000", "090825.846000", "090905.801000", "090905.803000", "090905.806000", "090905.808000", "090905.810000", "090905.813000", "090905.815000", "090905.818000", "090905.820000", "090905.822000", "090905.825000", "090905.827000", "090905.829000", "090905.832000", "090905.834000", "090905.837000", "090905.839000", "090905.841000", "090905.844000", "090905.846000", "090933.155000", "090933.158000", "090933.161000", "090933.163000", "090933.166000", "090933.168000", "090933.170000", "090933.173000", "090933.175000", "090933.178000", "090933.180000", "090933.183000", "090933.189000", "090933.192000"],
      "InstanceNumber": [1, 2, 3, 4, 5, 6, 7, 8, 9, 10, 11, 12, 13, 14, 15, 16, 17, 18, 19, 20, 21, 22, 23, 24, 25, 26, 27, 28, 29, 30, 31, 32, 33, 34, 35, 36, 37, 38, 39, 40, 41, 42, 43, 44, 45, 46, 47, 48, 49, 50, 51, 52, 53, 54, 55, 56, 57, 58, 59, 60, 61, 62, 63, 64, 65, 66, 67, 68, 69, 70, 71, 72, 73, 74, 75, 76, 77, 78, 79, 80, 81, 82, 83, 84, 85, 86, 87, 88, 89, 90, 91, 92, 93, 94, 95, 96, 97, 98, 99, 100, 101, 102, 103, 104, 105, 106, 107, 108, 109, 110, 111, 112, 113, 114, 115, 116, 117, 118, 119, 120, 121, 122, 123, 124, 125, 126, 127, 128, 129, 130, 131, 132, 133, 134, 135, 136, 137, 138, 139, 140, 141, 142, 143, 144, 145, 146, 147, 148, 149, 150, 151, 152, 153, 154, 155, 156, 157, 158, 159, 160, 161, 162, 163, 164, 165, 166, 167, 168, 169, 170, 171, 172, 173, 174, 175, 176, 177, 178, 179, 180, 181, 182, 183, 184, 185, 186, 187, 188, 189, 190, 191, 192, 193, 194, 195, 196, 197, 198, 199, 200],
      "LargestImagePixelValue": [3903, 3900, 3901, 3901, 3902, 3901, 3902, 3900, 3900, 3900, 3902, 3902, 3899, 3901, 3903, 3900, 3901, 3899, 3902, 3902, 3900, 3900, 3899, 3900, 3903, 3908, 3902, 3901, 3901, 3904, 3902, 3905, 3904, 3901, 3902, 3900, 3904, 3904, 3909, 3904, 3905, 3904, 3905, 3907, 3898, 3905, 3905, 3904, 3906, 3902, 3905, 3907, 3905, 3906, 3904, 3904, 3903, 3904, 3901, 3900, 3905, 3907, 3905, 3906, 3900, 3905, 3906, 3902, 3905, 3901, 3901, 3905, 3904, 3902, 3903, 3911, 3906, 3906, 3902, 3906, 3902, 3907, 3902, 3902, 3906, 3905, 3908, 3901, 3904, 3899, 3907, 3899, 3904, 3902, 3905, 3905, 3907, 3904, 3904, 3906, 3905, 3905, 3909, 3906, 3904, 3903, 3905, 3906, 3908, 3907, 3900, 3903, 3907, 3906, 3907, 3905, 3906, 3907, 3905, 3903, 3904, 3902, 3907, 3905, 3908, 3907, 3907, 3905, 3904, 3909, 3906, 3905, 3907, 3909, 3904, 3903, 3906, 3908, 3905, 3906, 3906, 3902, 3908, 3900, 3908, 3906, 3903, 3904, 3905, 3905, 3904, 3908, 3906, 3907, 3905, 3906, 3907, 3905, 3910, 3905, 3908, 3907, 3909, 3905, 3908, 3904, 3908, 3903, 3907, 3906, 3901, 3905, 3905, 3905, 3905, 3906, 3906, 3909, 3905, 3905, 3905, 3910, 3909, 3905, 3906, 3908, 3913, 3906, 3906, 3902, 3909, 3907, 3913, 3909, 3907, 3909, 3910, 3908, 3908, 3908],
      "WindowCenter": [1368.0, 1368.0, 1368.0, 1368.0, 1369.0, 1368.0, 1369.0, 1368.0, 1368.0, 1368.0, 1368.0, 1368.0, 1368.0, 1368.0, 1368.0, 1368.0, 1368.0, 1368.0, 1369.0, 1368.0, 1368.0, 1368.0, 1368.0, 1368.0, 1368.0, 1367.0, 1368.0, 1368.0, 1368.0, 1368.0, 1368.0, 1368.0, 1368.0, 1368.0, 1368.0, 1368.0, 1368.0, 1368.0, 1368.0, 1368.0, 1367.0, 1367.0, 1367.0, 1367.0, 1368.0, 1368.0, 1368.0, 1367.0, 1368.0, 1367.0, 1368.0, 1368.0, 1367.0, 1368.0, 1368.0, 1367.0, 1367.0, 1367.0, 1367.0, 1367.0, 1367.0, 1367.0, 1367.0, 1367.0, 1368.0, 1367.0, 1367.0, 1367.0, 1367.0, 1367.0, 1367.0, 1367.0, 1367.0, 1367.0, 1367.0, 1367.0, 1366.0, 1367.0, 1367.0, 1367.0, 1367.0, 1367.0, 1367.0, 1366.0, 1367.0, 1367.0, 1367.0, 1366.0, 1366.0, 1366.0, 1366.0, 1366.0, 1366.0, 1366.0, 1366.0, 1367.0, 1367.0, 1366.0, 1366.0, 1366.0, 1366.0, 1366.0, 1366.0, 1366.0, 1366.0, 1366.0, 1366.0, 1366.0, 1366.0, 1366.0, 1366.0, 1366.0, 1365.0, 1366.0, 1365.0, 1365.0, 1366.0, 1366.0, 1366.0, 1366.0, 1366.0, 1366.0, 1366.0, 1366.0, 1366.0, 1366.0, 1366.0, 1366.0, 1365.0, 1366.0, 1366.0, 1366.0, 1366.0, 1366.0, 1366.0, 1366.0, 1366.0, 1366.0, 1365.0, 1365.0, 1365.0, 1365.0, 1366.0, 1366.0, 1365.0, 1365.0, 1364.0, 1365.0, 1365.0, 1365.0, 1365.0, 1365.0, 1365.0, 1365.0, 1365.0, 1366.0, 1365.0, 1365.0, 1365.0, 1365.0, 1364.0, 1365.0, 1365.0, 1365.0, 1365.0, 1364.0, 1365.0, 1365.0, 1365.0, 1365.0, 1365.0, 1365.0, 1364.0, 1364.0, 1364.0, 1364.0, 1364.0, 1364.0, 1364.0, 1364.0, 1365.0, 1365.0, 1365.0, 1364.0, 1364.0, 1364.0, 1365.0, 1365.0, 1365.0, 1365.0, 1365.0, 1365.0, 1364.0, 1364.0, 1364.0, 1364.0, 1364.0, 1364.0, 1364.0, 1364.0],
      "WindowWidth": [3280.0, 3280.0, 3280.0, 3280.0, 3279.0, 3279.0, 3279.0, 3279.0, 3279.0, 3279.0, 3279.0, 3279.0, 3279.0, 3279.0, 3279.0, 3279.0, 3279.0, 3279.0, 3278.0, 3279.0, 3279.0, 3279.0, 3279.0, 3279.0, 3279.0, 3279.0, 3279.0, 3279.0, 3279.0, 3279.0, 3279.0, 3278.0, 3279.0, 3279.0, 3279.0, 3279.0, 3279.0, 3279.0, 3279.0, 3279.0, 3279.0, 3279.0, 3279.0, 3279.0, 3279.0, 3279.0, 3279.0, 3279.0, 3279.0, 3279.0, 3278.0, 3278.0, 3279.0, 3278.0, 3278.0, 3279.0, 3279.0, 3279.0, 3279.0, 3279.0, 3279.0, 3279.0, 3279.0, 3279.0, 3279.0, 3279.0, 3279.0, 3279.0, 3279.0, 3279.0, 3279.0, 3279.0, 3278.0, 3279.0, 3279.0, 3279.0, 3279.0, 3279.0, 3279.0, 3279.0, 3279.0, 3279.0, 3279.0, 3279.0, 3279.0, 3279.0, 3279.0, 3279.0, 3279.0, 3279.0, 3279.0, 3279.0, 3279.0, 3279.0, 3278.0, 3279.0, 3279.0, 3278.0, 3278.0, 3278.0, 3278.0, 3278.0, 3278.0, 3278.0, 3278.0, 3278.0, 3278.0, 3278.0, 3278.0, 3279.0, 3279.0, 3278.0, 3278.0, 3278.0, 3278.0, 3278.0, 3279.0, 3278.0, 3278.0, 3278.0, 3278.0, 3278.0, 3278.0, 3278.0, 3278.0, 3278.0, 3278.0, 3278.0, 3279.0, 3278.0, 3278.0, 3278.0, 3278.0, 3279.0, 3278.0, 3278.0, 3278.0, 3278.0, 3278.0, 3278.0, 3278.0, 3278.0, 3278.0, 3278.0, 3278.0, 3278.0, 3279.0, 3278.0, 3278.0, 3278.0, 3278.0, 3278.0, 3278.0, 3278.0, 3278.0, 3278.0, 3278.0, 3278.0, 3278.0, 3278.0, 3278.0, 3278.0, 3278.0, 3278.0, 3278.0, 3278.0, 3278.0, 3278.0, 3278.0, 3278.0, 3278.0, 3278.0, 3278.0, 3278.0, 3278.0, 3278.0, 3278.0, 3278.0, 3278.0, 3278.0, 3278.0, 3278.0, 3279.0, 3278.0, 3278.0, 3278.0, 3278.0, 3278.0, 3278.0, 3278.0, 3278.0, 3278.0, 3278.0, 3278.0, 3278.0, 3278.0, 3278.0, 3278.0, 3278.0, 3278.0]
    },
    "slices": {}
  }
}