{
  "AcquisitionMatrixPE": 80,
  "AcquisitionNumber": 1,
  "AcquisitionTime": "08:56:6.745000",
  "BandwidthPerPixelPhaseEncode": 48.077,
  "BaseResolution": 80,
  "BodyPartExamined": "BRAIN",
  "CoilCombinationMethod": "Sum of Squares",
  "ConsistencyInfo": "N4_VE11E_LATEST_20181129",
  "ConversionSoftware": "dcm2niix",
  "ConversionSoftwareVersion": "v1.0.20220720",
  "DerivedVendorReportedEchoSpacing": 0.000519999,
  "DeviceSerialNumber": "66112",
  "DwellTime": 2.7e-06,
  "EchoTime": 0.035,
  "EchoTrainLength": 39,
  "EffectiveEchoSpacing": 0.00026,
  "FlipAngle": 90,
  "HeudiconvVersion": "0.13.1",
  "ImageOrientationPatientDICOM": [0.990574, 0.136536, 0.0110405, -0.12426, 0.861737, 0.491903],
  "ImageOrientationText": "Tra>Cor(29.3)>Sag(-3.3)",
  "ImageType": [
    "ORIGINAL",
    "PRIMARY",
    "M",
    "ND",
    "NORM",
    "MOSAIC"
],
  "ImagingFrequency": 123.252,
  "InPlanePhaseEncodingDirectionDICOM": "COL",
  "InstitutionAddress": "Maynard 3,Hanover,NH,US,03755",
  "InstitutionName": "Dartmouth College - PBS",
  "InstitutionalDepartmentName": "Department",
  "MRAcquisitionType": "2D",
  "MagneticFieldStrength": 3,
  "Manufacturer": "Siemens",
  "ManufacturersModelName": "Prisma",
  "MatrixCoilMode": "GRAPPA",
  "Modality": "MR",
  "NonlinearGradientCorrection": false,
  "ParallelReductionFactorInPlane": 2,
  "PartialFourier": 1,
  "PatientPosition": "HFS",
  "PercentPhaseFOV": 100,
  "PercentSampling": 100,
  "PhaseEncodingDirection": "j-",
  "PhaseEncodingSteps": 79,
  "PhaseResolution": 1,
  "PixelBandwidth": 2315,
  "ProcedureStepDescription": "dbic^QA",
  "ProtocolName": "func-bold_task-rest_acq-p2",
  "PulseSequenceDetails": "%SiemensSeq%\\ep2d_bold",
  "ReceiveCoilActiveElements": "HC1-7;NC1,2",
  "ReceiveCoilName": "HeadNeck_64",
  "ReconMatrixPE": 80,
  "RefLinesPE": 24,
  "RepetitionTime": 2,
  "SAR": 0.0474926,
  "ScanOptions": "FS",
  "ScanningSequence": "EP",
  "SequenceName": "*epfid2d1_80",
  "SequenceVariant": "SK",
  "SeriesDescription": "func-bold_task-rest_acq-p2",
  "SeriesNumber": 5,
  "ShimSetting": [4137, -7724, -7522, 162, -82, -182, -27, 69],
  "SliceThickness": 3.5,
  "SliceTiming": [0.99, 0, 1.055, 0.0675, 1.1225, 0.1325, 1.1875, 0.1975, 1.255, 0.265, 1.32, 0.33, 1.385, 0.395, 1.4525, 0.4625, 1.5175, 0.5275, 1.585, 0.595, 1.65, 0.66, 1.715, 0.725, 1.7825, 0.7925, 1.8475, 0.8575, 1.915, 0.925],
  "SoftwareVersions": "syngo MR E11",
  "SpacingBetweenSlices": 3.99,
  "StationName": "AWP66112",
  "TaskName": "rest",
  "TotalReadoutTime": 0.02054,
  "TxRefAmp": 227.37,
  "dcmmeta_affine": [
    [-2.9717206954956055, -0.3727811574935913, -0.23001769185066223, 140.63717651367188],
    [-0.40960830450057983, 2.5852105617523193, 1.94966721534729, -100.61018371582031],
    [0.03312157839536667, -1.4757102727890015, 3.4736132621765137, 37.390625],
    [0.0, 0.0, 0.0, 1.0]
],
  "dcmmeta_reorient_transform": [
    [0.0, -1.0, 0.0, 79.0],
    [1.0, 0.0, 0.0, 0.0],
    [0.0, 0.0, 1.0, 0.0],
    [0.0, 0.0, 0.0, 1.0]
],
  "dcmmeta_shape": [80, 80, 30, 200],
  "dcmmeta_slice_dim": 2,
  "dcmmeta_version": 0.6,
  "global": {
    "const": {
      "AccessionNumber": "qa64",
      "AcquisitionMatrix": [80, 0, 0, 80],
      "AngioFlag": "N",
      "BitsAllocated": 16,
      "BitsStored": 12,
      "BodyPartExamined": "BRAIN",
      "Columns": 480,
      "EchoNumbers": 1,
      "EchoTime": 35.0,
      "EchoTrainLength": 39,
      "FlipAngle": 90.0,
      "HighBit": 11,
      "ImageOrientationPatient": [0.99057357163517, 0.13653609764062, 0.01104052621098, -0.124260390211, 0.86173684530941, 0.49190341009266],
      "ImagePositionPatient": [-630.97537811091, -702.58521422126, -380.95684384016],
      "ImageType": [
        "ORIGINAL",
        "PRIMARY",
        "M",
        "ND",
        "NORM",
        "MOSAIC"
],
      "ImagedNucleus": "1H",
      "ImagingFrequency": 123.252362,
      "InPlanePhaseEncodingDirection": "COL",
      "MRAcquisitionType": "2D",
      "MagneticFieldStrength": 3.0,
      "Manufacturer": "SIEMENS",
      "ManufacturerModelName": "Prisma",
      "Modality": "MR",
      "NumberOfAverages": 1.0,
      "NumberOfPhaseEncodingSteps": 79,
      "PercentPhaseFieldOfView": 100.0,
      "PercentSampling": 100.0,
      "PerformedProcedureStepStartTime": "084506.864000",
      "PhotometricInterpretation": "MONOCHROME2",
      "PixelBandwidth": 2315.0,
      "PixelRepresentation": 0,
      "PixelSpacing": [3.0, 3.0],
      "ProtocolName": "func-bold_task-rest_acq-p2",
      "RepetitionTime": 2000.0,
      "Rows": 480,
      "SAR": 0.04749263032208,
      "SamplesPerPixel": 1,
      "ScanOptions": "FS",
      "ScanningSequence": "EP",
      "SequenceName": "*epfid2d1_80",
      "SequenceVariant": "SK",
      "SeriesDescription": "func-bold_task-rest_acq-p2",
      "SeriesNumber": 5,
      "SeriesTime": "085645.981000",
      "SliceLocation": -24.718006985396,
      "SliceThickness": 3.5,
      "SmallestImagePixelValue": 0,
      "SoftwareVersions": "syngo MR E11",
      "SpacingBetweenSlices": 3.9899999639385,
      "SpecificCharacterSet": "ISO_IR 100",
      "StudyID": "3",
      "StudyTime": "084506.774000",
      "TransmitCoilName": "Body",
      "VariableFlipAngleFlag": "N",
      "WindowCenterWidthExplanation": "Algo1"
    },
    "slices": {}
  },
  "time": {
    "samples": {
      "AcquisitionNumber": [1, 2, 3, 4, 5, 6, 7, 8, 9, 10, 11, 12, 13, 14, 15, 16, 17, 18, 19, 20, 21, 22, 23, 24, 25, 26, 27, 28, 29, 30, 31, 32, 33, 34, 35, 36, 37, 38, 39, 40, 41, 42, 43, 44, 45, 46, 47, 48, 49, 50, 51, 52, 53, 54, 55, 56, 57, 58, 59, 60, 61, 62, 63, 64, 65, 66, 67, 68, 69, 70, 71, 72, 73, 74, 75, 76, 77, 78, 79, 80, 81, 82, 83, 84, 85, 86, 87, 88, 89, 90, 91, 92, 93, 94, 95, 96, 97, 98, 99, 100, 101, 102, 103, 104, 105, 106, 107, 108, 109, 110, 111, 112, 113, 114, 115, 116, 117, 118, 119, 120, 121, 122, 123, 124, 125, 126, 127, 128, 129, 130, 131, 132, 133, 134, 135, 136, 137, 138, 139, 140, 141, 142, 143, 144, 145, 146, 147, 148, 149, 150, 151, 152, 153, 154, 155, 156, 157, 158, 159, 160, 161, 162, 163, 164, 165, 166, 167, 168, 169, 170, 171, 172, 173, 174, 175, 176, 177, 178, 179, 180, 181, 182, 183, 184, 185, 186, 187, 188, 189, 190, 191, 192, 193, 194, 195, 196, 197, 198, 199, 200],
      "AcquisitionTime": ["085606.745000", "085608.745000", "085610.745000", "085612.745000", "085614.745000", "085616.745000", "085618.745000", "085620.745000", "085622.745000", "085624.745000", "085626.745000", "085628.745000", "085630.745000", "085632.745000", "085634.745000", "085636.745000", "085638.745000", "085640.745000", "085642.745000", "085644.745000", "085646.745000", "085648.745000", "085650.745000", "085652.745000", "085654.745000", "085656.745000", "085658.745000", "085700.745000", "085702.745000", "085704.745000", "085706.745000", "085708.745000", "085710.745000", "085712.745000", "085714.745000", "085716.745000", "085718.745000", "085720.745000", "085722.745000", "085724.745000", "085726.745000", "085728.745000", "085730.745000", "085732.745000", "085734.745000", "085736.745000", "085738.745000", "085740.745000", "085742.745000", "085744.745000", "085746.745000", "085748.745000", "085750.745000", "085752.745000", "085754.745000", "085756.745000", "085758.745000", "085800.745000", "085802.745000", "085804.745000", "085806.745000", "085808.745000", "085810.745000", "085812.745000", "085814.745000", "085816.745000", "085818.745000", "085820.745000", "085822.745000", "085824.745000", "085826.745000", "085828.745000", "085830.745000", "085832.745000", "085834.745000", "085836.745000", "085838.745000", "085840.745000", "085842.745000", "085844.745000", "085846.745000", "085848.745000", "085850.745000", "085852.745000", "085854.745000", "085856.745000", "085858.745000", "085900.745000", "085902.745000", "085904.745000", "085906.745000", "085908.745000", "085910.745000", "085912.745000", "085914.745000", "085916.745000", "085918.745000", "085920.745000", "085922.745000", "085924.745000", "085926.745000", "085928.745000", "085930.745000", "085932.745000", "085934.745000", "085936.745000", "085938.745000", "085940.745000", "085942.745000", "085944.745000", "085946.745000", "085948.745000", "085950.745000", "085952.745000", "085954.745000", "085956.745000", "085958.745000", "090000.745000", "090002.745000", "090004.745000", "090006.745000", "090008.745000", "090010.745000", "090012.745000", "090014.745000", "090016.745000", "090018.745000", "090020.745000", "090022.745000", "090024.745000", "090026.745000", "090028.745000", "090030.745000", "090032.745000", "090034.745000", "090036.745000", "090038.745000", "090040.745000", "090042.745000", "090044.745000", "090046.745000", "090048.745000", "090050.745000", "090052.745000", "090054.745000", "090056.745000", "090058.745000", "090100.745000", "090102.745000", "090104.745000", "090106.745000", "090108.745000", "090110.745000", "090112.745000", "090114.745000", "090116.745000", "090118.745000", "090120.745000", "090122.745000", "090124.745000", "090126.745000", "090128.745000", "090130.745000", "090132.745000", "090134.745000", "090136.745000", "090138.745000", "090140.745000", "090142.745000", "090144.745000", "090146.745000", "090148.745000", "090150.745000", "090152.745000", "090154.745000", "090156.745000", "090158.745000", "090200.745000", "090202.745000", "090204.745000", "090206.745000", "090208.745000", "090210.745000", "090212.745000", "090214.745000", "090216.745000", "090218.745000", "090220.745000", "090222.745000", "090224.745000", "090226.745000", "090228.745000", "090230.745000", "090232.745000", "090234.745000", "090236.745000", "090238.745000", "090240.745000", "090242.745000", "090244.745000"],
      "ContentTime": ["085645.985000", "085645.988000", "085645.991000", "085646.002000", "085646.004000", "085646.006000", "085646.009000", "085646.011000", "085646.014000", "085646.016000", "085646.018000", "085646.021000", "085646.023000", "085646.026000", "085646.028000", "085646.030000", "085646.033000", "085646.035000", "085646.037000", "085646.040000", "085725.980000", "085725.983000", "085725.985000", "085725.988000", "085725.990000", "085726.007000", "085726.009000", "085726.011000", "085726.014000", "085726.016000", "085726.019000", "085726.021000", "085726.023000", "085726.026000", "085726.028000", "085726.030000", "085726.033000", "085726.035000", "085726.038000", "085726.040000", "085805.981000", "085805.985000", "085805.987000", "085805.990000", "085805.992000", "085805.994000", "085805.997000", "085805.999000", "085806.001000", "085806.004000", "085806.006000", "085806.009000", "085806.011000", "085806.013000", "085806.016000", "085806.021000", "085806.024000", "085806.026000", "085806.029000", "085806.031000", "085845.980000", "085845.983000", "085845.985000", "085845.988000", "085845.990000", "085845.993000", "085845.995000", "085846.011000", "085846.013000", "085846.015000", "085846.018000", "085846.020000", "085846.022000", "085846.025000", "085846.027000", "085846.030000", "085846.032000", "085846.034000", "085846.044000", "085846.046000", "085925.981000", "085925.984000", "085925.986000", "085925.988000", "085925.991000", "085925.993000", "085925.996000", "085925.998000", "085926.001000", "085926.004000", "085926.006000", "085926.009000", "085926.011000", "085926.013000", "085926.016000", "085926.018000", "085926.021000", "085926.023000", "085926.025000", "085926.028000", "090005.981000", "090005.984000", "090005.987000", "090005.989000", "090005.992000", "090005.994000", "090005.996000", "090005.999000", "090006.001000", "090006.004000", "090006.015000", "090006.017000", "090006.020000", "090006.022000", "090006.024000", "090006.027000", "090006.029000", "090006.032000", "090006.034000", "090006.036000", "090045.980000", "090045.984000", "090045.986000", "090045.988000", "090045.991000", "090045.993000", "090045.996000", "090046.003000", "090046.005000", "090046.008000", "090046.010000", "090046.012000", "090046.015000", "090046.017000", "090046.020000", "090046.022000", "090046.024000", "090046.027000", "090046.029000", "090046.031000", "090125.980000", "090125.983000", "090125.986000", "090125.988000", "090125.990000", "090125.993000", "090125.995000", "090125.998000", "090126.001000", "090126.003000", "090126.006000", "090126.008000", "090126.011000", "090126.013000", "090126.015000", "090126.018000", "090126.020000", "090126.023000", "090126.025000", "090126.027000", "090205.980000", "090205.983000", "090205.986000", "090205.988000", "090205.990000", "090205.993000", "090205.995000", "090205.997000", "090206.001000", "090206.003000", "090206.006000", "090206.008000", "090206.010000", "090206.013000", "090206.015000", "090206.018000", "090206.020000", "090206.022000", "090206.025000", "090206.027000", "090245.847000", "090245.858000", "090245.861000", "090245.864000", "090245.867000", "090245.870000", "090245.873000", "090245.875000", "090245.878000", "090245.881000", "090245.884000", "090245.887000", "090245.889000", "090245.892000", "090245.894000", "090245.897000", "090245.900000", "090245.902000", "090245.905000", "090245.908000"],
      "InstanceCreationTime": ["085645.985000", "085645.988000", "085645.991000", "085646.002000", "085646.004000", "085646.006000", "085646.009000", "085646.011000", "085646.014000", "085646.016000", "085646.018000", "085646.021000", "085646.023000", "085646.026000", "085646.028000", "085646.030000", "085646.033000", "085646.035000", "085646.037000", "085646.040000", "085725.980000", "085725.983000", "085725.985000", "085725.988000", "085725.990000", "085726.007000", "085726.009000", "085726.011000", "085726.014000", "085726.016000", "085726.019000", "085726.021000", "085726.023000", "085726.026000", "085726.028000", "085726.030000", "085726.033000", "085726.035000", "085726.038000", "085726.040000", "085805.981000", "085805.985000", "085805.987000", "085805.990000", "085805.992000", "085805.994000", "085805.997000", "085805.999000", "085806.001000", "085806.004000", "085806.006000", "085806.009000", "085806.011000", "085806.013000", "085806.016000", "085806.021000", "085806.024000", "085806.026000", "085806.029000", "085806.031000", "085845.980000", "085845.983000", "085845.985000", "085845.988000", "085845.990000", "085845.993000", "085845.995000", "085846.011000", "085846.013000", "085846.015000", "085846.018000", "085846.020000", "085846.022000", "085846.025000", "085846.027000", "085846.030000", "085846.032000", "085846.034000", "085846.044000", "085846.046000", "085925.981000", "085925.984000", "085925.986000", "085925.988000", "085925.991000", "085925.993000", "085925.996000", "085925.998000", "085926.001000", "085926.004000", "085926.006000", "085926.009000", "085926.011000", "085926.013000", "085926.016000", "085926.018000", "085926.021000", "085926.023000", "085926.025000", "085926.028000", "090005.981000", "090005.984000", "090005.987000", "090005.989000", "090005.992000", "090005.994000", "090005.996000", "090005.999000", "090006.001000", "090006.004000", "090006.015000", "090006.017000", "090006.020000", "090006.022000", "090006.024000", "090006.027000", "090006.029000", "090006.032000", "090006.034000", "090006.036000", "090045.980000", "090045.984000", "090045.986000", "090045.988000", "090045.991000", "090045.993000", "090045.996000", "090046.003000", "090046.005000", "090046.008000", "090046.010000", "090046.012000", "090046.015000", "090046.017000", "090046.020000", "090046.022000", "090046.024000", "090046.027000", "090046.029000", "090046.031000", "090125.980000", "090125.983000", "090125.986000", "090125.988000", "090125.990000", "090125.993000", "090125.995000", "090125.998000", "090126.001000", "090126.003000", "090126.006000", "090126.008000", "090126.011000", "090126.013000", "090126.015000", "090126.018000", "090126.020000", "090126.023000", "090126.025000", "090126.027000", "090205.980000", "090205.983000", "090205.986000", "090205.988000", "090205.990000", "090205.993000", "090205.995000", "090205.997000", "090206.001000", "090206.003000", "090206.006000", "090206.008000", "090206.010000", "090206.013000", "090206.015000", "090206.018000", "090206.020000", "090206.022000", "090206.025000", "090206.027000", "090245.847000", "090245.858000", "090245.861000", "090245.864000", "090245.867000", "090245.870000", "090245.873000", "090245.875000", "090245.878000", "090245.881000", "090245.884000", "090245.887000", "090245.889000", "090245.892000", "090245.894000", "090245.897000", "090245.900000", "090245.902000", "090245.905000", "090245.908000"],
      "InstanceNumber": [1, 2, 3, 4, 5, 6, 7, 8, 9, 10, 11, 12, 13, 14, 15, 16, 17, 18, 19, 20, 21, 22, 23, 24, 25, 26, 27, 28, 29, 30, 31, 32, 33, 34, 35, 36, 37, 38, 39, 40, 41, 42, 43, 44, 45, 46, 47, 48, 49, 50, 51, 52, 53, 54, 55, 56, 57, 58, 59, 60, 61, 62, 63, 64, 65, 66, 67, 68, 69, 70, 71, 72, 73, 74, 75, 76, 77, 78, 79, 80, 81, 82, 83, 84, 85, 86, 87, 88, 89, 90, 91, 92, 93, 94, 95, 96, 97, 98, 99, 100, 101, 102, 103, 104, 105, 106, 107, 108, 109, 110, 111, 112, 113, 114, 115, 116, 117, 118, 119, 120, 121, 122, 123, 124, 125, 126, 127, 128, 129, 130, 131, 132, 133, 134, 135, 136, 137, 138, 139, 140, 141, 142, 143, 144, 145, 146, 147, 148, 149, 150, 151, 152, 153, 154, 155, 156, 157, 158, 159, 160, 161, 162, 163, 164, 165, 166, 167, 168, 169, 170, 171, 172, 173, 174, 175, 176, 177, 178, 179, 180, 181, 182, 183, 184, 185, 186, 187, 188, 189, 190, 191, 192, 193, 194, 195, 196, 197, 198, 199, 200],
      "LargestImagePixelValue": [3836, 3838, 3834, 3838, 3835, 3842, 3832, 3836, 3842, 3834, 3845, 3838, 3833, 3835, 3839, 3840, 3837, 3845, 3840, 3832, 3840, 3836, 3834, 3834, 3841, 3839, 3834, 3844, 3833, 3831, 3834, 3851, 3835, 3843, 3834, 3831, 3843, 3839, 3832, 3841, 3838, 3836, 3835, 3836, 3829, 3843, 3845, 3849, 3838, 3839, 3835, 3830, 3830, 3836, 3836, 3827, 3851, 3839, 3832, 3832, 3834, 3838, 3844, 3837, 3831, 3850, 3826, 3836, 3840, 3840, 3835, 3837, 3839, 3830, 3837, 3835, 3834, 3840, 3841, 3834, 3829, 3840, 3831, 3834, 3827, 3829, 3847, 3826, 3831, 3844, 3835, 3830, 3835, 3824, 3839, 3829, 3825, 3836, 3837, 3833, 3837, 3836, 3837, 3841, 3833, 3842, 3842, 3827, 3830, 3839, 3833, 3846, 3839, 3837, 3837, 3831, 3837, 3837, 3845, 3840, 3838, 3836, 3833, 3837, 3826, 3839, 3840, 3839, 3832, 3834, 3833, 3833, 3831, 3832, 3841, 3855, 3827, 3840, 3843, 3839, 3828, 3839, 3830, 3844, 3834, 3836, 3836, 3835, 3837, 3834, 3831, 3832, 3831, 3834, 3842, 3838, 3827, 3839, 3831, 3842, 3837, 3841, 3839, 3843, 3831, 3834, 3834, 3833, 3848, 3834, 3836, 3838, 3851, 3842, 3835, 3830, 3840, 3832, 3838, 3843, 3838, 3839, 3834, 3835, 3838, 3833, 3841, 3830, 3831, 3844, 3831, 3835, 3839, 3842, 3827, 3833, 3835, 3829, 3842, 3831],
      "WindowCenter": [1444.0, 1443.0, 1444.0, 1443.0, 1443.0, 1442.0, 1442.0, 1442.0, 1443.0, 1443.0, 1442.0, 1443.0, 1442.0, 1442.0, 1442.0, 1442.0, 1442.0, 1443.0, 1442.0, 1443.0, 1443.0, 1443.0, 1443.0, 1443.0, 1442.0, 1443.0, 1443.0, 1443.0, 1442.0, 1442.0, 1442.0, 1442.0, 1443.0, 1442.0, 1442.0, 1442.0, 1442.0, 1442.0, 1442.0, 1442.0, 1442.0, 1442.0, 1441.0, 1442.0, 1442.0, 1442.0, 1442.0, 1442.0, 1442.0, 1441.0, 1442.0, 1441.0, 1442.0, 1441.0, 1442.0, 1441.0, 1441.0, 1441.0, 1442.0, 1442.0, 1442.0, 1441.0, 1441.0, 1442.0, 1442.0, 1441.0, 1442.0, 1441.0, 1441.0, 1441.0, 1441.0, 1441.0, 1441.0, 1441.0, 1441.0, 1441.0, 1441.0, 1441.0, 1442.0, 1441.0, 1441.0, 1441.0, 1441.0, 1441.0, 1441.0, 1441.0, 1441.0, 1441.0, 1441.0, 1441.0, 1441.0, 1441.0, 1440.0, 1441.0, 1441.0, 1441.0, 1441.0, 1441.0, 1441.0, 1441.0, 1441.0, 1441.0, 1440.0, 1441.0, 1441.0, 1441.0, 1440.0, 1441.0, 1441.0, 1440.0, 1440.0, 1441.0, 1441.0, 1440.0, 1441.0, 1441.0, 1440.0, 1440.0, 1440.0, 1440.0, 1440.0, 1440.0, 1440.0, 1440.0, 1440.0, 1441.0, 1440.0, 1440.0, 1440.0, 1440.0, 1440.0, 1440.0, 1440.0, 1440.0, 1440.0, 1440.0, 1440.0, 1440.0, 1440.0, 1439.0, 1440.0, 1440.0, 1440.0, 1440.0, 1439.0, 1440.0, 1440.0, 1440.0, 1440.0, 1440.0, 1440.0, 1440.0, 1440.0, 1439.0, 1440.0, 1440.0, 1439.0, 1439.0, 1439.0, 1440.0, 1440.0, 1439.0, 1439.0, 1439.0, 1440.0, 1439.0, 1439.0, 1439.0, 1440.0, 1440.0, 1439.0, 1439.0, 1439.0, 1438.0, 1439.0, 1439.0, 1440.0, 1439.0, 1438.0, 1439.0, 1439.0, 1439.0, 1439.0, 1439.0, 1440.0, 1438.0, 1439.0, 1440.0, 1439.0, 1439.0, 1439.0, 1439.0, 1439.0, 1439.0, 1439.0, 1439.0, 1439.0, 1439.0, 1439.0, 1439.0],
      "WindowWidth": [3287.0, 3286.0, 3286.0, 3286.0, 3286.0, 3286.0, 3286.0, 3286.0, 3285.0, 3286.0, 3286.0, 3286.0, 3286.0, 3286.0, 3286.0, 3286.0, 3286.0, 3286.0, 3287.0, 3287.0, 3287.0, 3286.0, 3286.0, 3286.0, 3286.0, 3286.0, 3286.0, 3286.0, 3286.0, 3287.0, 3287.0, 3288.0, 3287.0, 3288.0, 3288.0, 3287.0, 3287.0, 3288.0, 3288.0, 3288.0, 3288.0, 3286.0, 3287.0, 3286.0, 3287.0, 3286.0, 3287.0, 3286.0, 3287.0, 3287.0, 3287.0, 3287.0, 3287.0, 3287.0, 3287.0, 3287.0, 3287.0, 3287.0, 3287.0, 3288.0, 3288.0, 3287.0, 3287.0, 3287.0, 3287.0, 3287.0, 3287.0, 3288.0, 3287.0, 3287.0, 3287.0, 3287.0, 3287.0, 3287.0, 3287.0, 3287.0, 3287.0, 3287.0, 3287.0, 3287.0, 3288.0, 3287.0, 3287.0, 3287.0, 3287.0, 3287.0, 3286.0, 3287.0, 3287.0, 3286.0, 3286.0, 3287.0, 3287.0, 3287.0, 3286.0, 3286.0, 3286.0, 3286.0, 3286.0, 3286.0, 3286.0, 3286.0, 3286.0, 3286.0, 3286.0, 3286.0, 3286.0, 3286.0, 3286.0, 3286.0, 3286.0, 3286.0, 3286.0, 3286.0, 3286.0, 3286.0, 3286.0, 3286.0, 3286.0, 3286.0, 3286.0, 3286.0, 3286.0, 3286.0, 3286.0, 3286.0, 3286.0, 3286.0, 3286.0, 3286.0, 3286.0, 3286.0, 3286.0, 3286.0, 3286.0, 3286.0, 3286.0, 3286.0, 3286.0, 3286.0, 3286.0, 3286.0, 3286.0, 3286.0, 3286.0, 3286.0, 3286.0, 3286.0, 3286.0, 3286.0, 3286.0, 3286.0, 3287.0, 3286.0, 3287.0, 3286.0, 3286.0, 3286.0, 3286.0, 3286.0, 3286.0, 3286.0, 3286.0, 3286.0, 3286.0, 3286.0, 3286.0, 3286.0, 3286.0, 3286.0, 3286.0, 3286.0, 3286.0, 3287.0, 3286.0, 3286.0, 3286.0, 3286.0, 3287.0, 3286.0, 3286.0, 3287.0, 3286.0, 3287.0, 3287.0, 3287.0, 3287.0, 3286.0, 3286.0, 3286.0, 3286.0, 3286.0, 3286.0, 3286.0, 3286.0, 3286.0, 3286.0, 3287.0, 3287.0, 3286.0]
    },
    "slices": {}
  }
}