{
  "AcquisitionMatrixPE": 80,
  "AcquisitionNumber": 1,
  "AcquisitionTime": "10:42:24.490000",
  "BandwidthPerPixelPhaseEncode": 25,
  "BaseResolution": 80,
  "BodyPartExamined": "BRAIN",
  "CoilCombinationMethod": "Sum of Squares",
  "ConsistencyInfo": "N4_VE11C_LATEST_20160120",
  "ConversionSoftware": "dcm2niix",
  "ConversionSoftwareVersion": "v1.0.20220720",
  "DerivedVendorReportedEchoSpacing": 0.0005,
  "DeviceSerialNumber": "66112",
  "DwellTime": 2.7e-06,
  "EchoTime": 0.03,
  "EchoTrainLength": 80,
  "EffectiveEchoSpacing": 0.0005,
  "FlipAngle": 10,
  "HeudiconvVersion": "0.13.1",
  "ImageOrientationPatientDICOM": [0.98795, 0.154668, 0.00567151, -0.148884, 0.939715, 0.307846],
  "ImageOrientationText": "Tra>Cor(17.8)>Sag(-2.4)",
  "ImageType": [
    "ORIGINAL",
    "PRIMARY",
    "M",
    "ND",
    "NORM",
    "MOSAIC"
],
  "ImagingFrequency": 123.252,
  "InPlanePhaseEncodingDirectionDICOM": "COL",
  "InstitutionAddress": "Maynard 3,Hanover,NH,US,03755",
  "InstitutionName": "Dartmouth College - PBS",
  "InstitutionalDepartmentName": "Department",
  "MRAcquisitionType": "2D",
  "MagneticFieldStrength": 3,
  "Manufacturer": "Siemens",
  "ManufacturersModelName": "Prisma",
  "MatrixCoilMode": "SENSE",
  "Modality": "MR",
  "NonlinearGradientCorrection": false,
  "PartialFourier": 1,
  "PatientPosition": "HFS",
  "PercentPhaseFOV": 100,
  "PercentSampling": 100,
  "PhaseEncodingDirection": "j-",
  "PhaseEncodingSteps": 80,
  "PhaseResolution": 1,
  "PixelBandwidth": 2315,
  "ProcedureStepDescription": "dbic^QA",
  "ProtocolName": "func-bold_fa-10",
  "PulseSequenceDetails": "%SiemensSeq%\\ep2d_bold",
  "ReceiveCoilActiveElements": "HEA;HEP",
  "ReceiveCoilName": "Head_32",
  "ReconMatrixPE": 80,
  "RepetitionTime": 2,
  "SAR": 0.0117512,
  "ScanOptions": "FS",
  "ScanningSequence": "EP",
  "SequenceName": "*epfid2d1_80",
  "SequenceVariant": "SK",
  "SeriesDescription": "func-bold_fa-10",
  "SeriesNumber": 10,
  "ShimSetting": [4141, -7691, -7519, 239, -47, -42, -46, 87],
  "SliceThickness": 3.5,
  "SliceTiming": [0.99, 0, 1.055, 0.065, 1.1225, 0.1325, 1.1875, 0.1975, 1.2525, 0.2625, 1.32, 0.33, 1.385, 0.395, 1.4525, 0.4625, 1.5175, 0.5275, 1.5825, 0.5925, 1.65, 0.66, 1.715, 0.725, 1.78, 0.7925, 1.8475, 0.8575, 1.9125, 0.9225],
  "SoftwareVersions": "syngo MR E11",
  "SpacingBetweenSlices": 3.99,
  "StationName": "AWP66112",
  "TotalReadoutTime": 0.0395,
  "TxRefAmp": 221.679,
  "dcmmeta_affine": [
    [-2.963850498199463, -0.44665294885635376, -0.16871477663516998, 139.3456268310547],
    [-0.4640055000782013, 2.819145441055298, 1.2168720960617065, -109.5604248046875],
    [0.01701454073190689, -0.9235367178916931, 3.796163558959961, -18.605836868286133],
    [0.0, 0.0, 0.0, 1.0]
],
  "dcmmeta_reorient_transform": [
    [0.0, -1.0, 0.0, 79.0],
    [1.0, 0.0, 0.0, 0.0],
    [0.0, 0.0, 1.0, 0.0],
    [0.0, 0.0, 0.0, 1.0]
],
  "dcmmeta_shape": [80, 80, 30, 200],
  "dcmmeta_slice_dim": 2,
  "dcmmeta_version": 0.6,
  "global": {
    "const": {
      "AccessionNumber": "qa",
      "AcquisitionMatrix": [80, 0, 0, 80],
      "AngioFlag": "N",
      "BitsAllocated": 16,
      "BitsStored": 12,
      "BodyPartExamined": "BRAIN",
      "Columns": 480,
      "EchoNumbers": 1,
      "EchoTime": 30.0,
      "EchoTrainLength": 80,
      "FlipAngle": 10.0,
      "HighBit": 11,
      "ImageOrientationPatient": [0.98795014527021, 0.15466849839629, 0.00567151341412, -0.148884315547, 0.93971514781481, 0.30784558069182],
      "ImagePositionPatient": [-607.49954806026, -769.78225028115, -279.6754954699],
      "ImageType": [
        "ORIGINAL",
        "PRIMARY",
        "M",
        "ND",
        "NORM",
        "MOSAIC"
],
      "ImagedNucleus": "1H",
      "ImagingFrequency": 123.252353,
      "InPlanePhaseEncodingDirection": "COL",
      "MRAcquisitionType": "2D",
      "MagneticFieldStrength": 3.0,
      "Manufacturer": "SIEMENS",
      "ManufacturerModelName": "Prisma",
      "Modality": "MR",
      "NumberOfAverages": 1.0,
      "NumberOfPhaseEncodingSteps": 80,
      "PercentPhaseFieldOfView": 100.0,
      "PercentSampling": 100.0,
      "PerformedProcedureStepStartTime": "101559.488000",
      "PhotometricInterpretation": "MONOCHROME2",
      "PixelBandwidth": 2315.0,
      "PixelRepresentation": 0,
      "PixelSpacing": [3.0, 3.0],
      "ProtocolName": "func-bold_fa-10",
      "RepetitionTime": 2000.0,
      "Rows": 480,
      "SAR": 0.01175117893079,
      "SamplesPerPixel": 1,
      "ScanOptions": "FS",
      "ScanningSequence": "EP",
      "SequenceName": "*epfid2d1_80",
      "SequenceVariant": "SK",
      "SeriesDescription": "func-bold_fa-10",
      "SeriesNumber": 10,
      "SeriesTime": "104307.883000",
      "SliceLocation": -57.007894030919,
      "SliceThickness": 3.5,
      "SmallestImagePixelValue": 0,
      "SoftwareVersions": "syngo MR E11",
      "SpacingBetweenSlices": 3.9899999622217,
      "SpecificCharacterSet": "ISO_IR 100",
      "StudyID": "25",
      "StudyTime": "101559.434000",
      "TransmitCoilName": "Body",
      "VariableFlipAngleFlag": "N",
      "WindowCenterWidthExplanation": "Algo1",
      "dBdt": 0.0},
    "slices": {}
  },
  "time": {
    "samples": {
      "AcquisitionNumber": [1, 2, 3, 4, 5, 6, 7, 8, 9, 10, 11, 12, 13, 14, 15, 16, 17, 18, 19, 20, 21, 22, 23, 24, 25, 26, 27, 28, 29, 30, 31, 32, 33, 34, 35, 36, 37, 38, 39, 40, 41, 42, 43, 44, 45, 46, 47, 48, 49, 50, 51, 52, 53, 54, 55, 56, 57, 58, 59, 60, 61, 62, 63, 64, 65, 66, 67, 68, 69, 70, 71, 72, 73, 74, 75, 76, 77, 78, 79, 80, 81, 82, 83, 84, 85, 86, 87, 88, 89, 90, 91, 92, 93, 94, 95, 96, 97, 98, 99, 100, 101, 102, 103, 104, 105, 106, 107, 108, 109, 110, 111, 112, 113, 114, 115, 116, 117, 118, 119, 120, 121, 122, 123, 124, 125, 126, 127, 128, 129, 130, 131, 132, 133, 134, 135, 136, 137, 138, 139, 140, 141, 142, 143, 144, 145, 146, 147, 148, 149, 150, 151, 152, 153, 154, 155, 156, 157, 158, 159, 160, 161, 162, 163, 164, 165, 166, 167, 168, 169, 170, 171, 172, 173, 174, 175, 176, 177, 178, 179, 180, 181, 182, 183, 184, 185, 186, 187, 188, 189, 190, 191, 192, 193, 194, 195, 196, 197, 198, 199, 200],
      "AcquisitionTime": ["104224.490000", "104226.490000", "104228.490000", "104230.490000", "104232.490000", "104234.490000", "104236.490000", "104238.490000", "104240.490000", "104242.490000", "104244.490000", "104246.490000", "104248.490000", "104250.490000", "104252.490000", "104254.490000", "104256.490000", "104258.490000", "104300.490000", "104302.490000", "104304.490000", "104306.490000", "104308.490000", "104310.490000", "104312.490000", "104314.490000", "104316.490000", "104318.490000", "104320.490000", "104322.490000", "104324.490000", "104326.490000", "104328.490000", "104330.490000", "104332.490000", "104334.490000", "104336.490000", "104338.490000", "104340.490000", "104342.490000", "104344.490000", "104346.490000", "104348.490000", "104350.490000", "104352.490000", "104354.490000", "104356.490000", "104358.490000", "104400.490000", "104402.490000", "104404.490000", "104406.490000", "104408.490000", "104410.490000", "104412.490000", "104414.490000", "104416.490000", "104418.490000", "104420.490000", "104422.490000", "104424.490000", "104426.490000", "104428.490000", "104430.490000", "104432.490000", "104434.490000", "104436.490000", "104438.490000", "104440.490000", "104442.490000", "104444.490000", "104446.490000", "104448.490000", "104450.490000", "104452.490000", "104454.490000", "104456.490000", "104458.490000", "104500.490000", "104502.490000", "104504.490000", "104506.490000", "104508.490000", "104510.490000", "104512.490000", "104514.490000", "104516.490000", "104518.490000", "104520.490000", "104522.490000", "104524.490000", "104526.490000", "104528.490000", "104530.490000", "104532.490000", "104534.490000", "104536.490000", "104538.490000", "104540.490000", "104542.490000", "104544.490000", "104546.490000", "104548.490000", "104550.490000", "104552.490000", "104554.490000", "104556.490000", "104558.490000", "104600.490000", "104602.490000", "104604.490000", "104606.490000", "104608.490000", "104610.490000", "104612.490000", "104614.490000", "104616.490000", "104618.490000", "104620.490000", "104622.490000", "104624.490000", "104626.490000", "104628.490000", "104630.490000", "104632.490000", "104634.490000", "104636.490000", "104638.490000", "104640.490000", "104642.490000", "104644.490000", "104646.490000", "104648.490000", "104650.490000", "104652.490000", "104654.490000", "104656.490000", "104658.490000", "104700.490000", "104702.490000", "104704.490000", "104706.490000", "104708.490000", "104710.490000", "104712.490000", "104714.490000", "104716.490000", "104718.490000", "104720.490000", "104722.490000", "104724.490000", "104726.490000", "104728.490000", "104730.490000", "104732.490000", "104734.490000", "104736.490000", "104738.490000", "104740.490000", "104742.490000", "104744.490000", "104746.490000", "104748.490000", "104750.490000", "104752.490000", "104754.490000", "104756.490000", "104758.490000", "104800.490000", "104802.490000", "104804.490000", "104806.490000", "104808.490000", "104810.490000", "104812.490000", "104814.490000", "104816.490000", "104818.490000", "104820.490000", "104822.490000", "104824.490000", "104826.490000", "104828.490000", "104830.490000", "104832.490000", "104834.490000", "104836.490000", "104838.490000", "104840.490000", "104842.490000", "104844.490000", "104846.490000", "104848.490000", "104850.490000", "104852.490000", "104854.490000", "104856.490000", "104858.490000", "104900.490000", "104902.490000"],
      "ContentTime": ["104307.886000", "104307.890000", "104307.892000", "104307.902000", "104307.905000", "104307.907000", "104307.910000", "104307.912000", "104307.915000", "104307.917000", "104307.920000", "104307.923000", "104307.925000", "104307.928000", "104307.939000", "104307.950000", "104307.953000", "104307.955000", "104307.958000", "104307.960000", "104307.963000", "104307.965000", "104347.881000", "104347.884000", "104347.887000", "104347.889000", "104347.892000", "104347.895000", "104347.897000", "104347.900000", "104347.902000", "104347.905000", "104347.907000", "104347.910000", "104347.912000", "104347.915000", "104347.918000", "104347.920000", "104347.923000", "104347.925000", "104347.928000", "104347.930000", "104427.880000", "104427.883000", "104427.886000", "104427.888000", "104427.891000", "104427.894000", "104427.896000", "104427.899000", "104427.901000", "104427.904000", "104427.906000", "104427.909000", "104427.911000", "104427.914000", "104427.916000", "104427.919000", "104427.922000", "104427.924000", "104427.927000", "104427.929000", "104507.880000", "104507.883000", "104507.886000", "104507.888000", "104507.891000", "104507.893000", "104507.896000", "104507.899000", "104507.901000", "104507.904000", "104507.906000", "104507.909000", "104507.911000", "104507.914000", "104507.917000", "104507.919000", "104507.922000", "104507.924000", "104507.927000", "104507.929000", "104547.882000", "104547.884000", "104547.887000", "104547.890000", "104547.892000", "104547.895000", "104547.897000", "104547.900000", "104547.902000", "104547.905000", "104547.907000", "104547.910000", "104547.913000", "104547.929000", "104547.932000", "104547.934000", "104547.937000", "104547.940000", "104547.942000", "104547.945000", "104627.881000", "104627.884000", "104627.887000", "104627.890000", "104627.892000", "104627.895000", "104627.897000", "104627.900000", "104627.902000", "104627.905000", "104627.907000", "104627.910000", "104627.912000", "104627.915000", "104627.918000", "104627.920000", "104627.923000", "104627.925000", "104627.928000", "104627.931000", "104707.881000", "104707.883000", "104707.886000", "104707.889000", "104707.891000", "104707.894000", "104707.896000", "104707.899000", "104707.901000", "104707.904000", "104707.906000", "104707.909000", "104707.912000", "104707.914000", "104707.917000", "104707.919000", "104707.922000", "104707.924000", "104707.927000", "104707.929000", "104747.882000", "104747.884000", "104747.887000", "104747.890000", "104747.892000", "104747.895000", "104747.897000", "104747.900000", "104747.903000", "104747.905000", "104747.908000", "104747.910000", "104747.913000", "104747.915000", "104747.918000", "104747.920000", "104747.923000", "104747.926000", "104747.928000", "104747.931000", "104827.882000", "104827.885000", "104827.887000", "104827.890000", "104827.893000", "104827.895000", "104827.898000", "104827.900000", "104827.903000", "104827.906000", "104827.908000", "104827.911000", "104827.914000", "104827.916000", "104827.919000", "104827.922000", "104827.924000", "104827.927000", "104827.929000", "104827.932000", "104903.587000", "104903.590000", "104903.592000", "104903.595000", "104903.597000", "104903.600000", "104903.603000", "104903.605000", "104903.608000", "104903.610000", "104903.613000", "104903.616000", "104903.626000", "104903.629000", "104903.631000", "104903.634000", "104903.637000", "104903.640000"],
      "InstanceCreationTime": ["104307.886000", "104307.890000", "104307.892000", "104307.902000", "104307.905000", "104307.907000", "104307.910000", "104307.912000", "104307.915000", "104307.917000", "104307.920000", "104307.923000", "104307.925000", "104307.928000", "104307.939000", "104307.950000", "104307.953000", "104307.955000", "104307.958000", "104307.960000", "104307.963000", "104307.965000", "104347.881000", "104347.884000", "104347.887000", "104347.889000", "104347.892000", "104347.895000", "104347.897000", "104347.900000", "104347.902000", "104347.905000", "104347.907000", "104347.910000", "104347.912000", "104347.915000", "104347.918000", "104347.920000", "104347.923000", "104347.925000", "104347.928000", "104347.930000", "104427.880000", "104427.883000", "104427.886000", "104427.888000", "104427.891000", "104427.894000", "104427.896000", "104427.899000", "104427.901000", "104427.904000", "104427.906000", "104427.909000", "104427.911000", "104427.914000", "104427.916000", "104427.919000", "104427.922000", "104427.924000", "104427.927000", "104427.929000", "104507.880000", "104507.883000", "104507.886000", "104507.888000", "104507.891000", "104507.893000", "104507.896000", "104507.899000", "104507.901000", "104507.904000", "104507.906000", "104507.909000", "104507.911000", "104507.914000", "104507.917000", "104507.919000", "104507.922000", "104507.924000", "104507.927000", "104507.929000", "104547.882000", "104547.884000", "104547.887000", "104547.890000", "104547.892000", "104547.895000", "104547.897000", "104547.900000", "104547.902000", "104547.905000", "104547.907000", "104547.910000", "104547.913000", "104547.929000", "104547.932000", "104547.934000", "104547.937000", "104547.940000", "104547.942000", "104547.945000", "104627.881000", "104627.884000", "104627.887000", "104627.890000", "104627.892000", "104627.895000", "104627.897000", "104627.900000", "104627.902000", "104627.905000", "104627.907000", "104627.910000", "104627.912000", "104627.915000", "104627.918000", "104627.920000", "104627.923000", "104627.925000", "104627.928000", "104627.931000", "104707.881000", "104707.883000", "104707.886000", "104707.889000", "104707.891000", "104707.894000", "104707.896000", "104707.899000", "104707.901000", "104707.904000", "104707.906000", "104707.909000", "104707.912000", "104707.914000", "104707.917000", "104707.919000", "104707.922000", "104707.924000", "104707.927000", "104707.929000", "104747.882000", "104747.884000", "104747.887000", "104747.890000", "104747.892000", "104747.895000", "104747.897000", "104747.900000", "104747.903000", "104747.905000", "104747.908000", "104747.910000", "104747.913000", "104747.915000", "104747.918000", "104747.920000", "104747.923000", "104747.926000", "104747.928000", "104747.931000", "104827.882000", "104827.885000", "104827.887000", "104827.890000", "104827.893000", "104827.895000", "104827.898000", "104827.900000", "104827.903000", "104827.906000", "104827.908000", "104827.911000", "104827.914000", "104827.916000", "104827.919000", "104827.922000", "104827.924000", "104827.927000", "104827.929000", "104827.932000", "104903.587000", "104903.590000", "104903.592000", "104903.595000", "104903.597000", "104903.600000", "104903.603000", "104903.605000", "104903.608000", "104903.610000", "104903.613000", "104903.616000", "104903.626000", "104903.629000", "104903.631000", "104903.634000", "104903.637000", "104903.640000"],
      "InstanceNumber": [1, 2, 3, 4, 5, 6, 7, 8, 9, 10, 11, 12, 13, 14, 15, 16, 17, 18, 19, 20, 21, 22, 23, 24, 25, 26, 27, 28, 29, 30, 31, 32, 33, 34, 35, 36, 37, 38, 39, 40, 41, 42, 43, 44, 45, 46, 47, 48, 49, 50, 51, 52, 53, 54, 55, 56, 57, 58, 59, 60, 61, 62, 63, 64, 65, 66, 67, 68, 69, 70, 71, 72, 73, 74, 75, 76, 77, 78, 79, 80, 81, 82, 83, 84, 85, 86, 87, 88, 89, 90, 91, 92, 93, 94, 95, 96, 97, 98, 99, 100, 101, 102, 103, 104, 105, 106, 107, 108, 109, 110, 111, 112, 113, 114, 115, 116, 117, 118, 119, 120, 121, 122, 123, 124, 125, 126, 127, 128, 129, 130, 131, 132, 133, 134, 135, 136, 137, 138, 139, 140, 141, 142, 143, 144, 145, 146, 147, 148, 149, 150, 151, 152, 153, 154, 155, 156, 157, 158, 159, 160, 161, 162, 163, 164, 165, 166, 167, 168, 169, 170, 171, 172, 173, 174, 175, 176, 177, 178, 179, 180, 181, 182, 183, 184, 185, 186, 187, 188, 189, 190, 191, 192, 193, 194, 195, 196, 197, 198, 199, 200],
      "LargestImagePixelValue": [376, 375, 375, 376, 375, 379, 376, 378, 377, 376, 380, 381, 380, 377, 380, 377, 380, 379, 375, 374, 376, 376, 378, 378, 379, 379, 379, 379, 376, 378, 380, 379, 376, 376, 375, 375, 376, 375, 375, 374, 375, 376, 379, 380, 375, 375, 375, 375, 380, 375, 377, 379, 376, 376, 380, 378, 378, 376, 377, 376, 375, 374, 380, 379, 376, 374, 374, 374, 374, 374, 376, 377, 376, 375, 376, 375, 376, 375, 376, 373, 375, 375, 377, 376, 377, 376, 376, 375, 375, 376, 380, 376, 379, 374, 376, 374, 375, 375, 376, 375, 376, 375, 375, 376, 375, 375, 379, 379, 379, 378, 376, 373, 376, 376, 377, 375, 377, 374, 374, 378, 379, 375, 376, 376, 375, 375, 376, 377, 378, 379, 379, 379, 379, 379, 381, 377, 375, 378, 379, 379, 380, 380, 379, 376, 380, 377, 378, 380, 378, 377, 379, 379, 376, 377, 375, 375, 378, 377, 379, 377, 376, 376, 375, 376, 375, 376, 375, 381, 378, 374, 374, 376, 375, 376, 376, 377, 377, 374, 376, 374, 376, 376, 379, 378, 377, 379, 378, 378, 379, 378, 379, 378, 378, 380, 378, 378, 379, 379, 379, 377],
      "WindowCenter": [301.0, 301.0, 301.0, 301.0, 301.0, 301.0, 300.0, 301.0, 301.0, 302.0, 302.0, 302.0, 302.0, 302.0, 302.0, 303.0, 302.0, 302.0, 301.0, 301.0, 300.0, 300.0, 302.0, 301.0, 302.0, 302.0, 302.0, 302.0, 301.0, 302.0, 302.0, 302.0, 300.0, 301.0, 301.0, 300.0, 300.0, 301.0, 302.0, 300.0, 300.0, 301.0, 302.0, 302.0, 300.0, 300.0, 301.0, 301.0, 301.0, 301.0, 300.0, 301.0, 300.0, 300.0, 301.0, 300.0, 301.0, 300.0, 300.0, 301.0, 300.0, 300.0, 302.0, 302.0, 300.0, 300.0, 301.0, 300.0, 300.0, 300.0, 300.0, 300.0, 300.0, 301.0, 300.0, 300.0, 300.0, 300.0, 301.0, 300.0, 300.0, 300.0, 300.0, 300.0, 300.0, 300.0, 300.0, 300.0, 300.0, 300.0, 301.0, 300.0, 301.0, 301.0, 300.0, 300.0, 300.0, 301.0, 302.0, 300.0, 300.0, 300.0, 300.0, 301.0, 300.0, 300.0, 302.0, 302.0, 302.0, 301.0, 300.0, 301.0, 300.0, 300.0, 301.0, 300.0, 300.0, 300.0, 300.0, 301.0, 301.0, 300.0, 301.0, 300.0, 301.0, 300.0, 300.0, 302.0, 302.0, 302.0, 302.0, 302.0, 302.0, 302.0, 302.0, 302.0, 301.0, 302.0, 302.0, 302.0, 302.0, 302.0, 302.0, 302.0, 302.0, 302.0, 302.0, 302.0, 302.0, 302.0, 302.0, 302.0, 300.0, 301.0, 300.0, 300.0, 302.0, 302.0, 302.0, 300.0, 301.0, 300.0, 300.0, 300.0, 300.0, 300.0, 301.0, 302.0, 302.0, 300.0, 301.0, 300.0, 300.0, 300.0, 301.0, 302.0, 302.0, 301.0, 300.0, 300.0, 300.0, 302.0, 302.0, 302.0, 302.0, 302.0, 302.0, 302.0, 302.0, 302.0, 302.0, 302.0, 302.0, 302.0, 302.0, 302.0, 302.0, 302.0, 302.0, 302.0],
      "WindowWidth": [652.0, 653.0, 653.0, 653.0, 653.0, 653.0, 652.0, 653.0, 653.0, 655.0, 655.0, 655.0, 655.0, 655.0, 655.0, 656.0, 655.0, 655.0, 653.0, 653.0, 652.0, 651.0, 655.0, 654.0, 655.0, 655.0, 655.0, 654.0, 653.0, 655.0, 654.0, 655.0, 651.0, 653.0, 653.0, 651.0, 651.0, 653.0, 655.0, 652.0, 651.0, 653.0, 655.0, 655.0, 652.0, 651.0, 653.0, 653.0, 653.0, 653.0, 651.0, 653.0, 651.0, 651.0, 652.0, 651.0, 653.0, 652.0, 652.0, 652.0, 652.0, 652.0, 655.0, 655.0, 652.0, 651.0, 652.0, 651.0, 651.0, 651.0, 652.0, 651.0, 651.0, 653.0, 651.0, 651.0, 652.0, 651.0, 653.0, 652.0, 652.0, 651.0, 652.0, 652.0, 652.0, 651.0, 651.0, 652.0, 651.0, 652.0, 653.0, 652.0, 653.0, 653.0, 651.0, 651.0, 651.0, 653.0, 654.0, 651.0, 651.0, 651.0, 651.0, 653.0, 651.0, 651.0, 654.0, 655.0, 655.0, 653.0, 651.0, 652.0, 652.0, 651.0, 653.0, 651.0, 651.0, 651.0, 652.0, 653.0, 653.0, 651.0, 653.0, 652.0, 652.0, 651.0, 651.0, 655.0, 654.0, 655.0, 655.0, 655.0, 655.0, 655.0, 655.0, 654.0, 653.0, 655.0, 655.0, 655.0, 655.0, 655.0, 654.0, 655.0, 655.0, 655.0, 655.0, 655.0, 655.0, 655.0, 655.0, 655.0, 651.0, 653.0, 651.0, 651.0, 654.0, 655.0, 655.0, 652.0, 652.0, 651.0, 651.0, 651.0, 652.0, 651.0, 653.0, 654.0, 654.0, 651.0, 653.0, 651.0, 651.0, 651.0, 653.0, 655.0, 654.0, 653.0, 651.0, 651.0, 651.0, 654.0, 655.0, 655.0, 655.0, 655.0, 654.0, 654.0, 655.0, 655.0, 655.0, 655.0, 654.0, 655.0, 655.0, 655.0, 655.0, 655.0, 655.0, 655.0]
    },
    "slices": {}
  }
}