{
  "AcquisitionMatrixPE": 80,
  "AcquisitionNumber": 1,
  "AcquisitionTime": "10:35:37.510000",
  "BandwidthPerPixelPhaseEncode": 25,
  "BaseResolution": 80,
  "BodyPartExamined": "BRAIN",
  "CoilCombinationMethod": "Sum of Squares",
  "ConsistencyInfo": "N4_VE11C_LATEST_20160120",
  "ConversionSoftware": "dcm2niix",
  "ConversionSoftwareVersion": "v1.0.20220720",
  "DerivedVendorReportedEchoSpacing": 0.0005,
  "DeviceSerialNumber": "66112",
  "DwellTime": 2.7e-06,
  "EchoTime": 0.03,
  "EchoTrainLength": 80,
  "EffectiveEchoSpacing": 0.0005,
  "FlipAngle": 77,
  "HeudiconvVersion": "0.13.1",
  "ImageOrientationPatientDICOM": [0.98795, 0.154668, 0.00567151, -0.148884, 0.939715, 0.307846],
  "ImageOrientationText": "Tra>Cor(17.8)>Sag(-2.4)",
  "ImageType": [
    "ORIGINAL",
    "PRIMARY",
    "M",
    "ND",
    "NORM",
    "MOSAIC"
],
  "ImagingFrequency": 123.252,
  "InPlanePhaseEncodingDirectionDICOM": "COL",
  "InstitutionAddress": "Maynard 3,Hanover,NH,US,03755",
  "InstitutionName": "Dartmouth College - PBS",
  "InstitutionalDepartmentName": "Department",
  "MRAcquisitionType": "2D",
  "MagneticFieldStrength": 3,
  "Manufacturer": "Siemens",
  "ManufacturersModelName": "Prisma",
  "MatrixCoilMode": "SENSE",
  "Modality": "MR",
  "NonlinearGradientCorrection": false,
  "PartialFourier": 1,
  "PatientPosition": "HFS",
  "PercentPhaseFOV": 100,
  "PercentSampling": 100,
  "PhaseEncodingDirection": "j-",
  "PhaseEncodingSteps": 80,
  "PhaseResolution": 1,
  "PixelBandwidth": 2315,
  "ProcedureStepDescription": "dbic^QA",
  "ProtocolName": "func-bold_fa-77",
  "PulseSequenceDetails": "%SiemensSeq%\\ep2d_bold",
  "ReceiveCoilActiveElements": "HEA;HEP",
  "ReceiveCoilName": "Head_32",
  "ReconMatrixPE": 80,
  "RepetitionTime": 2,
  "SAR": 0.043807,
  "ScanOptions": "FS",
  "ScanningSequence": "EP",
  "SequenceName": "*epfid2d1_80",
  "SequenceVariant": "SK",
  "SeriesDescription": "func-bold_fa-77",
  "SeriesNumber": 8,
  "ShimSetting": [4141, -7691, -7519, 239, -47, -42, -46, 87],
  "SliceThickness": 3.5,
  "SliceTiming": [0.99, 0, 1.0575, 0.0675, 1.1225, 0.1325, 1.1875, 0.1975, 1.255, 0.265, 1.32, 0.33, 1.3875, 0.3975, 1.4525, 0.4625, 1.5175, 0.5275, 1.585, 0.595, 1.65, 0.66, 1.7175, 0.7275, 1.7825, 0.7925, 1.8475, 0.8575, 1.915, 0.925],
  "SoftwareVersions": "syngo MR E11",
  "SpacingBetweenSlices": 3.99,
  "StationName": "AWP66112",
  "TotalReadoutTime": 0.0395,
  "TxRefAmp": 221.679,
  "dcmmeta_affine": [
    [-2.963850498199463, -0.44665294885635376, -0.16871477663516998, 139.3456268310547],
    [-0.4640055000782013, 2.819145441055298, 1.2168720960617065, -109.5604248046875],
    [0.01701454073190689, -0.9235367178916931, 3.796163558959961, -18.605836868286133],
    [0.0, 0.0, 0.0, 1.0]
],
  "dcmmeta_reorient_transform": [
    [0.0, -1.0, 0.0, 79.0],
    [1.0, 0.0, 0.0, 0.0],
    [0.0, 0.0, 1.0, 0.0],
    [0.0, 0.0, 0.0, 1.0]
],
  "dcmmeta_shape": [80, 80, 30, 200],
  "dcmmeta_slice_dim": 2,
  "dcmmeta_version": 0.6,
  "global": {
    "const": {
      "AccessionNumber": "qa",
      "AcquisitionMatrix": [80, 0, 0, 80],
      "AngioFlag": "N",
      "BitsAllocated": 16,
      "BitsStored": 12,
      "BodyPartExamined": "BRAIN",
      "Columns": 480,
      "EchoNumbers": 1,
      "EchoTime": 30.0,
      "EchoTrainLength": 80,
      "FlipAngle": 77.0,
      "HighBit": 11,
      "ImageOrientationPatient": [0.98795014527021, 0.15466849839629, 0.00567151341412, -0.148884315547, 0.93971514781481, 0.30784558069182],
      "ImagePositionPatient": [-607.49954806026, -769.78225028115, -279.6754954699],
      "ImageType": [
        "ORIGINAL",
        "PRIMARY",
        "M",
        "ND",
        "NORM",
        "MOSAIC"
],
      "ImagedNucleus": "1H",
      "ImagingFrequency": 123.252351,
      "InPlanePhaseEncodingDirection": "COL",
      "MRAcquisitionType": "2D",
      "MagneticFieldStrength": 3.0,
      "Manufacturer": "SIEMENS",
      "ManufacturerModelName": "Prisma",
      "Modality": "MR",
      "NumberOfAverages": 1.0,
      "NumberOfPhaseEncodingSteps": 80,
      "PercentPhaseFieldOfView": 100.0,
      "PercentSampling": 100.0,
      "PerformedProcedureStepStartTime": "101559.488000",
      "PhotometricInterpretation": "MONOCHROME2",
      "PixelBandwidth": 2315.0,
      "PixelRepresentation": 0,
      "PixelSpacing": [3.0, 3.0],
      "ProtocolName": "func-bold_fa-77",
      "RepetitionTime": 2000.0,
      "Rows": 480,
      "SAR": 0.043806959727,
      "SamplesPerPixel": 1,
      "ScanOptions": "FS",
      "ScanningSequence": "EP",
      "SequenceName": "*epfid2d1_80",
      "SequenceVariant": "SK",
      "SeriesDescription": "func-bold_fa-77",
      "SeriesNumber": 8,
      "SeriesTime": "103627.812000",
      "SliceLocation": -57.007894030919,
      "SliceThickness": 3.5,
      "SmallestImagePixelValue": 0,
      "SoftwareVersions": "syngo MR E11",
      "SpacingBetweenSlices": 3.9899999622217,
      "SpecificCharacterSet": "ISO_IR 100",
      "StudyID": "25",
      "StudyTime": "101559.434000",
      "TransmitCoilName": "Body",
      "VariableFlipAngleFlag": "N",
      "WindowCenterWidthExplanation": "Algo1",
      "dBdt": 0.0},
    "slices": {}
  },
  "time": {
    "samples": {
      "AcquisitionNumber": [1, 2, 3, 4, 5, 6, 7, 8, 9, 10, 11, 12, 13, 14, 15, 16, 17, 18, 19, 20, 21, 22, 23, 24, 25, 26, 27, 28, 29, 30, 31, 32, 33, 34, 35, 36, 37, 38, 39, 40, 41, 42, 43, 44, 45, 46, 47, 48, 49, 50, 51, 52, 53, 54, 55, 56, 57, 58, 59, 60, 61, 62, 63, 64, 65, 66, 67, 68, 69, 70, 71, 72, 73, 74, 75, 76, 77, 78, 79, 80, 81, 82, 83, 84, 85, 86, 87, 88, 89, 90, 91, 92, 93, 94, 95, 96, 97, 98, 99, 100, 101, 102, 103, 104, 105, 106, 107, 108, 109, 110, 111, 112, 113, 114, 115, 116, 117, 118, 119, 120, 121, 122, 123, 124, 125, 126, 127, 128, 129, 130, 131, 132, 133, 134, 135, 136, 137, 138, 139, 140, 141, 142, 143, 144, 145, 146, 147, 148, 149, 150, 151, 152, 153, 154, 155, 156, 157, 158, 159, 160, 161, 162, 163, 164, 165, 166, 167, 168, 169, 170, 171, 172, 173, 174, 175, 176, 177, 178, 179, 180, 181, 182, 183, 184, 185, 186, 187, 188, 189, 190, 191, 192, 193, 194, 195, 196, 197, 198, 199, 200],
      "AcquisitionTime": ["103537.510000", "103539.510000", "103541.510000", "103543.510000", "103545.510000", "103547.510000", "103549.510000", "103551.510000", "103553.510000", "103555.510000", "103557.510000", "103559.510000", "103601.510000", "103603.510000", "103605.510000", "103607.510000", "103609.510000", "103611.510000", "103613.510000", "103615.510000", "103617.510000", "103619.510000", "103621.510000", "103623.510000", "103625.510000", "103627.510000", "103629.510000", "103631.510000", "103633.510000", "103635.510000", "103637.510000", "103639.510000", "103641.510000", "103643.510000", "103645.510000", "103647.510000", "103649.510000", "103651.510000", "103653.510000", "103655.510000", "103657.510000", "103659.510000", "103701.510000", "103703.510000", "103705.510000", "103707.510000", "103709.510000", "103711.510000", "103713.510000", "103715.510000", "103717.510000", "103719.510000", "103721.510000", "103723.510000", "103725.510000", "103727.510000", "103729.510000", "103731.510000", "103733.510000", "103735.510000", "103737.510000", "103739.510000", "103741.510000", "103743.510000", "103745.510000", "103747.510000", "103749.510000", "103751.510000", "103753.510000", "103755.510000", "103757.510000", "103759.510000", "103801.510000", "103803.510000", "103805.510000", "103807.510000", "103809.510000", "103811.510000", "103813.510000", "103815.510000", "103817.510000", "103819.510000", "103821.510000", "103823.510000", "103825.510000", "103827.510000", "103829.510000", "103831.510000", "103833.510000", "103835.510000", "103837.510000", "103839.510000", "103841.510000", "103843.510000", "103845.510000", "103847.510000", "103849.510000", "103851.510000", "103853.510000", "103855.510000", "103857.510000", "103859.510000", "103901.510000", "103903.510000", "103905.510000", "103907.510000", "103909.510000", "103911.510000", "103913.510000", "103915.510000", "103917.510000", "103919.510000", "103921.510000", "103923.510000", "103925.510000", "103927.510000", "103929.510000", "103931.510000", "103933.510000", "103935.510000", "103937.510000", "103939.510000", "103941.510000", "103943.510000", "103945.510000", "103947.510000", "103949.510000", "103951.510000", "103953.510000", "103955.510000", "103957.510000", "103959.510000", "104001.510000", "104003.510000", "104005.510000", "104007.510000", "104009.510000", "104011.510000", "104013.510000", "104015.510000", "104017.510000", "104019.510000", "104021.510000", "104023.510000", "104025.510000", "104027.510000", "104029.510000", "104031.510000", "104033.510000", "104035.510000", "104037.510000", "104039.510000", "104041.510000", "104043.510000", "104045.510000", "104047.510000", "104049.510000", "104051.510000", "104053.510000", "104055.510000", "104057.510000", "104059.510000", "104101.510000", "104103.510000", "104105.510000", "104107.510000", "104109.510000", "104111.510000", "104113.510000", "104115.510000", "104117.510000", "104119.510000", "104121.510000", "104123.510000", "104125.510000", "104127.510000", "104129.510000", "104131.510000", "104133.510000", "104135.510000", "104137.510000", "104139.510000", "104141.510000", "104143.510000", "104145.510000", "104147.510000", "104149.510000", "104151.510000", "104153.510000", "104155.510000", "104157.510000", "104159.510000", "104201.510000", "104203.510000", "104205.510000", "104207.510000", "104209.510000", "104211.510000", "104213.510000", "104215.510000"],
      "ContentTime": ["103627.815000", "103627.819000", "103627.821000", "103627.830000", "103627.832000", "103627.835000", "103627.837000", "103627.840000", "103627.843000", "103627.845000", "103627.848000", "103627.850000", "103627.853000", "103627.855000", "103627.858000", "103627.861000", "103627.863000", "103627.866000", "103627.868000", "103627.871000", "103627.873000", "103627.876000", "103627.879000", "103627.881000", "103627.884000", "103707.811000", "103707.813000", "103707.816000", "103707.819000", "103707.821000", "103707.831000", "103707.834000", "103707.837000", "103707.839000", "103707.842000", "103707.844000", "103707.847000", "103707.849000", "103707.869000", "103707.871000", "103707.874000", "103707.877000", "103707.879000", "103707.882000", "103707.884000", "103747.809000", "103747.812000", "103747.815000", "103747.818000", "103747.820000", "103747.823000", "103747.825000", "103747.828000", "103747.830000", "103747.833000", "103747.835000", "103747.838000", "103747.841000", "103747.843000", "103747.846000", "103747.848000", "103747.851000", "103747.853000", "103747.856000", "103747.859000", "103827.811000", "103827.813000", "103827.816000", "103827.819000", "103827.821000", "103827.824000", "103827.826000", "103827.829000", "103827.832000", "103827.834000", "103827.837000", "103827.839000", "103827.842000", "103827.848000", "103827.850000", "103827.853000", "103827.856000", "103827.858000", "103827.861000", "103827.864000", "103907.810000", "103907.813000", "103907.816000", "103907.819000", "103907.821000", "103907.824000", "103907.826000", "103907.829000", "103907.831000", "103907.834000", "103907.837000", "103907.839000", "103907.842000", "103907.844000", "103907.847000", "103907.850000", "103907.852000", "103907.855000", "103907.857000", "103907.860000", "103947.809000", "103947.812000", "103947.815000", "103947.818000", "103947.820000", "103947.823000", "103947.826000", "103947.828000", "103947.831000", "103947.833000", "103947.836000", "103947.839000", "103947.841000", "103947.844000", "103947.846000", "103947.849000", "103947.851000", "103947.854000", "103947.856000", "103947.859000", "104027.810000", "104027.812000", "104027.815000", "104027.818000", "104027.820000", "104027.823000", "104027.825000", "104027.828000", "104027.831000", "104027.833000", "104027.836000", "104027.838000", "104027.841000", "104027.843000", "104027.846000", "104027.849000", "104027.851000", "104027.854000", "104027.856000", "104027.859000", "104107.811000", "104107.814000", "104107.816000", "104107.819000", "104107.821000", "104107.824000", "104107.827000", "104107.829000", "104107.832000", "104107.835000", "104107.837000", "104107.840000", "104107.842000", "104107.845000", "104107.848000", "104107.850000", "104107.853000", "104107.855000", "104107.858000", "104107.861000", "104127.811000", "104127.813000", "104127.816000", "104127.819000", "104127.821000", "104127.824000", "104127.826000", "104127.829000", "104127.832000", "104127.834000", "104207.810000", "104207.812000", "104207.815000", "104207.818000", "104207.820000", "104207.823000", "104207.825000", "104207.828000", "104207.831000", "104207.833000", "104207.836000", "104207.838000", "104207.841000", "104207.844000", "104207.846000", "104207.849000", "104207.851000", "104207.854000", "104207.856000", "104207.859000", "104217.257000", "104217.260000", "104217.262000", "104217.265000", "104217.268000"],
      "InstanceCreationTime": ["103627.815000", "103627.819000", "103627.821000", "103627.830000", "103627.832000", "103627.835000", "103627.837000", "103627.840000", "103627.843000", "103627.845000", "103627.848000", "103627.850000", "103627.853000", "103627.855000", "103627.858000", "103627.861000", "103627.863000", "103627.866000", "103627.868000", "103627.871000", "103627.873000", "103627.876000", "103627.879000", "103627.881000", "103627.884000", "103707.811000", "103707.813000", "103707.816000", "103707.819000", "103707.821000", "103707.831000", "103707.834000", "103707.837000", "103707.839000", "103707.842000", "103707.844000", "103707.847000", "103707.849000", "103707.869000", "103707.871000", "103707.874000", "103707.877000", "103707.879000", "103707.882000", "103707.884000", "103747.809000", "103747.812000", "103747.815000", "103747.818000", "103747.820000", "103747.823000", "103747.825000", "103747.828000", "103747.830000", "103747.833000", "103747.835000", "103747.838000", "103747.841000", "103747.843000", "103747.846000", "103747.848000", "103747.851000", "103747.853000", "103747.856000", "103747.859000", "103827.811000", "103827.813000", "103827.816000", "103827.819000", "103827.821000", "103827.824000", "103827.826000", "103827.829000", "103827.832000", "103827.834000", "103827.837000", "103827.839000", "103827.842000", "103827.848000", "103827.850000", "103827.853000", "103827.856000", "103827.858000", "103827.861000", "103827.864000", "103907.810000", "103907.813000", "103907.816000", "103907.819000", "103907.821000", "103907.824000", "103907.826000", "103907.829000", "103907.831000", "103907.834000", "103907.837000", "103907.839000", "103907.842000", "103907.844000", "103907.847000", "103907.850000", "103907.852000", "103907.855000", "103907.857000", "103907.860000", "103947.809000", "103947.812000", "103947.815000", "103947.818000", "103947.820000", "103947.823000", "103947.826000", "103947.828000", "103947.831000", "103947.833000", "103947.836000", "103947.839000", "103947.841000", "103947.844000", "103947.846000", "103947.849000", "103947.851000", "103947.854000", "103947.856000", "103947.859000", "104027.810000", "104027.812000", "104027.815000", "104027.818000", "104027.820000", "104027.823000", "104027.825000", "104027.828000", "104027.831000", "104027.833000", "104027.836000", "104027.838000", "104027.841000", "104027.843000", "104027.846000", "104027.849000", "104027.851000", "104027.854000", "104027.856000", "104027.859000", "104107.811000", "104107.814000", "104107.816000", "104107.819000", "104107.821000", "104107.824000", "104107.827000", "104107.829000", "104107.832000", "104107.835000", "104107.837000", "104107.840000", "104107.842000", "104107.845000", "104107.848000", "104107.850000", "104107.853000", "104107.855000", "104107.858000", "104107.861000", "104127.811000", "104127.813000", "104127.816000", "104127.819000", "104127.821000", "104127.824000", "104127.826000", "104127.829000", "104127.832000", "104127.834000", "104207.810000", "104207.812000", "104207.815000", "104207.818000", "104207.820000", "104207.823000", "104207.825000", "104207.828000", "104207.831000", "104207.833000", "104207.836000", "104207.838000", "104207.841000", "104207.844000", "104207.846000", "104207.849000", "104207.851000", "104207.854000", "104207.856000", "104207.859000", "104217.257000", "104217.260000", "104217.262000", "104217.265000", "104217.268000"],
      "InstanceNumber": [1, 2, 3, 4, 5, 6, 7, 8, 9, 10, 11, 12, 13, 14, 15, 16, 17, 18, 19, 20, 21, 22, 23, 24, 25, 26, 27, 28, 29, 30, 31, 32, 33, 34, 35, 36, 37, 38, 39, 40, 41, 42, 43, 44, 45, 46, 47, 48, 49, 50, 51, 52, 53, 54, 55, 56, 57, 58, 59, 60, 61, 62, 63, 64, 65, 66, 67, 68, 69, 70, 71, 72, 73, 74, 75, 76, 77, 78, 79, 80, 81, 82, 83, 84, 85, 86, 87, 88, 89, 90, 91, 92, 93, 94, 95, 96, 97, 98, 99, 100, 101, 102, 103, 104, 105, 106, 107, 108, 109, 110, 111, 112, 113, 114, 115, 116, 117, 118, 119, 120, 121, 122, 123, 124, 125, 126, 127, 128, 129, 130, 131, 132, 133, 134, 135, 136, 137, 138, 139, 140, 141, 142, 143, 144, 145, 146, 147, 148, 149, 150, 151, 152, 153, 154, 155, 156, 157, 158, 159, 160, 161, 162, 163, 164, 165, 166, 167, 168, 169, 170, 171, 172, 173, 174, 175, 176, 177, 178, 179, 180, 181, 182, 183, 184, 185, 186, 187, 188, 189, 190, 191, 192, 193, 194, 195, 196, 197, 198, 199, 200],
      "LargestImagePixelValue": [2279, 2277, 2276, 2273, 2274, 2277, 2276, 2275, 2274, 2276, 2275, 2274, 2275, 2275, 2272, 2274, 2274, 2276, 2274, 2273, 2274, 2272, 2274, 2272, 2274, 2273, 2272, 2271, 2277, 2277, 2276, 2276, 2274, 2275, 2273, 2275, 2275, 2275, 2275, 2275, 2274, 2275, 2273, 2276, 2278, 2276, 2274, 2273, 2273, 2273, 2272, 2273, 2273, 2270, 2273, 2272, 2274, 2273, 2272, 2274, 2273, 2272, 2273, 2276, 2273, 2271, 2277, 2274, 2276, 2276, 2276, 2273, 2276, 2275, 2279, 2275, 2274, 2273, 2273, 2275, 2276, 2273, 2275, 2272, 2273, 2272, 2270, 2272, 2271, 2271, 2272, 2272, 2276, 2274, 2272, 2271, 2271, 2273, 2272, 2275, 2272, 2275, 2273, 2277, 2275, 2273, 2273, 2272, 2273, 2272, 2271, 2273, 2273, 2274, 2270, 2275, 2273, 2272, 2271, 2274, 2276, 2274, 2273, 2276, 2275, 2276, 2273, 2273, 2272, 2273, 2272, 2274, 2272, 2273, 2275, 2273, 2271, 2272, 2273, 2275, 2275, 2273, 2274, 2274, 2274, 2273, 2273, 2271, 2271, 2273, 2271, 2275, 2274, 2269, 2273, 2274, 2272, 2273, 2273, 2271, 2272, 2272, 2272, 2272, 2271, 2275, 2272, 2272, 2271, 2274, 2273, 2273, 2271, 2273, 2273, 2274, 2273, 2273, 2273, 2272, 2275, 2271, 2271, 2272, 2272, 2273, 2271, 2272, 2275, 2277, 2273, 2271, 2274, 2277, 2271, 2276, 2274, 2275, 2275, 2276],
      "WindowCenter": [1025.0, 1027.0, 1025.0, 1023.0, 1024.0, 1022.0, 1023.0, 1024.0, 1024.0, 1023.0, 1024.0, 1024.0, 1023.0, 1024.0, 1024.0, 1024.0, 1024.0, 1024.0, 1024.0, 1023.0, 1024.0, 1024.0, 1024.0, 1024.0, 1024.0, 1023.0, 1024.0, 1024.0, 1024.0, 1023.0, 1023.0, 1024.0, 1024.0, 1023.0, 1023.0, 1024.0, 1023.0, 1024.0, 1022.0, 1024.0, 1024.0, 1022.0, 1023.0, 1023.0, 1023.0, 1024.0, 1024.0, 1024.0, 1023.0, 1022.0, 1023.0, 1024.0, 1024.0, 1024.0, 1024.0, 1022.0, 1024.0, 1023.0, 1024.0, 1022.0, 1024.0, 1024.0, 1024.0, 1024.0, 1024.0, 1023.0, 1024.0, 1024.0, 1024.0, 1023.0, 1025.0, 1024.0, 1023.0, 1025.0, 1023.0, 1024.0, 1023.0, 1023.0, 1023.0, 1023.0, 1023.0, 1022.0, 1022.0, 1022.0, 1022.0, 1023.0, 1023.0, 1023.0, 1023.0, 1022.0, 1024.0, 1023.0, 1022.0, 1022.0, 1021.0, 1022.0, 1023.0, 1023.0, 1023.0, 1023.0, 1023.0, 1023.0, 1022.0, 1023.0, 1023.0, 1022.0, 1024.0, 1023.0, 1022.0, 1022.0, 1022.0, 1022.0, 1022.0, 1023.0, 1023.0, 1021.0, 1023.0, 1023.0, 1023.0, 1023.0, 1021.0, 1023.0, 1023.0, 1022.0, 1023.0, 1023.0, 1022.0, 1022.0, 1021.0, 1022.0, 1021.0, 1023.0, 1023.0, 1022.0, 1023.0, 1023.0, 1022.0, 1022.0, 1023.0, 1023.0, 1023.0, 1022.0, 1023.0, 1023.0, 1022.0, 1023.0, 1022.0, 1022.0, 1023.0, 1023.0, 1022.0, 1023.0, 1022.0, 1023.0, 1022.0, 1023.0, 1022.0, 1023.0, 1023.0, 1022.0, 1023.0, 1022.0, 1023.0, 1024.0, 1023.0, 1023.0, 1022.0, 1023.0, 1023.0, 1022.0, 1023.0, 1022.0, 1022.0, 1023.0, 1022.0, 1023.0, 1022.0, 1023.0, 1022.0, 1022.0, 1023.0, 1023.0, 1022.0, 1023.0, 1022.0, 1022.0, 1023.0, 1022.0, 1021.0, 1022.0, 1022.0, 1023.0, 1022.0, 1023.0, 1022.0, 1022.0, 1023.0, 1023.0, 1022.0, 1023.0],
      "WindowWidth": [2296.0, 2297.0, 2297.0, 2295.0, 2296.0, 2294.0, 2295.0, 2296.0, 2296.0, 2294.0, 2296.0, 2295.0, 2294.0, 2295.0, 2295.0, 2295.0, 2295.0, 2295.0, 2295.0, 2295.0, 2295.0, 2295.0, 2295.0, 2295.0, 2295.0, 2294.0, 2295.0, 2295.0, 2295.0, 2294.0, 2294.0, 2295.0, 2295.0, 2294.0, 2294.0, 2295.0, 2294.0, 2295.0, 2293.0, 2294.0, 2295.0, 2293.0, 2294.0, 2294.0, 2294.0, 2294.0, 2294.0, 2295.0, 2294.0, 2293.0, 2294.0, 2294.0, 2294.0, 2294.0, 2294.0, 2293.0, 2294.0, 2294.0, 2294.0, 2293.0, 2294.0, 2294.0, 2294.0, 2294.0, 2294.0, 2294.0, 2294.0, 2295.0, 2295.0, 2294.0, 2296.0, 2295.0, 2294.0, 2296.0, 2294.0, 2294.0, 2293.0, 2294.0, 2294.0, 2294.0, 2294.0, 2293.0, 2293.0, 2293.0, 2293.0, 2293.0, 2294.0, 2294.0, 2293.0, 2293.0, 2294.0, 2293.0, 2293.0, 2293.0, 2292.0, 2293.0, 2294.0, 2294.0, 2294.0, 2294.0, 2293.0, 2293.0, 2293.0, 2294.0, 2293.0, 2293.0, 2294.0, 2293.0, 2292.0, 2292.0, 2292.0, 2293.0, 2292.0, 2293.0, 2293.0, 2292.0, 2294.0, 2294.0, 2293.0, 2294.0, 2292.0, 2294.0, 2293.0, 2293.0, 2294.0, 2293.0, 2293.0, 2293.0, 2292.0, 2292.0, 2292.0, 2293.0, 2293.0, 2292.0, 2294.0, 2293.0, 2292.0, 2292.0, 2293.0, 2293.0, 2293.0, 2292.0, 2293.0, 2293.0, 2293.0, 2293.0, 2292.0, 2292.0, 2293.0, 2293.0, 2292.0, 2293.0, 2292.0, 2294.0, 2292.0, 2293.0, 2292.0, 2293.0, 2293.0, 2293.0, 2293.0, 2292.0, 2293.0, 2294.0, 2293.0, 2293.0, 2292.0, 2293.0, 2293.0, 2292.0, 2293.0, 2292.0, 2292.0, 2293.0, 2292.0, 2293.0, 2292.0, 2293.0, 2292.0, 2292.0, 2293.0, 2292.0, 2292.0, 2293.0, 2292.0, 2292.0, 2293.0, 2292.0, 2291.0, 2292.0, 2292.0, 2293.0, 2292.0, 2293.0, 2292.0, 2293.0, 2293.0, 2293.0, 2292.0, 2293.0]
    },
    "slices": {}
  }
}