{
  "AcquisitionMatrixPE": 80,
  "AcquisitionNumber": 1,
  "AcquisitionTime": "10:28:48.212500",
  "BandwidthPerPixelPhaseEncode": 44.643,
  "BaseResolution": 80,
  "BodyPartExamined": "BRAIN",
  "CoilCombinationMethod": "Sum of Squares",
  "ConsistencyInfo": "N4_VE11C_LATEST_20160120",
  "ConversionSoftware": "dcm2niix",
  "ConversionSoftwareVersion": "v1.0.20220720",
  "DerivedVendorReportedEchoSpacing": 0.000559998,
  "DeviceSerialNumber": "66112",
  "DwellTime": 2.7e-06,
  "EchoTime": 0.035,
  "EchoTrainLength": 39,
  "EffectiveEchoSpacing": 0.000279999,
  "FlipAngle": 90,
  "HeudiconvVersion": "0.13.1",
  "ImageOrientationPatientDICOM": [0.98795, 0.154668, 0.00567151, -0.148884, 0.939715, 0.307846],
  "ImageOrientationText": "Tra>Cor(17.8)>Sag(-2.4)",
  "ImageType": [
    "ORIGINAL",
    "PRIMARY",
    "M",
    "ND",
    "NORM",
    "MOSAIC"
],
  "ImagingFrequency": 123.252,
  "InPlanePhaseEncodingDirectionDICOM": "COL",
  "InstitutionAddress": "Maynard 3,Hanover,NH,US,03755",
  "InstitutionName": "Dartmouth College - PBS",
  "InstitutionalDepartmentName": "Department",
  "MRAcquisitionType": "2D",
  "MagneticFieldStrength": 3,
  "Manufacturer": "Siemens",
  "ManufacturersModelName": "Prisma",
  "Modality": "MR",
  "MultibandAccelerationFactor": 4,
  "NonlinearGradientCorrection": false,
  "ParallelReductionFactorInPlane": 2,
  "PartialFourier": 1,
  "PatientPosition": "HFS",
  "PercentPhaseFOV": 100,
  "PercentSampling": 100,
  "PhaseEncodingDirection": "j-",
  "PhaseEncodingSteps": 79,
  "PhaseResolution": 1,
  "PixelBandwidth": 2315,
  "ProcedureStepDescription": "dbic^QA",
  "ProtocolName": "func-bold_task-rest_acq-p2-s4-3.5mm",
  "PulseSequenceDetails": "%SiemensSeq%\\ep2d_bold",
  "ReceiveCoilActiveElements": "HEA;HEP",
  "ReceiveCoilName": "Head_32",
  "ReconMatrixPE": 80,
  "RefLinesPE": 24,
  "RepetitionTime": 2,
  "SAR": 0.0209616,
  "ScanOptions": "FS",
  "ScanningSequence": "EP",
  "SequenceName": "*epfid2d1_80",
  "SequenceVariant": "SK",
  "SeriesDescription": "func-bold_task-rest_acq-p2-s4-3.5mm",
  "SeriesNumber": 7,
  "ShimSetting": [4141, -7692, -7518, 244, -48, -48, -46, 87],
  "SliceThickness": 3.5,
  "SliceTiming": [1.485, 0, 0.99, 0.2475, 1.2375, 0.7425, 1.7325, 0.495, 1.485, 0, 0.99, 0.2475, 1.2375, 0.7425, 1.7325, 0.495, 1.485, 0, 0.99, 0.2475, 1.2375, 0.7425, 1.7325, 0.495, 1.485, 0, 0.99, 0.2475, 1.2375, 0.7425, 1.7325, 0.495],
  "SoftwareVersions": "syngo MR E11",
  "SpacingBetweenSlices": 3.99,
  "StationName": "AWP66112",
  "TaskName": "rest",
  "TotalReadoutTime": 0.0221199,
  "TxRefAmp": 221.679,
  "dcmmeta_affine": [
    [-2.963850498199463, -0.44665294885635376, -0.16871477663516998, 140.0447540283203],
    [-0.4640055000782013, 2.819145441055298, 1.2168720960617065, -114.17445373535156],
    [0.01701454073190689, -0.9235367178916931, 3.796163558959961, -22.63779640197754],
    [0.0, 0.0, 0.0, 1.0]
],
  "dcmmeta_reorient_transform": [
    [0.0, -1.0, 0.0, 79.0],
    [1.0, 0.0, 0.0, 0.0],
    [0.0, 0.0, 1.0, 0.0],
    [0.0, 0.0, 0.0, 1.0]
],
  "dcmmeta_shape": [80, 80, 32, 200],
  "dcmmeta_slice_dim": 2,
  "dcmmeta_version": 0.6,
  "global": {
    "const": {
      "AccessionNumber": "qa",
      "AcquisitionMatrix": [80, 0, 0, 80],
      "AngioFlag": "N",
      "BitsAllocated": 16,
      "BitsStored": 12,
      "BodyPartExamined": "BRAIN",
      "Columns": 480,
      "EchoNumbers": 1,
      "EchoTime": 35.0,
      "EchoTrainLength": 39,
      "FlipAngle": 90.0,
      "HighBit": 11,
      "ImageOrientationPatient": [0.98795014527021, 0.15466849839629, 0.00567151341412, -0.148884315547, 0.93971514781481, 0.30784558069182],
      "ImagePositionPatient": [-608.19867406543, -765.16822135048, -283.70745500359],
      "ImageType": [
        "ORIGINAL",
        "PRIMARY",
        "M",
        "ND",
        "NORM",
        "MOSAIC"
],
      "ImagedNucleus": "1H",
      "ImagingFrequency": 123.252351,
      "InPlanePhaseEncodingDirection": "COL",
      "MRAcquisitionType": "2D",
      "MagneticFieldStrength": 3.0,
      "Manufacturer": "SIEMENS",
      "ManufacturerModelName": "Prisma",
      "Modality": "MR",
      "NumberOfAverages": 1.0,
      "NumberOfPhaseEncodingSteps": 79,
      "PercentPhaseFieldOfView": 100.0,
      "PercentSampling": 100.0,
      "PerformedProcedureStepStartTime": "101559.488000",
      "PhotometricInterpretation": "MONOCHROME2",
      "PixelBandwidth": 2315.0,
      "PixelRepresentation": 0,
      "PixelSpacing": [3.0, 3.0],
      "ProtocolName": "func-bold_task-rest_acq-p2-s4-3.5mm",
      "RepetitionTime": 2000.0,
      "Rows": 480,
      "SAR": 0.02096162974559,
      "SamplesPerPixel": 1,
      "ScanOptions": "FS",
      "ScanningSequence": "EP",
      "SequenceName": "*epfid2d1_80",
      "SequenceVariant": "SK",
      "SeriesDescription": "func-bold_task-rest_acq-p2-s4-3.5mm",
      "SeriesNumber": 7,
      "SeriesTime": "102927.952000",
      "SliceLocation": -62.28072958547,
      "SliceThickness": 3.5,
      "SmallestImagePixelValue": 0,
      "SoftwareVersions": "syngo MR E11",
      "SpacingBetweenSlices": 3.9899999773188,
      "SpecificCharacterSet": "ISO_IR 100",
      "StudyID": "25",
      "StudyTime": "101559.434000",
      "TransmitCoilName": "Body",
      "VariableFlipAngleFlag": "N",
      "WindowCenter": 961.0,
      "WindowCenterWidthExplanation": "Algo1",
      "dBdt": 0.0},
    "slices": {}
  },
  "time": {
    "samples": {
      "AcquisitionNumber": [1, 2, 3, 4, 5, 6, 7, 8, 9, 10, 11, 12, 13, 14, 15, 16, 17, 18, 19, 20, 21, 22, 23, 24, 25, 26, 27, 28, 29, 30, 31, 32, 33, 34, 35, 36, 37, 38, 39, 40, 41, 42, 43, 44, 45, 46, 47, 48, 49, 50, 51, 52, 53, 54, 55, 56, 57, 58, 59, 60, 61, 62, 63, 64, 65, 66, 67, 68, 69, 70, 71, 72, 73, 74, 75, 76, 77, 78, 79, 80, 81, 82, 83, 84, 85, 86, 87, 88, 89, 90, 91, 92, 93, 94, 95, 96, 97, 98, 99, 100, 101, 102, 103, 104, 105, 106, 107, 108, 109, 110, 111, 112, 113, 114, 115, 116, 117, 118, 119, 120, 121, 122, 123, 124, 125, 126, 127, 128, 129, 130, 131, 132, 133, 134, 135, 136, 137, 138, 139, 140, 141, 142, 143, 144, 145, 146, 147, 148, 149, 150, 151, 152, 153, 154, 155, 156, 157, 158, 159, 160, 161, 162, 163, 164, 165, 166, 167, 168, 169, 170, 171, 172, 173, 174, 175, 176, 177, 178, 179, 180, 181, 182, 183, 184, 185, 186, 187, 188, 189, 190, 191, 192, 193, 194, 195, 196, 197, 198, 199, 200],
      "AcquisitionTime": ["102848.212500", "102850.212500", "102852.212500", "102854.212500", "102856.212500", "102858.212500", "102900.212500", "102902.212500", "102904.212500", "102906.212500", "102908.212500", "102910.212500", "102912.212500", "102914.212500", "102916.212500", "102918.212500", "102920.212500", "102922.212500", "102924.212500", "102926.212500", "102928.212500", "102930.212500", "102932.212500", "102934.212500", "102936.212500", "102938.212500", "102940.212500", "102942.212500", "102944.212500", "102946.212500", "102948.212500", "102950.212500", "102952.212500", "102954.212500", "102956.212500", "102958.212500", "103000.212500", "103002.212500", "103004.212500", "103006.212500", "103008.212500", "103010.212500", "103012.212500", "103014.212500", "103016.212500", "103018.212500", "103020.212500", "103022.212500", "103024.212500", "103026.212500", "103028.212500", "103030.212500", "103032.212500", "103034.212500", "103036.212500", "103038.212500", "103040.212500", "103042.212500", "103044.212500", "103046.212500", "103048.212500", "103050.212500", "103052.212500", "103054.212500", "103056.212500", "103058.212500", "103100.212500", "103102.212500", "103104.212500", "103106.212500", "103108.212500", "103110.212500", "103112.212500", "103114.212500", "103116.212500", "103118.212500", "103120.212500", "103122.212500", "103124.212500", "103126.212500", "103128.212500", "103130.212500", "103132.212500", "103134.212500", "103136.212500", "103138.212500", "103140.212500", "103142.212500", "103144.212500", "103146.212500", "103148.212500", "103150.212500", "103152.212500", "103154.212500", "103156.212500", "103158.212500", "103200.212500", "103202.212500", "103204.212500", "103206.212500", "103208.212500", "103210.212500", "103212.212500", "103214.212500", "103216.212500", "103218.212500", "103220.212500", "103222.212500", "103224.212500", "103226.212500", "103228.212500", "103230.212500", "103232.212500", "103234.212500", "103236.212500", "103238.212500", "103240.212500", "103242.212500", "103244.212500", "103246.212500", "103248.212500", "103250.212500", "103252.212500", "103254.212500", "103256.212500", "103258.212500", "103300.212500", "103302.212500", "103304.212500", "103306.212500", "103308.212500", "103310.212500", "103312.212500", "103314.212500", "103316.212500", "103318.212500", "103320.212500", "103322.212500", "103324.212500", "103326.212500", "103328.212500", "103330.212500", "103332.212500", "103334.212500", "103336.212500", "103338.212500", "103340.212500", "103342.212500", "103344.212500", "103346.212500", "103348.212500", "103350.212500", "103352.212500", "103354.212500", "103356.212500", "103358.212500", "103400.212500", "103402.212500", "103404.212500", "103406.212500", "103408.212500", "103410.212500", "103412.212500", "103414.212500", "103416.212500", "103418.212500", "103420.212500", "103422.212500", "103424.212500", "103426.212500", "103428.212500", "103430.212500", "103432.212500", "103434.212500", "103436.212500", "103438.212500", "103440.212500", "103442.212500", "103444.212500", "103446.212500", "103448.212500", "103450.212500", "103452.212500", "103454.212500", "103456.212500", "103458.212500", "103500.212500", "103502.212500", "103504.212500", "103506.212500", "103508.212500", "103510.212500", "103512.212500", "103514.212500", "103516.212500", "103518.212500", "103520.212500", "103522.212500", "103524.212500", "103526.212500"],
      "ContentTime": ["102927.955000", "102927.964000", "102927.967000", "102927.970000", "102927.973000", "102927.975000", "102927.978000", "102927.981000", "102927.983000", "102927.986000", "102927.989000", "102927.991000", "102927.994000", "102927.997000", "102928.005000", "102928.012000", "102928.015000", "102928.017000", "102928.020000", "102928.023000", "103007.950000", "103007.953000", "103007.956000", "103007.959000", "103007.961000", "103007.964000", "103007.967000", "103007.970000", "103007.973000", "103007.976000", "103007.978000", "103007.981000", "103007.984000", "103007.986000", "103007.989000", "103007.991000", "103007.994000", "103007.997000", "103008.000000", "103008.003000", "103047.949000", "103047.952000", "103047.970000", "103047.973000", "103047.976000", "103047.979000", "103047.981000", "103047.984000", "103047.986000", "103047.989000", "103047.991000", "103047.994000", "103047.997000", "103048.000000", "103048.003000", "103048.006000", "103048.008000", "103048.011000", "103048.013000", "103048.016000", "103127.950000", "103127.953000", "103127.956000", "103127.959000", "103127.961000", "103127.964000", "103127.967000", "103127.969000", "103127.972000", "103127.975000", "103127.977000", "103127.980000", "103127.983000", "103127.985000", "103127.988000", "103127.991000", "103127.993000", "103127.996000", "103127.998000", "103128.001000", "103147.951000", "103147.953000", "103147.956000", "103147.959000", "103147.961000", "103147.964000", "103147.967000", "103147.970000", "103147.972000", "103147.975000", "103227.950000", "103227.953000", "103227.956000", "103227.959000", "103227.961000", "103227.964000", "103227.967000", "103227.970000", "103227.973000", "103227.975000", "103227.978000", "103227.980000", "103227.983000", "103227.986000", "103227.988000", "103227.991000", "103227.994000", "103227.996000", "103228.000000", "103228.003000", "103307.950000", "103307.952000", "103307.955000", "103307.958000", "103307.960000", "103307.963000", "103307.966000", "103307.969000", "103307.971000", "103307.974000", "103307.976000", "103307.979000", "103307.982000", "103307.984000", "103307.987000", "103307.990000", "103307.992000", "103307.995000", "103307.998000", "103308.001000", "103347.951000", "103347.953000", "103347.956000", "103347.959000", "103347.961000", "103347.965000", "103347.967000", "103347.970000", "103347.973000", "103347.975000", "103347.978000", "103347.980000", "103347.983000", "103347.985000", "103347.988000", "103347.991000", "103347.994000", "103347.996000", "103347.999000", "103348.002000", "103427.950000", "103427.953000", "103427.956000", "103427.959000", "103427.961000", "103427.964000", "103427.967000", "103427.970000", "103427.973000", "103427.975000", "103427.978000", "103427.980000", "103427.983000", "103427.986000", "103427.988000", "103427.991000", "103427.993000", "103427.996000", "103428.000000", "103428.002000", "103507.950000", "103507.952000", "103507.955000", "103507.958000", "103507.961000", "103507.964000", "103507.966000", "103507.969000", "103507.972000", "103507.974000", "103507.977000", "103507.980000", "103507.982000", "103507.985000", "103507.987000", "103507.990000", "103507.993000", "103507.995000", "103507.998000", "103508.001000", "103526.950000", "103526.953000", "103526.956000", "103526.959000", "103526.962000", "103526.964000", "103526.967000", "103526.969000", "103526.972000", "103526.975000"],
      "InstanceCreationTime": ["102927.955000", "102927.964000", "102927.967000", "102927.970000", "102927.973000", "102927.975000", "102927.978000", "102927.981000", "102927.983000", "102927.986000", "102927.989000", "102927.991000", "102927.994000", "102927.997000", "102928.005000", "102928.012000", "102928.015000", "102928.017000", "102928.020000", "102928.023000", "103007.950000", "103007.953000", "103007.956000", "103007.959000", "103007.961000", "103007.964000", "103007.967000", "103007.970000", "103007.973000", "103007.976000", "103007.978000", "103007.981000", "103007.984000", "103007.986000", "103007.989000", "103007.991000", "103007.994000", "103007.997000", "103008.000000", "103008.003000", "103047.949000", "103047.952000", "103047.970000", "103047.973000", "103047.976000", "103047.979000", "103047.981000", "103047.984000", "103047.986000", "103047.989000", "103047.991000", "103047.994000", "103047.997000", "103048.000000", "103048.003000", "103048.006000", "103048.008000", "103048.011000", "103048.013000", "103048.016000", "103127.950000", "103127.953000", "103127.956000", "103127.959000", "103127.961000", "103127.964000", "103127.967000", "103127.969000", "103127.972000", "103127.975000", "103127.977000", "103127.980000", "103127.983000", "103127.985000", "103127.988000", "103127.991000", "103127.993000", "103127.996000", "103127.998000", "103128.001000", "103147.951000", "103147.953000", "103147.956000", "103147.959000", "103147.961000", "103147.964000", "103147.967000", "103147.970000", "103147.972000", "103147.975000", "103227.950000", "103227.953000", "103227.956000", "103227.959000", "103227.961000", "103227.964000", "103227.967000", "103227.970000", "103227.973000", "103227.975000", "103227.978000", "103227.980000", "103227.983000", "103227.986000", "103227.988000", "103227.991000", "103227.994000", "103227.996000", "103228.000000", "103228.003000", "103307.950000", "103307.952000", "103307.955000", "103307.958000", "103307.960000", "103307.963000", "103307.966000", "103307.969000", "103307.971000", "103307.974000", "103307.976000", "103307.979000", "103307.982000", "103307.984000", "103307.987000", "103307.990000", "103307.992000", "103307.995000", "103307.998000", "103308.001000", "103347.951000", "103347.953000", "103347.956000", "103347.959000", "103347.961000", "103347.965000", "103347.967000", "103347.970000", "103347.973000", "103347.975000", "103347.978000", "103347.980000", "103347.983000", "103347.985000", "103347.988000", "103347.991000", "103347.994000", "103347.996000", "103347.999000", "103348.002000", "103427.950000", "103427.953000", "103427.956000", "103427.959000", "103427.961000", "103427.964000", "103427.967000", "103427.970000", "103427.973000", "103427.975000", "103427.978000", "103427.980000", "103427.983000", "103427.986000", "103427.988000", "103427.991000", "103427.993000", "103427.996000", "103428.000000", "103428.002000", "103507.950000", "103507.952000", "103507.955000", "103507.958000", "103507.961000", "103507.964000", "103507.966000", "103507.969000", "103507.972000", "103507.974000", "103507.977000", "103507.980000", "103507.982000", "103507.985000", "103507.987000", "103507.990000", "103507.993000", "103507.995000", "103507.998000", "103508.001000", "103526.950000", "103526.953000", "103526.956000", "103526.959000", "103526.962000", "103526.964000", "103526.967000", "103526.969000", "103526.972000", "103526.975000"],
      "InstanceNumber": [1, 2, 3, 4, 5, 6, 7, 8, 9, 10, 11, 12, 13, 14, 15, 16, 17, 18, 19, 20, 21, 22, 23, 24, 25, 26, 27, 28, 29, 30, 31, 32, 33, 34, 35, 36, 37, 38, 39, 40, 41, 42, 43, 44, 45, 46, 47, 48, 49, 50, 51, 52, 53, 54, 55, 56, 57, 58, 59, 60, 61, 62, 63, 64, 65, 66, 67, 68, 69, 70, 71, 72, 73, 74, 75, 76, 77, 78, 79, 80, 81, 82, 83, 84, 85, 86, 87, 88, 89, 90, 91, 92, 93, 94, 95, 96, 97, 98, 99, 100, 101, 102, 103, 104, 105, 106, 107, 108, 109, 110, 111, 112, 113, 114, 115, 116, 117, 118, 119, 120, 121, 122, 123, 124, 125, 126, 127, 128, 129, 130, 131, 132, 133, 134, 135, 136, 137, 138, 139, 140, 141, 142, 143, 144, 145, 146, 147, 148, 149, 150, 151, 152, 153, 154, 155, 156, 157, 158, 159, 160, 161, 162, 163, 164, 165, 166, 167, 168, 169, 170, 171, 172, 173, 174, 175, 176, 177, 178, 179, 180, 181, 182, 183, 184, 185, 186, 187, 188, 189, 190, 191, 192, 193, 194, 195, 196, 197, 198, 199, 200],
      "LargestImagePixelValue": [2235, 2236, 2234, 2234, 2234, 2233, 2230, 2239, 2240, 2235, 2240, 2236, 2234, 2237, 2239, 2239, 2237, 2230, 2235, 2239, 2237, 2240, 2234, 2233, 2239, 2238, 2242, 2238, 2231, 2234, 2239, 2237, 2235, 2238, 2239, 2236, 2241, 2234, 2238, 2245, 2239, 2239, 2232, 2241, 2244, 2239, 2238, 2237, 2240, 2237, 2239, 2242, 2241, 2241, 2243, 2237, 2236, 2238, 2242, 2236, 2239, 2239, 2240, 2239, 2242, 2242, 2236, 2235, 2238, 2238, 2241, 2236, 2236, 2241, 2237, 2243, 2241, 2232, 2236, 2238, 2235, 2233, 2240, 2239, 2239, 2240, 2237, 2240, 2241, 2242, 2244, 2242, 2240, 2239, 2237, 2236, 2237, 2233, 2236, 2237, 2240, 2240, 2240, 2235, 2239, 2235, 2238, 2237, 2241, 2244, 2242, 2242, 2239, 2239, 2241, 2238, 2237, 2238, 2238, 2242, 2240, 2241, 2242, 2241, 2240, 2236, 2239, 2239, 2235, 2236, 2239, 2240, 2238, 2237, 2239, 2242, 2243, 2243, 2237, 2240, 2236, 2242, 2237, 2237, 2237, 2239, 2240, 2242, 2239, 2237, 2244, 2245, 2238, 2241, 2238, 2241, 2239, 2243, 2240, 2241, 2243, 2236, 2240, 2241, 2238, 2247, 2241, 2239, 2242, 2240, 2242, 2238, 2240, 2235, 2240, 2241, 2239, 2238, 2242, 2238, 2235, 2236, 2238, 2238, 2240, 2247, 2243, 2238, 2243, 2238, 2243, 2237, 2245, 2241, 2240, 2240, 2241, 2238, 2243, 2241],
      "WindowWidth": [2255.0, 2254.0, 2254.0, 2254.0, 2254.0, 2254.0, 2254.0, 2254.0, 2254.0, 2254.0, 2255.0, 2255.0, 2254.0, 2255.0, 2255.0, 2255.0, 2255.0, 2255.0, 2255.0, 2255.0, 2255.0, 2255.0, 2255.0, 2254.0, 2255.0, 2255.0, 2255.0, 2255.0, 2255.0, 2254.0, 2255.0, 2254.0, 2255.0, 2254.0, 2255.0, 2254.0, 2255.0, 2255.0, 2254.0, 2255.0, 2255.0, 2255.0, 2255.0, 2255.0, 2255.0, 2255.0, 2255.0, 2255.0, 2255.0, 2255.0, 2254.0, 2254.0, 2255.0, 2254.0, 2254.0, 2255.0, 2255.0, 2254.0, 2255.0, 2255.0, 2255.0, 2255.0, 2255.0, 2255.0, 2255.0, 2255.0, 2255.0, 2255.0, 2255.0, 2255.0, 2255.0, 2255.0, 2255.0, 2254.0, 2255.0, 2255.0, 2255.0, 2254.0, 2254.0, 2254.0, 2254.0, 2255.0, 2255.0, 2255.0, 2255.0, 2255.0, 2255.0, 2255.0, 2255.0, 2255.0, 2255.0, 2255.0, 2255.0, 2254.0, 2255.0, 2255.0, 2255.0, 2255.0, 2255.0, 2255.0, 2255.0, 2255.0, 2255.0, 2255.0, 2255.0, 2254.0, 2255.0, 2255.0, 2254.0, 2255.0, 2255.0, 2255.0, 2255.0, 2254.0, 2254.0, 2254.0, 2255.0, 2254.0, 2255.0, 2254.0, 2254.0, 2254.0, 2255.0, 2255.0, 2255.0, 2255.0, 2255.0, 2255.0, 2254.0, 2254.0, 2254.0, 2254.0, 2255.0, 2254.0, 2254.0, 2254.0, 2254.0, 2254.0, 2255.0, 2255.0, 2254.0, 2254.0, 2254.0, 2254.0, 2254.0, 2255.0, 2254.0, 2255.0, 2254.0, 2254.0, 2254.0, 2254.0, 2254.0, 2254.0, 2254.0, 2254.0, 2254.0, 2254.0, 2254.0, 2254.0, 2254.0, 2254.0, 2254.0, 2254.0, 2254.0, 2254.0, 2254.0, 2254.0, 2254.0, 2254.0, 2254.0, 2253.0, 2254.0, 2254.0, 2254.0, 2254.0, 2254.0, 2253.0, 2254.0, 2253.0, 2254.0, 2254.0, 2253.0, 2253.0, 2254.0, 2254.0, 2254.0, 2254.0, 2254.0, 2254.0, 2254.0, 2254.0, 2253.0, 2253.0, 2254.0, 2254.0, 2254.0, 2254.0, 2254.0, 2254.0]
    },
    "slices": {}
  }
}