{
  "AcquisitionMatrixPE": 80,
  "AcquisitionNumber": 1,
  "AcquisitionTime": "09:35:44.070000",
  "BandwidthPerPixelPhaseEncode": 46.296,
  "BaseResolution": 80,
  "BodyPartExamined": "BRAIN",
  "CoilCombinationMethod": "Sum of Squares",
  "ConsistencyInfo": "N4_VE11E_LATEST_20181129",
  "ConversionSoftware": "dcm2niix",
  "ConversionSoftwareVersion": "v1.0.20220720",
  "DerivedVendorReportedEchoSpacing": 0.000540003,
  "DeviceSerialNumber": "66112",
  "DwellTime": 2.7e-06,
  "EchoTime": 0.035,
  "EchoTrainLength": 39,
  "EffectiveEchoSpacing": 0.000270002,
  "FlipAngle": 90,
  "HeudiconvVersion": "0.13.1",
  "ImageOrientationPatientDICOM": [0.988381, 0.151984, 0.00201656, -0.145246, 0.94049, 0.307218],
  "ImageOrientationText": "Tra>Cor(17.7)>Sag(-2.6)",
  "ImageType": [
    "ORIGINAL",
    "PRIMARY",
    "M",
    "ND",
    "NORM",
    "MOSAIC"
],
  "ImagingFrequency": 123.261,
  "InPlanePhaseEncodingDirectionDICOM": "COL",
  "InstitutionAddress": "Maynard 3,Hanover,NH,US,03755",
  "InstitutionName": "Dartmouth College - PBS",
  "InstitutionalDepartmentName": "Department",
  "MRAcquisitionType": "2D",
  "MagneticFieldStrength": 3,
  "Manufacturer": "Siemens",
  "ManufacturersModelName": "Prisma",
  "Modality": "MR",
  "MultibandAccelerationFactor": 4,
  "NonlinearGradientCorrection": false,
  "ParallelReductionFactorInPlane": 2,
  "PartialFourier": 1,
  "PatientPosition": "HFS",
  "PercentPhaseFOV": 100,
  "PercentSampling": 100,
  "PhaseEncodingDirection": "j-",
  "PhaseEncodingSteps": 79,
  "PhaseResolution": 1,
  "PixelBandwidth": 2315,
  "ProcedureStepDescription": "dbic^QA",
  "ProtocolName": "func-bold_task-rest_acq-p2-s4-3.5mm",
  "PulseSequenceDetails": "%SiemensSeq%\\ep2d_bold",
  "ReceiveCoilActiveElements": "HEA;HEP",
  "ReceiveCoilName": "Head_32",
  "ReconMatrixPE": 80,
  "RefLinesPE": 24,
  "RepetitionTime": 2,
  "SAR": 0.0176216,
  "ScanOptions": "FS",
  "ScanningSequence": "EP",
  "SequenceName": "*epfid2d1_80",
  "SequenceVariant": "SK",
  "SeriesDescription": "func-bold_task-rest_acq-p2-s4-3.5mm",
  "SeriesNumber": 6,
  "ShimSetting": [4250, -7724, -7502, -83, -152, -51, -38, 96],
  "SliceThickness": 3.5,
  "SliceTiming": [1.485, 0, 0.99, 0.2475, 1.2375, 0.7425, 1.7325, 0.495, 1.485, 0, 0.99, 0.2475, 1.2375, 0.7425, 1.7325, 0.495, 1.485, 0, 0.99, 0.2475, 1.2375, 0.7425, 1.7325, 0.495, 1.485, 0, 0.99, 0.2475, 1.2375, 0.7425, 1.7325, 0.495],
  "SoftwareVersions": "syngo MR E11",
  "SpacingBetweenSlices": 3.99,
  "StationName": "AWP66112",
  "TaskName": "rest",
  "TotalReadoutTime": 0.0213301,
  "TxRefAmp": 218.232,
  "dcmmeta_affine": [
    [-2.9651427268981934, -0.43573927879333496, -0.17873448133468628, 138.55751037597656],
    [-0.4559516906738281, 2.8214688301086426, 1.212725043296814, -103.0234146118164],
    [0.006049669347703457, -0.9216533899307251, 3.797032117843628, -24.484512329101562],
    [0.0, 0.0, 0.0, 1.0]
],
  "dcmmeta_reorient_transform": [
    [0.0, -1.0, 0.0, 79.0],
    [1.0, 0.0, 0.0, 0.0],
    [0.0, 0.0, 1.0, 0.0],
    [0.0, 0.0, 0.0, 1.0]
],
  "dcmmeta_shape": [80, 80, 32, 200],
  "dcmmeta_slice_dim": 2,
  "dcmmeta_version": 0.6,
  "global": {
    "const": {
      "AccessionNumber": "qa",
      "AcquisitionMatrix": [80, 0, 0, 80],
      "AngioFlag": "N",
      "BitsAllocated": 16,
      "BitsStored": 12,
      "BodyPartExamined": "BRAIN",
      "Columns": 480,
      "EchoNumbers": 1,
      "EchoTime": 35.0,
      "EchoTrainLength": 39,
      "FlipAngle": 90.0,
      "HighBit": 11,
      "ImageOrientationPatient": [0.98838091254019, 0.15198389791843, 0.00201655640758, -0.1452464291324, 0.94048960515649, 0.30721780126951],
      "ImagePositionPatient": [-610.01480248749, -775.35672196522, -282.83574543156],
      "ImageType": [
        "ORIGINAL",
        "PRIMARY",
        "M",
        "ND",
        "NORM",
        "MOSAIC"
],
      "ImagedNucleus": "1H",
      "ImagingFrequency": 123.261224,
      "InPlanePhaseEncodingDirection": "COL",
      "MRAcquisitionType": "2D",
      "MagneticFieldStrength": 3.0,
      "Manufacturer": "SIEMENS",
      "ManufacturerModelName": "Prisma",
      "Modality": "MR",
      "NumberOfAverages": 1.0,
      "NumberOfPhaseEncodingSteps": 79,
      "PercentPhaseFieldOfView": 100.0,
      "PercentSampling": 100.0,
      "PerformedProcedureStepStartTime": "092717.317000",
      "PhotometricInterpretation": "MONOCHROME2",
      "PixelBandwidth": 2315.0,
      "PixelRepresentation": 0,
      "PixelSpacing": [3.0, 3.0],
      "ProtocolName": "func-bold_task-rest_acq-p2-s4-3.5mm",
      "RepetitionTime": 2000.0,
      "Rows": 480,
      "SAR": 0.01762159623994,
      "SamplesPerPixel": 1,
      "ScanOptions": "FS",
      "ScanningSequence": "EP",
      "SequenceName": "*epfid2d1_80",
      "SequenceVariant": "SK",
      "SeriesDescription": "func-bold_task-rest_acq-p2-s4-3.5mm",
      "SeriesNumber": 6,
      "SeriesTime": "093630.649000",
      "SliceLocation": -60.820189345696,
      "SliceThickness": 3.5,
      "SmallestImagePixelValue": 0,
      "SoftwareVersions": "syngo MR E11",
      "SpacingBetweenSlices": 3.9900000355621,
      "SpecificCharacterSet": "ISO_IR 100",
      "StudyID": "49",
      "StudyTime": "092717.254000",
      "TransmitCoilName": "Body",
      "VariableFlipAngleFlag": "N",
      "WindowCenterWidthExplanation": "Algo1"
    },
    "slices": {}
  },
  "time": {
    "samples": {
      "AcquisitionNumber": [1, 2, 3, 4, 5, 6, 7, 8, 9, 10, 11, 12, 13, 14, 15, 16, 17, 18, 19, 20, 21, 22, 23, 24, 25, 26, 27, 28, 29, 30, 31, 32, 33, 34, 35, 36, 37, 38, 39, 40, 41, 42, 43, 44, 45, 46, 47, 48, 49, 50, 51, 52, 53, 54, 55, 56, 57, 58, 59, 60, 61, 62, 63, 64, 65, 66, 67, 68, 69, 70, 71, 72, 73, 74, 75, 76, 77, 78, 79, 80, 81, 82, 83, 84, 85, 86, 87, 88, 89, 90, 91, 92, 93, 94, 95, 96, 97, 98, 99, 100, 101, 102, 103, 104, 105, 106, 107, 108, 109, 110, 111, 112, 113, 114, 115, 116, 117, 118, 119, 120, 121, 122, 123, 124, 125, 126, 127, 128, 129, 130, 131, 132, 133, 134, 135, 136, 137, 138, 139, 140, 141, 142, 143, 144, 145, 146, 147, 148, 149, 150, 151, 152, 153, 154, 155, 156, 157, 158, 159, 160, 161, 162, 163, 164, 165, 166, 167, 168, 169, 170, 171, 172, 173, 174, 175, 176, 177, 178, 179, 180, 181, 182, 183, 184, 185, 186, 187, 188, 189, 190, 191, 192, 193, 194, 195, 196, 197, 198, 199, 200],
      "AcquisitionTime": ["093544.070000", "093546.070000", "093548.070000", "093550.070000", "093552.070000", "093554.070000", "093556.070000", "093558.070000", "093600.070000", "093602.070000", "093604.070000", "093606.070000", "093608.070000", "093610.070000", "093612.070000", "093614.070000", "093616.070000", "093618.070000", "093620.070000", "093622.070000", "093624.070000", "093626.070000", "093628.070000", "093630.070000", "093632.070000", "093634.070000", "093636.070000", "093638.070000", "093640.070000", "093642.070000", "093644.070000", "093646.070000", "093648.070000", "093650.070000", "093652.070000", "093654.070000", "093656.070000", "093658.070000", "093700.070000", "093702.070000", "093704.070000", "093706.070000", "093708.070000", "093710.070000", "093712.070000", "093714.070000", "093716.070000", "093718.070000", "093720.070000", "093722.070000", "093724.070000", "093726.070000", "093728.070000", "093730.070000", "093732.070000", "093734.070000", "093736.070000", "093738.070000", "093740.070000", "093742.070000", "093744.070000", "093746.070000", "093748.070000", "093750.070000", "093752.070000", "093754.070000", "093756.070000", "093758.070000", "093800.070000", "093802.070000", "093804.070000", "093806.070000", "093808.070000", "093810.070000", "093812.070000", "093814.070000", "093816.070000", "093818.070000", "093820.070000", "093822.070000", "093824.070000", "093826.070000", "093828.070000", "093830.070000", "093832.070000", "093834.070000", "093836.070000", "093838.070000", "093840.070000", "093842.070000", "093844.070000", "093846.070000", "093848.070000", "093850.070000", "093852.070000", "093854.070000", "093856.070000", "093858.070000", "093900.070000", "093902.070000", "093904.070000", "093906.070000", "093908.070000", "093910.070000", "093912.070000", "093914.070000", "093916.070000", "093918.070000", "093920.070000", "093922.070000", "093924.070000", "093926.070000", "093928.070000", "093930.070000", "093932.070000", "093934.070000", "093936.070000", "093938.070000", "093940.070000", "093942.070000", "093944.070000", "093946.070000", "093948.070000", "093950.070000", "093952.070000", "093954.070000", "093956.070000", "093958.070000", "094000.070000", "094002.070000", "094004.070000", "094006.070000", "094008.070000", "094010.070000", "094012.070000", "094014.070000", "094016.070000", "094018.070000", "094020.070000", "094022.070000", "094024.070000", "094026.070000", "094028.070000", "094030.070000", "094032.070000", "094034.070000", "094036.070000", "094038.070000", "094040.070000", "094042.070000", "094044.070000", "094046.070000", "094048.070000", "094050.070000", "094052.070000", "094054.070000", "094056.070000", "094058.070000", "094100.070000", "094102.070000", "094104.070000", "094106.070000", "094108.070000", "094110.070000", "094112.070000", "094114.070000", "094116.070000", "094118.070000", "094120.070000", "094122.070000", "094124.070000", "094126.070000", "094128.070000", "094130.070000", "094132.070000", "094134.070000", "094136.070000", "094138.070000", "094140.070000", "094142.070000", "094144.070000", "094146.070000", "094148.070000", "094150.070000", "094152.070000", "094154.070000", "094156.070000", "094158.070000", "094200.070000", "094202.070000", "094204.070000", "094206.070000", "094208.070000", "094210.070000", "094212.070000", "094214.070000", "094216.070000", "094218.070000", "094220.070000", "094222.070000"],
      "ContentTime": ["093630.652000", "093630.655000", "093630.658000", "093630.660000", "093630.662000", "093630.699000", "093630.701000", "093630.735000", "093630.738000", "093630.740000", "093630.742000", "093630.745000", "093630.747000", "093630.750000", "093630.752000", "093630.754000", "093630.757000", "093630.759000", "093630.761000", "093630.764000", "093630.766000", "093630.768000", "093630.771000", "093710.647000", "093710.650000", "093710.652000", "093710.654000", "093710.657000", "093710.659000", "093710.661000", "093710.664000", "093710.666000", "093710.668000", "093710.671000", "093710.673000", "093710.681000", "093710.683000", "093710.686000", "093710.688000", "093710.690000", "093710.693000", "093710.695000", "093710.697000", "093750.648000", "093750.651000", "093750.653000", "093750.655000", "093750.658000", "093750.660000", "093750.662000", "093750.664000", "093750.667000", "093750.669000", "093750.671000", "093750.674000", "093750.676000", "093750.678000", "093750.681000", "093750.683000", "093750.685000", "093750.688000", "093750.690000", "093750.692000", "093830.648000", "093830.651000", "093830.653000", "093830.655000", "093830.658000", "093830.660000", "093830.662000", "093830.665000", "093830.667000", "093830.669000", "093830.672000", "093830.674000", "093830.676000", "093830.689000", "093830.692000", "093830.694000", "093830.696000", "093830.699000", "093830.701000", "093830.704000", "093910.647000", "093910.650000", "093910.652000", "093910.654000", "093910.657000", "093910.659000", "093910.662000", "093910.664000", "093910.677000", "093910.679000", "093910.681000", "093910.684000", "093910.686000", "093910.688000", "093910.691000", "093910.693000", "093910.695000", "093910.697000", "093910.700000", "093910.702000", "093950.648000", "093950.651000", "093950.653000", "093950.655000", "093950.658000", "093950.660000", "093950.663000", "093950.665000", "093950.667000", "093950.670000", "093950.672000", "093950.674000", "093950.677000", "093950.679000", "093950.681000", "093950.684000", "093950.686000", "093950.688000", "093950.691000", "093950.693000", "094030.648000", "094030.651000", "094030.653000", "094030.655000", "094030.658000", "094030.660000", "094030.663000", "094030.665000", "094030.667000", "094030.669000", "094030.672000", "094030.674000", "094030.676000", "094030.679000", "094030.681000", "094030.683000", "094030.686000", "094030.688000", "094030.691000", "094030.693000", "094110.647000", "094110.650000", "094110.652000", "094110.655000", "094110.657000", "094110.659000", "094110.662000", "094110.664000", "094110.666000", "094110.669000", "094110.671000", "094110.673000", "094110.676000", "094110.678000", "094110.680000", "094110.682000", "094110.685000", "094110.687000", "094110.689000", "094110.692000", "094150.648000", "094150.661000", "094150.663000", "094150.666000", "094150.668000", "094150.671000", "094150.673000", "094150.675000", "094150.678000", "094150.680000", "094150.683000", "094150.685000", "094150.687000", "094150.690000", "094150.692000", "094150.699000", "094150.701000", "094150.704000", "094150.706000", "094150.708000", "094223.234000", "094223.236000", "094223.239000", "094223.241000", "094223.243000", "094223.246000", "094223.248000", "094223.251000", "094223.253000", "094223.256000", "094223.258000", "094223.260000", "094223.263000", "094223.265000", "094223.268000", "094223.271000", "094223.274000"],
      "InstanceCreationTime": ["093630.652000", "093630.655000", "093630.658000", "093630.660000", "093630.662000", "093630.699000", "093630.701000", "093630.735000", "093630.738000", "093630.740000", "093630.742000", "093630.745000", "093630.747000", "093630.750000", "093630.752000", "093630.754000", "093630.757000", "093630.759000", "093630.761000", "093630.764000", "093630.766000", "093630.768000", "093630.771000", "093710.647000", "093710.650000", "093710.652000", "093710.654000", "093710.657000", "093710.659000", "093710.661000", "093710.664000", "093710.666000", "093710.668000", "093710.671000", "093710.673000", "093710.681000", "093710.683000", "093710.686000", "093710.688000", "093710.690000", "093710.693000", "093710.695000", "093710.697000", "093750.648000", "093750.651000", "093750.653000", "093750.655000", "093750.658000", "093750.660000", "093750.662000", "093750.664000", "093750.667000", "093750.669000", "093750.671000", "093750.674000", "093750.676000", "093750.678000", "093750.681000", "093750.683000", "093750.685000", "093750.688000", "093750.690000", "093750.692000", "093830.648000", "093830.651000", "093830.653000", "093830.655000", "093830.658000", "093830.660000", "093830.662000", "093830.665000", "093830.667000", "093830.669000", "093830.672000", "093830.674000", "093830.676000", "093830.689000", "093830.692000", "093830.694000", "093830.696000", "093830.699000", "093830.701000", "093830.704000", "093910.647000", "093910.650000", "093910.652000", "093910.654000", "093910.657000", "093910.659000", "093910.662000", "093910.664000", "093910.677000", "093910.679000", "093910.681000", "093910.684000", "093910.686000", "093910.688000", "093910.691000", "093910.693000", "093910.695000", "093910.697000", "093910.700000", "093910.702000", "093950.648000", "093950.651000", "093950.653000", "093950.655000", "093950.658000", "093950.660000", "093950.663000", "093950.665000", "093950.667000", "093950.670000", "093950.672000", "093950.674000", "093950.677000", "093950.679000", "093950.681000", "093950.684000", "093950.686000", "093950.688000", "093950.691000", "093950.693000", "094030.648000", "094030.651000", "094030.653000", "094030.655000", "094030.658000", "094030.660000", "094030.663000", "094030.665000", "094030.667000", "094030.669000", "094030.672000", "094030.674000", "094030.676000", "094030.679000", "094030.681000", "094030.683000", "094030.686000", "094030.688000", "094030.691000", "094030.693000", "094110.647000", "094110.650000", "094110.652000", "094110.655000", "094110.657000", "094110.659000", "094110.662000", "094110.664000", "094110.666000", "094110.669000", "094110.671000", "094110.673000", "094110.676000", "094110.678000", "094110.680000", "094110.682000", "094110.685000", "094110.687000", "094110.689000", "094110.692000", "094150.648000", "094150.661000", "094150.663000", "094150.666000", "094150.668000", "094150.671000", "094150.673000", "094150.675000", "094150.678000", "094150.680000", "094150.683000", "094150.685000", "094150.687000", "094150.690000", "094150.692000", "094150.699000", "094150.701000", "094150.704000", "094150.706000", "094150.708000", "094223.234000", "094223.236000", "094223.239000", "094223.241000", "094223.243000", "094223.246000", "094223.248000", "094223.251000", "094223.253000", "094223.256000", "094223.258000", "094223.260000", "094223.263000", "094223.265000", "094223.268000", "094223.271000", "094223.274000"],
      "InstanceNumber": [1, 2, 3, 4, 5, 6, 7, 8, 9, 10, 11, 12, 13, 14, 15, 16, 17, 18, 19, 20, 21, 22, 23, 24, 25, 26, 27, 28, 29, 30, 31, 32, 33, 34, 35, 36, 37, 38, 39, 40, 41, 42, 43, 44, 45, 46, 47, 48, 49, 50, 51, 52, 53, 54, 55, 56, 57, 58, 59, 60, 61, 62, 63, 64, 65, 66, 67, 68, 69, 70, 71, 72, 73, 74, 75, 76, 77, 78, 79, 80, 81, 82, 83, 84, 85, 86, 87, 88, 89, 90, 91, 92, 93, 94, 95, 96, 97, 98, 99, 100, 101, 102, 103, 104, 105, 106, 107, 108, 109, 110, 111, 112, 113, 114, 115, 116, 117, 118, 119, 120, 121, 122, 123, 124, 125, 126, 127, 128, 129, 130, 131, 132, 133, 134, 135, 136, 137, 138, 139, 140, 141, 142, 143, 144, 145, 146, 147, 148, 149, 150, 151, 152, 153, 154, 155, 156, 157, 158, 159, 160, 161, 162, 163, 164, 165, 166, 167, 168, 169, 170, 171, 172, 173, 174, 175, 176, 177, 178, 179, 180, 181, 182, 183, 184, 185, 186, 187, 188, 189, 190, 191, 192, 193, 194, 195, 196, 197, 198, 199, 200],
      "LargestImagePixelValue": [2226, 2229, 2224, 2225, 2227, 2226, 2221, 2228, 2222, 2224, 2224, 2225, 2228, 2223, 2223, 2224, 2224, 2225, 2223, 2223, 2223, 2225, 2224, 2226, 2223, 2222, 2223, 2223, 2224, 2222, 2228, 2225, 2226, 2227, 2226, 2228, 2223, 2225, 2222, 2224, 2224, 2223, 2225, 2226, 2230, 2225, 2227, 2228, 2225, 2230, 2224, 2224, 2225, 2222, 2221, 2224, 2223, 2222, 2222, 2223, 2221, 2225, 2223, 2223, 2223, 2224, 2224, 2224, 2223, 2225, 2221, 2228, 2223, 2223, 2224, 2223, 2225, 2223, 2226, 2226, 2226, 2223, 2226, 2225, 2221, 2220, 2227, 2224, 2222, 2225, 2225, 2220, 2223, 2219, 2221, 2219, 2222, 2224, 2222, 2224, 2227, 2221, 2224, 2225, 2222, 2220, 2224, 2223, 2222, 2223, 2225, 2223, 2224, 2228, 2223, 2221, 2220, 2223, 2220, 2220, 2222, 2219, 2220, 2222, 2220, 2220, 2220, 2223, 2223, 2223, 2223, 2223, 2223, 2223, 2224, 2221, 2224, 2218, 2220, 2221, 2221, 2222, 2221, 2220, 2224, 2219, 2222, 2220, 2221, 2220, 2220, 2227, 2221, 2222, 2222, 2221, 2221, 2225, 2222, 2221, 2221, 2219, 2221, 2222, 2220, 2228, 2222, 2224, 2222, 2221, 2221, 2221, 2222, 2222, 2223, 2222, 2220, 2219, 2222, 2220, 2222, 2221, 2225, 2221, 2225, 2222, 2222, 2221, 2224, 2217, 2222, 2225, 2220, 2220, 2221, 2222, 2222, 2222, 2221, 2219],
      "WindowCenter": [968.0, 968.0, 968.0, 969.0, 968.0, 968.0, 968.0, 968.0, 968.0, 969.0, 968.0, 967.0, 968.0, 968.0, 968.0, 968.0, 968.0, 968.0, 968.0, 968.0, 968.0, 968.0, 968.0, 968.0, 968.0, 968.0, 968.0, 968.0, 968.0, 968.0, 968.0, 968.0, 967.0, 968.0, 968.0, 968.0, 968.0, 968.0, 967.0, 968.0, 968.0, 968.0, 968.0, 968.0, 968.0, 967.0, 967.0, 968.0, 968.0, 968.0, 967.0, 968.0, 968.0, 968.0, 968.0, 967.0, 967.0, 967.0, 967.0, 967.0, 968.0, 967.0, 968.0, 968.0, 967.0, 967.0, 967.0, 967.0, 968.0, 968.0, 968.0, 967.0, 968.0, 967.0, 968.0, 968.0, 968.0, 968.0, 967.0, 967.0, 968.0, 968.0, 968.0, 968.0, 968.0, 967.0, 967.0, 968.0, 968.0, 968.0, 968.0, 968.0, 967.0, 968.0, 968.0, 967.0, 968.0, 968.0, 968.0, 968.0, 968.0, 968.0, 968.0, 967.0, 968.0, 968.0, 968.0, 967.0, 967.0, 967.0, 968.0, 968.0, 969.0, 968.0, 967.0, 967.0, 968.0, 968.0, 967.0, 967.0, 968.0, 967.0, 967.0, 967.0, 968.0, 968.0, 968.0, 967.0, 968.0, 968.0, 968.0, 967.0, 968.0, 968.0, 967.0, 968.0, 968.0, 967.0, 968.0, 968.0, 967.0, 968.0, 968.0, 967.0, 967.0, 967.0, 968.0, 967.0, 968.0, 968.0, 967.0, 967.0, 967.0, 968.0, 967.0, 967.0, 967.0, 967.0, 968.0, 967.0, 968.0, 967.0, 967.0, 967.0, 968.0, 967.0, 967.0, 967.0, 968.0, 967.0, 968.0, 966.0, 967.0, 967.0, 966.0, 967.0, 967.0, 968.0, 968.0, 967.0, 966.0, 968.0, 967.0, 967.0, 967.0, 966.0, 968.0, 967.0, 967.0, 967.0, 968.0, 967.0, 967.0, 967.0, 967.0, 968.0, 966.0, 968.0, 967.0, 968.0],
      "WindowWidth": [2302.0, 2302.0, 2302.0, 2303.0, 2302.0, 2302.0, 2302.0, 2302.0, 2302.0, 2303.0, 2302.0, 2301.0, 2302.0, 2302.0, 2302.0, 2303.0, 2302.0, 2302.0, 2302.0, 2302.0, 2302.0, 2302.0, 2303.0, 2302.0, 2302.0, 2302.0, 2302.0, 2303.0, 2302.0, 2302.0, 2303.0, 2302.0, 2301.0, 2302.0, 2302.0, 2302.0, 2302.0, 2302.0, 2302.0, 2302.0, 2302.0, 2303.0, 2302.0, 2303.0, 2302.0, 2302.0, 2302.0, 2302.0, 2303.0, 2303.0, 2301.0, 2302.0, 2302.0, 2303.0, 2302.0, 2301.0, 2301.0, 2302.0, 2302.0, 2301.0, 2302.0, 2301.0, 2303.0, 2303.0, 2301.0, 2302.0, 2302.0, 2301.0, 2302.0, 2302.0, 2303.0, 2301.0, 2302.0, 2302.0, 2303.0, 2302.0, 2301.0, 2302.0, 2302.0, 2302.0, 2303.0, 2303.0, 2302.0, 2303.0, 2302.0, 2302.0, 2301.0, 2303.0, 2303.0, 2303.0, 2303.0, 2303.0, 2302.0, 2302.0, 2303.0, 2302.0, 2303.0, 2301.0, 2302.0, 2302.0, 2302.0, 2303.0, 2301.0, 2302.0, 2303.0, 2302.0, 2302.0, 2301.0, 2301.0, 2302.0, 2302.0, 2303.0, 2302.0, 2301.0, 2301.0, 2301.0, 2303.0, 2302.0, 2302.0, 2301.0, 2301.0, 2301.0, 2301.0, 2301.0, 2303.0, 2301.0, 2302.0, 2301.0, 2302.0, 2301.0, 2302.0, 2301.0, 2301.0, 2302.0, 2301.0, 2302.0, 2301.0, 2302.0, 2302.0, 2302.0, 2301.0, 2302.0, 2302.0, 2301.0, 2301.0, 2301.0, 2302.0, 2301.0, 2302.0, 2303.0, 2301.0, 2301.0, 2301.0, 2302.0, 2301.0, 2301.0, 2301.0, 2301.0, 2301.0, 2301.0, 2301.0, 2301.0, 2301.0, 2301.0, 2302.0, 2301.0, 2301.0, 2300.0, 2301.0, 2301.0, 2302.0, 2300.0, 2301.0, 2301.0, 2300.0, 2301.0, 2301.0, 2302.0, 2302.0, 2301.0, 2300.0, 2302.0, 2300.0, 2301.0, 2301.0, 2300.0, 2302.0, 2301.0, 2301.0, 2301.0, 2301.0, 2301.0, 2301.0, 2301.0, 2301.0, 2301.0, 2300.0, 2302.0, 2301.0, 2301.0]
    },
    "slices": {}
  }
}