{
  "AcquisitionMatrixPE": 80,
  "AcquisitionNumber": 1,
  "AcquisitionTime": "09:28:49.837500",
  "BandwidthPerPixelPhaseEncode": 48.077,
  "BaseResolution": 80,
  "BodyPartExamined": "BRAIN",
  "CoilCombinationMethod": "Sum of Squares",
  "ConsistencyInfo": "N4_VE11E_LATEST_20181129",
  "ConversionSoftware": "dcm2niix",
  "ConversionSoftwareVersion": "v1.0.20220720",
  "DerivedVendorReportedEchoSpacing": 0.000519999,
  "DeviceSerialNumber": "66112",
  "DwellTime": 2.7e-06,
  "EchoTime": 0.035,
  "EchoTrainLength": 39,
  "EffectiveEchoSpacing": 0.00026,
  "FlipAngle": 90,
  "HeudiconvVersion": "0.13.1",
  "ImageOrientationPatientDICOM": [0.988381, 0.151984, 0.00201656, -0.145246, 0.94049, 0.307218],
  "ImageOrientationText": "Tra>Cor(17.7)>Sag(-2.6)",
  "ImageType": [
    "ORIGINAL",
    "PRIMARY",
    "M",
    "ND",
    "NORM",
    "MOSAIC"
],
  "ImagingFrequency": 123.261,
  "InPlanePhaseEncodingDirectionDICOM": "COL",
  "InstitutionAddress": "Maynard 3,Hanover,NH,US,03755",
  "InstitutionName": "Dartmouth College - PBS",
  "InstitutionalDepartmentName": "Department",
  "MRAcquisitionType": "2D",
  "MagneticFieldStrength": 3,
  "Manufacturer": "Siemens",
  "ManufacturersModelName": "Prisma",
  "MatrixCoilMode": "GRAPPA",
  "Modality": "MR",
  "NonlinearGradientCorrection": false,
  "ParallelReductionFactorInPlane": 2,
  "PartialFourier": 1,
  "PatientPosition": "HFS",
  "PercentPhaseFOV": 100,
  "PercentSampling": 100,
  "PhaseEncodingDirection": "j-",
  "PhaseEncodingSteps": 79,
  "PhaseResolution": 1,
  "PixelBandwidth": 2315,
  "ProcedureStepDescription": "dbic^QA",
  "ProtocolName": "func-bold_task-rest_acq-p2",
  "PulseSequenceDetails": "%SiemensSeq%\\ep2d_bold",
  "ReceiveCoilActiveElements": "HEA;HEP",
  "ReceiveCoilName": "Head_32",
  "ReconMatrixPE": 80,
  "RefLinesPE": 24,
  "RepetitionTime": 2,
  "SAR": 0.0468593,
  "ScanOptions": "FS",
  "ScanningSequence": "EP",
  "SequenceName": "*epfid2d1_80",
  "SequenceVariant": "SK",
  "SeriesDescription": "func-bold_task-rest_acq-p2",
  "SeriesNumber": 5,
  "ShimSetting": [4249, -7723, -7504, -91, -151, -52, -39, 95],
  "SliceThickness": 3.5,
  "SliceTiming": [0.99, 0, 1.055, 0.065, 1.1225, 0.1325, 1.1875, 0.1975, 1.2525, 0.2625, 1.32, 0.33, 1.385, 0.395, 1.4525, 0.4625, 1.5175, 0.5275, 1.5825, 0.5925, 1.65, 0.66, 1.715, 0.725, 1.7825, 0.7925, 1.8475, 0.8575, 1.9125, 0.9225],
  "SoftwareVersions": "syngo MR E11",
  "SpacingBetweenSlices": 3.99,
  "StationName": "AWP66112",
  "TaskName": "rest",
  "TotalReadoutTime": 0.02054,
  "TxRefAmp": 218.232,
  "dcmmeta_affine": [
    [-2.9651427268981934, -0.43573927879333496, -0.17873448133468628, 138.3787841796875],
    [-0.4559516906738281, 2.8214688301086426, 1.212725043296814, -101.8106918334961],
    [0.006049669347703457, -0.9216533899307251, 3.797032117843628, -20.687480926513672],
    [0.0, 0.0, 0.0, 1.0]
],
  "dcmmeta_reorient_transform": [
    [0.0, -1.0, 0.0, 79.0],
    [1.0, 0.0, 0.0, 0.0],
    [0.0, 0.0, 1.0, 0.0],
    [0.0, 0.0, 0.0, 1.0]
],
  "dcmmeta_shape": [80, 80, 30, 200],
  "dcmmeta_slice_dim": 2,
  "dcmmeta_version": 0.6,
  "global": {
    "const": {
      "AccessionNumber": "qa",
      "AcquisitionMatrix": [80, 0, 0, 80],
      "AngioFlag": "N",
      "BitsAllocated": 16,
      "BitsStored": 12,
      "BodyPartExamined": "BRAIN",
      "Columns": 480,
      "EchoNumbers": 1,
      "EchoTime": 35.0,
      "EchoTrainLength": 39,
      "FlipAngle": 90.0,
      "HighBit": 11,
      "ImageOrientationPatient": [0.98838091254019, 0.15198389791843, 0.00201655640758, -0.1452464291324, 0.94048960515649, 0.30721780126951],
      "ImagePositionPatient": [-609.83606794655, -776.56944665089, -279.03871402897],
      "ImageType": [
        "ORIGINAL",
        "PRIMARY",
        "M",
        "ND",
        "NORM",
        "MOSAIC"
],
      "ImagedNucleus": "1H",
      "ImagingFrequency": 123.261224,
      "InPlanePhaseEncodingDirection": "COL",
      "MRAcquisitionType": "2D",
      "MagneticFieldStrength": 3.0,
      "Manufacturer": "SIEMENS",
      "ManufacturerModelName": "Prisma",
      "Modality": "MR",
      "NumberOfAverages": 1.0,
      "NumberOfPhaseEncodingSteps": 79,
      "PercentPhaseFieldOfView": 100.0,
      "PercentSampling": 100.0,
      "PerformedProcedureStepStartTime": "092717.317000",
      "PhotometricInterpretation": "MONOCHROME2",
      "PixelBandwidth": 2315.0,
      "PixelRepresentation": 0,
      "PixelSpacing": [3.0, 3.0],
      "ProtocolName": "func-bold_task-rest_acq-p2",
      "RepetitionTime": 2000.0,
      "Rows": 480,
      "SAR": 0.04685930060277,
      "SamplesPerPixel": 1,
      "ScanOptions": "FS",
      "ScanningSequence": "EP",
      "SequenceName": "*epfid2d1_80",
      "SequenceVariant": "SK",
      "SeriesDescription": "func-bold_task-rest_acq-p2",
      "SeriesNumber": 5,
      "SeriesTime": "092930.550000",
      "SliceLocation": -56.830190013416,
      "SliceThickness": 3.5,
      "SmallestImagePixelValue": 0,
      "SoftwareVersions": "syngo MR E11",
      "SpacingBetweenSlices": 3.9900000640739,
      "SpecificCharacterSet": "ISO_IR 100",
      "StudyID": "49",
      "StudyTime": "092717.254000",
      "TransmitCoilName": "Body",
      "VariableFlipAngleFlag": "N",
      "WindowCenterWidthExplanation": "Algo1"
    },
    "slices": {}
  },
  "time": {
    "samples": {
      "AcquisitionNumber": [1, 2, 3, 4, 5, 6, 7, 8, 9, 10, 11, 12, 13, 14, 15, 16, 17, 18, 19, 20, 21, 22, 23, 24, 25, 26, 27, 28, 29, 30, 31, 32, 33, 34, 35, 36, 37, 38, 39, 40, 41, 42, 43, 44, 45, 46, 47, 48, 49, 50, 51, 52, 53, 54, 55, 56, 57, 58, 59, 60, 61, 62, 63, 64, 65, 66, 67, 68, 69, 70, 71, 72, 73, 74, 75, 76, 77, 78, 79, 80, 81, 82, 83, 84, 85, 86, 87, 88, 89, 90, 91, 92, 93, 94, 95, 96, 97, 98, 99, 100, 101, 102, 103, 104, 105, 106, 107, 108, 109, 110, 111, 112, 113, 114, 115, 116, 117, 118, 119, 120, 121, 122, 123, 124, 125, 126, 127, 128, 129, 130, 131, 132, 133, 134, 135, 136, 137, 138, 139, 140, 141, 142, 143, 144, 145, 146, 147, 148, 149, 150, 151, 152, 153, 154, 155, 156, 157, 158, 159, 160, 161, 162, 163, 164, 165, 166, 167, 168, 169, 170, 171, 172, 173, 174, 175, 176, 177, 178, 179, 180, 181, 182, 183, 184, 185, 186, 187, 188, 189, 190, 191, 192, 193, 194, 195, 196, 197, 198, 199, 200],
      "AcquisitionTime": ["092849.837500", "092851.837500", "092853.837500", "092855.837500", "092857.837500", "092859.837500", "092901.837500", "092903.837500", "092905.837500", "092907.837500", "092909.837500", "092911.837500", "092913.837500", "092915.837500", "092917.837500", "092919.837500", "092921.837500", "092923.837500", "092925.837500", "092927.837500", "092929.837500", "092931.837500", "092933.837500", "092935.837500", "092937.837500", "092939.837500", "092941.837500", "092943.837500", "092945.837500", "092947.837500", "092949.837500", "092951.837500", "092953.837500", "092955.837500", "092957.837500", "092959.837500", "093001.837500", "093003.837500", "093005.837500", "093007.837500", "093009.837500", "093011.837500", "093013.837500", "093015.837500", "093017.837500", "093019.837500", "093021.837500", "093023.837500", "093025.837500", "093027.837500", "093029.837500", "093031.837500", "093033.837500", "093035.837500", "093037.837500", "093039.837500", "093041.837500", "093043.837500", "093045.837500", "093047.837500", "093049.837500", "093051.837500", "093053.837500", "093055.837500", "093057.837500", "093059.837500", "093101.837500", "093103.837500", "093105.837500", "093107.837500", "093109.837500", "093111.837500", "093113.837500", "093115.837500", "093117.837500", "093119.837500", "093121.837500", "093123.837500", "093125.837500", "093127.837500", "093129.837500", "093131.837500", "093133.837500", "093135.837500", "093137.837500", "093139.837500", "093141.837500", "093143.837500", "093145.837500", "093147.837500", "093149.837500", "093151.837500", "093153.837500", "093155.837500", "093157.837500", "093159.837500", "093201.837500", "093203.837500", "093205.837500", "093207.837500", "093209.837500", "093211.837500", "093213.837500", "093215.837500", "093217.837500", "093219.837500", "093221.837500", "093223.837500", "093225.837500", "093227.837500", "093229.837500", "093231.837500", "093233.837500", "093235.837500", "093237.837500", "093239.837500", "093241.837500", "093243.837500", "093245.837500", "093247.837500", "093249.837500", "093251.837500", "093253.837500", "093255.837500", "093257.837500", "093259.837500", "093301.837500", "093303.837500", "093305.837500", "093307.837500", "093309.837500", "093311.837500", "093313.837500", "093315.837500", "093317.837500", "093319.837500", "093321.837500", "093323.837500", "093325.837500", "093327.837500", "093329.837500", "093331.837500", "093333.837500", "093335.837500", "093337.837500", "093339.837500", "093341.837500", "093343.837500", "093345.837500", "093347.837500", "093349.837500", "093351.837500", "093353.837500", "093355.837500", "093357.837500", "093359.837500", "093401.837500", "093403.837500", "093405.837500", "093407.837500", "093409.837500", "093411.837500", "093413.837500", "093415.837500", "093417.837500", "093419.837500", "093421.837500", "093423.837500", "093425.837500", "093427.837500", "093429.837500", "093431.837500", "093433.837500", "093435.837500", "093437.837500", "093439.837500", "093441.837500", "093443.837500", "093445.837500", "093447.837500", "093449.837500", "093451.837500", "093453.837500", "093455.837500", "093457.837500", "093459.837500", "093501.837500", "093503.837500", "093505.837500", "093507.837500", "093509.837500", "093511.837500", "093513.837500", "093515.837500", "093517.837500", "093519.837500", "093521.837500", "093523.837500", "093525.837500", "093527.837500"],
      "ContentTime": ["092930.553000", "092930.556000", "092930.559000", "092930.572000", "092930.575000", "092930.577000", "092930.579000", "092930.582000", "092930.584000", "092930.586000", "092930.589000", "092930.591000", "092930.593000", "092930.595000", "092930.598000", "092930.600000", "092930.602000", "092930.605000", "092930.607000", "092930.609000", "093010.548000", "093010.551000", "093010.553000", "093010.555000", "093010.558000", "093010.560000", "093010.563000", "093010.565000", "093010.567000", "093010.570000", "093010.572000", "093010.574000", "093010.577000", "093010.579000", "093010.582000", "093010.584000", "093010.586000", "093010.588000", "093010.591000", "093010.593000", "093050.549000", "093050.552000", "093050.554000", "093050.557000", "093050.559000", "093050.561000", "093050.564000", "093050.566000", "093050.568000", "093050.571000", "093050.573000", "093050.583000", "093050.586000", "093050.588000", "093050.590000", "093050.593000", "093050.595000", "093050.597000", "093050.600000", "093050.602000", "093130.549000", "093130.552000", "093130.554000", "093130.557000", "093130.559000", "093130.562000", "093130.564000", "093130.567000", "093130.569000", "093130.571000", "093130.574000", "093130.576000", "093130.578000", "093130.581000", "093130.583000", "093130.585000", "093130.588000", "093130.590000", "093130.592000", "093130.594000", "093210.548000", "093210.551000", "093210.553000", "093210.556000", "093210.558000", "093210.560000", "093210.563000", "093210.565000", "093210.567000", "093210.570000", "093210.572000", "093210.574000", "093210.577000", "093210.579000", "093210.581000", "093210.584000", "093210.586000", "093210.588000", "093210.630000", "093210.632000", "093250.549000", "093250.552000", "093250.554000", "093250.557000", "093250.559000", "093250.561000", "093250.564000", "093250.566000", "093250.569000", "093250.571000", "093250.573000", "093250.576000", "093250.578000", "093250.580000", "093250.583000", "093250.585000", "093250.587000", "093250.590000", "093250.592000", "093250.594000", "093330.549000", "093330.552000", "093330.554000", "093330.556000", "093330.559000", "093330.574000", "093330.576000", "093330.579000", "093330.581000", "093330.583000", "093330.586000", "093330.588000", "093330.590000", "093330.593000", "093330.595000", "093330.597000", "093330.600000", "093330.602000", "093330.604000", "093330.607000", "093410.548000", "093410.551000", "093410.553000", "093410.556000", "093410.558000", "093410.560000", "093410.563000", "093410.565000", "093410.568000", "093410.570000", "093410.572000", "093410.575000", "093410.577000", "093410.579000", "093410.581000", "093410.584000", "093410.586000", "093410.588000", "093410.591000", "093410.593000", "093450.548000", "093450.551000", "093450.553000", "093450.556000", "093450.558000", "093450.560000", "093450.563000", "093450.565000", "093450.567000", "093450.569000", "093450.572000", "093450.574000", "093450.577000", "093450.579000", "093450.581000", "093450.583000", "093450.586000", "093450.588000", "093450.590000", "093450.593000", "093529.458000", "093529.471000", "093529.474000", "093529.481000", "093529.484000", "093529.487000", "093529.489000", "093529.492000", "093529.494000", "093529.497000", "093529.499000", "093529.502000", "093529.504000", "093529.507000", "093529.509000", "093529.513000", "093529.515000", "093529.518000", "093529.521000", "093529.523000"],
      "InstanceCreationTime": ["092930.553000", "092930.556000", "092930.559000", "092930.572000", "092930.575000", "092930.577000", "092930.579000", "092930.582000", "092930.584000", "092930.586000", "092930.589000", "092930.591000", "092930.593000", "092930.595000", "092930.598000", "092930.600000", "092930.602000", "092930.605000", "092930.607000", "092930.609000", "093010.548000", "093010.551000", "093010.553000", "093010.555000", "093010.558000", "093010.560000", "093010.563000", "093010.565000", "093010.567000", "093010.570000", "093010.572000", "093010.574000", "093010.577000", "093010.579000", "093010.582000", "093010.584000", "093010.586000", "093010.588000", "093010.591000", "093010.593000", "093050.549000", "093050.552000", "093050.554000", "093050.557000", "093050.559000", "093050.561000", "093050.564000", "093050.566000", "093050.568000", "093050.571000", "093050.573000", "093050.583000", "093050.586000", "093050.588000", "093050.590000", "093050.593000", "093050.595000", "093050.597000", "093050.600000", "093050.602000", "093130.549000", "093130.552000", "093130.554000", "093130.557000", "093130.559000", "093130.562000", "093130.564000", "093130.567000", "093130.569000", "093130.571000", "093130.574000", "093130.576000", "093130.578000", "093130.581000", "093130.583000", "093130.585000", "093130.588000", "093130.590000", "093130.592000", "093130.594000", "093210.548000", "093210.551000", "093210.553000", "093210.556000", "093210.558000", "093210.560000", "093210.563000", "093210.565000", "093210.567000", "093210.570000", "093210.572000", "093210.574000", "093210.577000", "093210.579000", "093210.581000", "093210.584000", "093210.586000", "093210.588000", "093210.630000", "093210.632000", "093250.549000", "093250.552000", "093250.554000", "093250.557000", "093250.559000", "093250.561000", "093250.564000", "093250.566000", "093250.569000", "093250.571000", "093250.573000", "093250.576000", "093250.578000", "093250.580000", "093250.583000", "093250.585000", "093250.587000", "093250.590000", "093250.592000", "093250.594000", "093330.549000", "093330.552000", "093330.554000", "093330.556000", "093330.559000", "093330.574000", "093330.576000", "093330.579000", "093330.581000", "093330.583000", "093330.586000", "093330.588000", "093330.590000", "093330.593000", "093330.595000", "093330.597000", "093330.600000", "093330.602000", "093330.604000", "093330.607000", "093410.548000", "093410.551000", "093410.553000", "093410.556000", "093410.558000", "093410.560000", "093410.563000", "093410.565000", "093410.568000", "093410.570000", "093410.572000", "093410.575000", "093410.577000", "093410.579000", "093410.581000", "093410.584000", "093410.586000", "093410.588000", "093410.591000", "093410.593000", "093450.548000", "093450.551000", "093450.553000", "093450.556000", "093450.558000", "093450.560000", "093450.563000", "093450.565000", "093450.567000", "093450.569000", "093450.572000", "093450.574000", "093450.577000", "093450.579000", "093450.581000", "093450.583000", "093450.586000", "093450.588000", "093450.590000", "093450.593000", "093529.458000", "093529.471000", "093529.474000", "093529.481000", "093529.484000", "093529.487000", "093529.489000", "093529.492000", "093529.494000", "093529.497000", "093529.499000", "093529.502000", "093529.504000", "093529.507000", "093529.509000", "093529.513000", "093529.515000", "093529.518000", "093529.521000", "093529.523000"],
      "InstanceNumber": [1, 2, 3, 4, 5, 6, 7, 8, 9, 10, 11, 12, 13, 14, 15, 16, 17, 18, 19, 20, 21, 22, 23, 24, 25, 26, 27, 28, 29, 30, 31, 32, 33, 34, 35, 36, 37, 38, 39, 40, 41, 42, 43, 44, 45, 46, 47, 48, 49, 50, 51, 52, 53, 54, 55, 56, 57, 58, 59, 60, 61, 62, 63, 64, 65, 66, 67, 68, 69, 70, 71, 72, 73, 74, 75, 76, 77, 78, 79, 80, 81, 82, 83, 84, 85, 86, 87, 88, 89, 90, 91, 92, 93, 94, 95, 96, 97, 98, 99, 100, 101, 102, 103, 104, 105, 106, 107, 108, 109, 110, 111, 112, 113, 114, 115, 116, 117, 118, 119, 120, 121, 122, 123, 124, 125, 126, 127, 128, 129, 130, 131, 132, 133, 134, 135, 136, 137, 138, 139, 140, 141, 142, 143, 144, 145, 146, 147, 148, 149, 150, 151, 152, 153, 154, 155, 156, 157, 158, 159, 160, 161, 162, 163, 164, 165, 166, 167, 168, 169, 170, 171, 172, 173, 174, 175, 176, 177, 178, 179, 180, 181, 182, 183, 184, 185, 186, 187, 188, 189, 190, 191, 192, 193, 194, 195, 196, 197, 198, 199, 200],
      "LargestImagePixelValue": [2212, 2203, 2207, 2205, 2205, 2200, 2207, 2207, 2207, 2207, 2211, 2207, 2207, 2208, 2200, 2207, 2200, 2203, 2205, 2206, 2198, 2200, 2204, 2205, 2206, 2204, 2198, 2204, 2201, 2197, 2206, 2208, 2200, 2203, 2198, 2210, 2205, 2207, 2198, 2201, 2206, 2202, 2205, 2202, 2205, 2204, 2210, 2205, 2200, 2210, 2199, 2200, 2204, 2206, 2205, 2204, 2199, 2203, 2204, 2207, 2199, 2208, 2204, 2205, 2207, 2209, 2207, 2202, 2208, 2210, 2208, 2205, 2198, 2202, 2200, 2203, 2205, 2206, 2200, 2205, 2202, 2205, 2201, 2202, 2194, 2191, 2202, 2202, 2198, 2197, 2202, 2198, 2205, 2209, 2194, 2200, 2198, 2197, 2199, 2198, 2203, 2209, 2195, 2201, 2211, 2198, 2199, 2202, 2199, 2194, 2201, 2197, 2199, 2204, 2205, 2203, 2210, 2205, 2205, 2199, 2200, 2202, 2200, 2202, 2202, 2202, 2200, 2203, 2205, 2202, 2201, 2199, 2197, 2202, 2203, 2202, 2196, 2200, 2207, 2204, 2195, 2199, 2196, 2195, 2201, 2201, 2198, 2202, 2204, 2201, 2203, 2203, 2196, 2202, 2200, 2205, 2196, 2201, 2194, 2200, 2205, 2202, 2200, 2195, 2202, 2205, 2197, 2196, 2196, 2192, 2194, 2191, 2197, 2199, 2196, 2196, 2198, 2199, 2202, 2194, 2201, 2202, 2197, 2199, 2201, 2196, 2198, 2201, 2198, 2201, 2192, 2197, 2195, 2197, 2199, 2199, 2201, 2201, 2198, 2195],
      "WindowCenter": [1038.0, 1037.0, 1037.0, 1037.0, 1037.0, 1037.0, 1037.0, 1037.0, 1037.0, 1037.0, 1037.0, 1037.0, 1037.0, 1037.0, 1037.0, 1037.0, 1037.0, 1037.0, 1037.0, 1037.0, 1037.0, 1037.0, 1037.0, 1037.0, 1037.0, 1037.0, 1037.0, 1037.0, 1037.0, 1037.0, 1037.0, 1037.0, 1037.0, 1037.0, 1037.0, 1037.0, 1037.0, 1037.0, 1037.0, 1037.0, 1037.0, 1037.0, 1037.0, 1037.0, 1037.0, 1037.0, 1037.0, 1037.0, 1037.0, 1037.0, 1037.0, 1037.0, 1038.0, 1036.0, 1037.0, 1037.0, 1036.0, 1036.0, 1036.0, 1036.0, 1036.0, 1036.0, 1036.0, 1037.0, 1036.0, 1036.0, 1036.0, 1036.0, 1036.0, 1036.0, 1036.0, 1036.0, 1036.0, 1036.0, 1036.0, 1036.0, 1036.0, 1036.0, 1036.0, 1036.0, 1036.0, 1036.0, 1036.0, 1036.0, 1036.0, 1036.0, 1036.0, 1036.0, 1036.0, 1036.0, 1036.0, 1036.0, 1036.0, 1036.0, 1036.0, 1036.0, 1036.0, 1036.0, 1036.0, 1036.0, 1036.0, 1036.0, 1036.0, 1036.0, 1036.0, 1036.0, 1036.0, 1036.0, 1036.0, 1036.0, 1036.0, 1036.0, 1036.0, 1036.0, 1036.0, 1036.0, 1036.0, 1036.0, 1036.0, 1036.0, 1036.0, 1036.0, 1036.0, 1036.0, 1036.0, 1036.0, 1036.0, 1036.0, 1036.0, 1036.0, 1036.0, 1036.0, 1036.0, 1036.0, 1036.0, 1036.0, 1036.0, 1036.0, 1036.0, 1036.0, 1036.0, 1036.0, 1036.0, 1036.0, 1036.0, 1036.0, 1036.0, 1036.0, 1036.0, 1036.0, 1036.0, 1036.0, 1036.0, 1035.0, 1036.0, 1036.0, 1036.0, 1036.0, 1036.0, 1036.0, 1036.0, 1035.0, 1036.0, 1036.0, 1036.0, 1036.0, 1036.0, 1036.0, 1036.0, 1035.0, 1036.0, 1035.0, 1036.0, 1035.0, 1035.0, 1036.0, 1035.0, 1035.0, 1035.0, 1035.0, 1035.0, 1035.0, 1035.0, 1035.0, 1035.0, 1035.0, 1035.0, 1035.0, 1035.0, 1035.0, 1035.0, 1035.0, 1035.0, 1035.0, 1035.0, 1035.0, 1035.0, 1035.0, 1035.0, 1035.0],
      "WindowWidth": [2330.0, 2329.0, 2329.0, 2329.0, 2329.0, 2329.0, 2329.0, 2328.0, 2329.0, 2328.0, 2328.0, 2328.0, 2328.0, 2328.0, 2327.0, 2328.0, 2328.0, 2327.0, 2328.0, 2327.0, 2327.0, 2327.0, 2327.0, 2327.0, 2328.0, 2328.0, 2328.0, 2327.0, 2327.0, 2327.0, 2328.0, 2327.0, 2327.0, 2327.0, 2327.0, 2327.0, 2328.0, 2327.0, 2328.0, 2328.0, 2327.0, 2327.0, 2328.0, 2327.0, 2328.0, 2327.0, 2328.0, 2327.0, 2327.0, 2327.0, 2327.0, 2327.0, 2328.0, 2327.0, 2327.0, 2327.0, 2327.0, 2327.0, 2327.0, 2327.0, 2327.0, 2327.0, 2327.0, 2326.0, 2327.0, 2327.0, 2327.0, 2326.0, 2327.0, 2327.0, 2327.0, 2326.0, 2326.0, 2327.0, 2326.0, 2327.0, 2326.0, 2326.0, 2326.0, 2326.0, 2327.0, 2326.0, 2326.0, 2325.0, 2326.0, 2326.0, 2326.0, 2326.0, 2326.0, 2326.0, 2326.0, 2326.0, 2326.0, 2326.0, 2326.0, 2325.0, 2326.0, 2326.0, 2326.0, 2326.0, 2326.0, 2326.0, 2326.0, 2326.0, 2325.0, 2326.0, 2326.0, 2326.0, 2325.0, 2326.0, 2325.0, 2325.0, 2325.0, 2325.0, 2325.0, 2325.0, 2325.0, 2325.0, 2325.0, 2325.0, 2325.0, 2325.0, 2325.0, 2325.0, 2325.0, 2325.0, 2325.0, 2325.0, 2325.0, 2325.0, 2325.0, 2325.0, 2325.0, 2324.0, 2325.0, 2325.0, 2325.0, 2325.0, 2325.0, 2325.0, 2325.0, 2324.0, 2325.0, 2324.0, 2324.0, 2324.0, 2324.0, 2324.0, 2324.0, 2324.0, 2324.0, 2324.0, 2324.0, 2324.0, 2324.0, 2324.0, 2324.0, 2324.0, 2324.0, 2324.0, 2324.0, 2324.0, 2324.0, 2324.0, 2324.0, 2324.0, 2324.0, 2324.0, 2324.0, 2324.0, 2324.0, 2324.0, 2324.0, 2324.0, 2324.0, 2324.0, 2324.0, 2324.0, 2324.0, 2324.0, 2324.0, 2324.0, 2324.0, 2324.0, 2324.0, 2324.0, 2324.0, 2324.0, 2324.0, 2324.0, 2324.0, 2324.0, 2324.0, 2323.0, 2323.0, 2324.0, 2324.0, 2324.0, 2323.0, 2324.0]
    },
    "slices": {}
  }
}