{
  "AcquisitionMatrixPE": 80,
  "AcquisitionNumber": 1,
  "AcquisitionTime": "09:49:20.485000",
  "BandwidthPerPixelPhaseEncode": 25,
  "BaseResolution": 80,
  "BodyPartExamined": "BRAIN",
  "CoilCombinationMethod": "Sum of Squares",
  "ConsistencyInfo": "N4_VE11E_LATEST_20181129",
  "ConversionSoftware": "dcm2niix",
  "ConversionSoftwareVersion": "v1.0.20220720",
  "DerivedVendorReportedEchoSpacing": 0.0005,
  "DeviceSerialNumber": "66112",
  "DwellTime": 2.7e-06,
  "EchoTime": 0.03,
  "EchoTrainLength": 80,
  "EffectiveEchoSpacing": 0.0005,
  "FlipAngle": 10,
  "HeudiconvVersion": "0.13.1",
  "ImageOrientationPatientDICOM": [0.988381, 0.151984, 0.00201656, -0.145246, 0.94049, 0.307218],
  "ImageOrientationText": "Tra>Cor(17.7)>Sag(-2.6)",
  "ImageType": [
    "ORIGINAL",
    "PRIMARY",
    "M",
    "ND",
    "NORM",
    "MOSAIC"
],
  "ImagingFrequency": 123.261,
  "InPlanePhaseEncodingDirectionDICOM": "COL",
  "InstitutionAddress": "Maynard 3,Hanover,NH,US,03755",
  "InstitutionName": "Dartmouth College - PBS",
  "InstitutionalDepartmentName": "Department",
  "MRAcquisitionType": "2D",
  "MagneticFieldStrength": 3,
  "Manufacturer": "Siemens",
  "ManufacturersModelName": "Prisma",
  "MatrixCoilMode": "SENSE",
  "Modality": "MR",
  "NonlinearGradientCorrection": false,
  "PartialFourier": 1,
  "PatientPosition": "HFS",
  "PercentPhaseFOV": 100,
  "PercentSampling": 100,
  "PhaseEncodingDirection": "j-",
  "PhaseEncodingSteps": 80,
  "PhaseResolution": 1,
  "PixelBandwidth": 2315,
  "ProcedureStepDescription": "dbic^QA",
  "ProtocolName": "func-bold_fa-10",
  "PulseSequenceDetails": "%SiemensSeq%\\ep2d_bold",
  "ReceiveCoilActiveElements": "HEA;HEP",
  "ReceiveCoilName": "Head_32",
  "ReconMatrixPE": 80,
  "RepetitionTime": 2,
  "SAR": 0.00987811,
  "ScanOptions": "FS",
  "ScanningSequence": "EP",
  "SequenceName": "*epfid2d1_80",
  "SequenceVariant": "SK",
  "SeriesDescription": "func-bold_fa-10",
  "SeriesNumber": 8,
  "ShimSetting": [4250, -7722, -7503, -87, -149, -35, -33, 95],
  "SliceThickness": 3.5,
  "SliceTiming": [0.99, 0, 1.055, 0.065, 1.1225, 0.1325, 1.1875, 0.1975, 1.2525, 0.2625, 1.32, 0.33, 1.385, 0.395, 1.4525, 0.4625, 1.5175, 0.5275, 1.5825, 0.5925, 1.65, 0.66, 1.715, 0.725, 1.78, 0.7925, 1.8475, 0.8575, 1.9125, 0.9225],
  "SoftwareVersions": "syngo MR E11",
  "SpacingBetweenSlices": 3.99,
  "StationName": "AWP66112",
  "TotalReadoutTime": 0.0395,
  "TxRefAmp": 218.232,
  "dcmmeta_affine": [
    [-2.9651427268981934, -0.43573927879333496, -0.17873448133468628, 138.37098693847656],
    [-0.4559516906738281, 2.8214688301086426, 1.212725043296814, -101.67158508300781],
    [0.006049669347703457, -0.9216533899307251, 3.797032117843628, -14.003623962402344],
    [0.0, 0.0, 0.0, 1.0]
],
  "dcmmeta_reorient_transform": [
    [0.0, -1.0, 0.0, 79.0],
    [1.0, 0.0, 0.0, 0.0],
    [0.0, 0.0, 1.0, 0.0],
    [0.0, 0.0, 0.0, 1.0]
],
  "dcmmeta_shape": [80, 80, 30, 200],
  "dcmmeta_slice_dim": 2,
  "dcmmeta_version": 0.6,
  "global": {
    "const": {
      "AccessionNumber": "qa",
      "AcquisitionMatrix": [80, 0, 0, 80],
      "AngioFlag": "N",
      "BitsAllocated": 16,
      "BitsStored": 12,
      "BodyPartExamined": "BRAIN",
      "Columns": 480,
      "EchoNumbers": 1,
      "EchoTime": 30.0,
      "EchoTrainLength": 80,
      "FlipAngle": 10.0,
      "HighBit": 11,
      "ImageOrientationPatient": [0.98838091254019, 0.15198389791843, 0.00201655640758, -0.1452464291324, 0.94048960515649, 0.30721780126951],
      "ImagePositionPatient": [-609.8282740432, -776.70855530873, -272.35485706486],
      "ImageType": [
        "ORIGINAL",
        "PRIMARY",
        "M",
        "ND",
        "NORM",
        "MOSAIC"
],
      "ImagedNucleus": "1H",
      "ImagingFrequency": 123.261223,
      "InPlanePhaseEncodingDirection": "COL",
      "MRAcquisitionType": "2D",
      "MagneticFieldStrength": 3.0,
      "Manufacturer": "SIEMENS",
      "ManufacturerModelName": "Prisma",
      "Modality": "MR",
      "NumberOfAverages": 1.0,
      "NumberOfPhaseEncodingSteps": 80,
      "PercentPhaseFieldOfView": 100.0,
      "PercentSampling": 100.0,
      "PerformedProcedureStepStartTime": "092717.317000",
      "PhotometricInterpretation": "MONOCHROME2",
      "PixelBandwidth": 2315.0,
      "PixelRepresentation": 0,
      "PixelSpacing": [3.0, 3.0],
      "ProtocolName": "func-bold_fa-10",
      "RepetitionTime": 2000.0,
      "Rows": 480,
      "SAR": 0.00987810608007,
      "SamplesPerPixel": 1,
      "ScanOptions": "FS",
      "ScanningSequence": "EP",
      "SequenceName": "*epfid2d1_80",
      "SequenceVariant": "SK",
      "SeriesDescription": "func-bold_fa-10",
      "SeriesNumber": 8,
      "SeriesTime": "095010.551000",
      "SliceLocation": -50.426953832192,
      "SliceThickness": 3.5,
      "SmallestImagePixelValue": 0,
      "SoftwareVersions": "syngo MR E11",
      "SpacingBetweenSlices": 3.9900000644422,
      "SpecificCharacterSet": "ISO_IR 100",
      "StudyID": "49",
      "StudyTime": "092717.254000",
      "TransmitCoilName": "Body",
      "VariableFlipAngleFlag": "N",
      "WindowCenterWidthExplanation": "Algo1"
    },
    "slices": {}
  },
  "time": {
    "samples": {
      "AcquisitionNumber": [1, 2, 3, 4, 5, 6, 7, 8, 9, 10, 11, 12, 13, 14, 15, 16, 17, 18, 19, 20, 21, 22, 23, 24, 25, 26, 27, 28, 29, 30, 31, 32, 33, 34, 35, 36, 37, 38, 39, 40, 41, 42, 43, 44, 45, 46, 47, 48, 49, 50, 51, 52, 53, 54, 55, 56, 57, 58, 59, 60, 61, 62, 63, 64, 65, 66, 67, 68, 69, 70, 71, 72, 73, 74, 75, 76, 77, 78, 79, 80, 81, 82, 83, 84, 85, 86, 87, 88, 89, 90, 91, 92, 93, 94, 95, 96, 97, 98, 99, 100, 101, 102, 103, 104, 105, 106, 107, 108, 109, 110, 111, 112, 113, 114, 115, 116, 117, 118, 119, 120, 121, 122, 123, 124, 125, 126, 127, 128, 129, 130, 131, 132, 133, 134, 135, 136, 137, 138, 139, 140, 141, 142, 143, 144, 145, 146, 147, 148, 149, 150, 151, 152, 153, 154, 155, 156, 157, 158, 159, 160, 161, 162, 163, 164, 165, 166, 167, 168, 169, 170, 171, 172, 173, 174, 175, 176, 177, 178, 179, 180, 181, 182, 183, 184, 185, 186, 187, 188, 189, 190, 191, 192, 193, 194, 195, 196, 197, 198, 199, 200],
      "AcquisitionTime": ["094920.485000", "094922.485000", "094924.485000", "094926.485000", "094928.485000", "094930.485000", "094932.485000", "094934.485000", "094936.485000", "094938.485000", "094940.485000", "094942.485000", "094944.485000", "094946.485000", "094948.485000", "094950.485000", "094952.485000", "094954.485000", "094956.485000", "094958.485000", "095000.485000", "095002.485000", "095004.485000", "095006.485000", "095008.485000", "095010.485000", "095012.485000", "095014.485000", "095016.485000", "095018.485000", "095020.485000", "095022.485000", "095024.485000", "095026.485000", "095028.485000", "095030.485000", "095032.485000", "095034.485000", "095036.485000", "095038.485000", "095040.485000", "095042.485000", "095044.485000", "095046.485000", "095048.485000", "095050.485000", "095052.485000", "095054.485000", "095056.485000", "095058.485000", "095100.485000", "095102.485000", "095104.485000", "095106.485000", "095108.485000", "095110.485000", "095112.485000", "095114.485000", "095116.485000", "095118.485000", "095120.485000", "095122.485000", "095124.485000", "095126.485000", "095128.485000", "095130.485000", "095132.485000", "095134.485000", "095136.485000", "095138.485000", "095140.485000", "095142.485000", "095144.485000", "095146.485000", "095148.485000", "095150.485000", "095152.485000", "095154.485000", "095156.485000", "095158.485000", "095200.485000", "095202.485000", "095204.485000", "095206.485000", "095208.485000", "095210.485000", "095212.485000", "095214.485000", "095216.485000", "095218.485000", "095220.485000", "095222.485000", "095224.485000", "095226.485000", "095228.485000", "095230.485000", "095232.485000", "095234.485000", "095236.485000", "095238.485000", "095240.485000", "095242.485000", "095244.485000", "095246.485000", "095248.485000", "095250.485000", "095252.485000", "095254.485000", "095256.485000", "095258.485000", "095300.485000", "095302.485000", "095304.485000", "095306.485000", "095308.485000", "095310.485000", "095312.485000", "095314.485000", "095316.485000", "095318.485000", "095320.485000", "095322.485000", "095324.485000", "095326.485000", "095328.485000", "095330.485000", "095332.485000", "095334.485000", "095336.485000", "095338.485000", "095340.485000", "095342.485000", "095344.485000", "095346.485000", "095348.485000", "095350.485000", "095352.485000", "095354.485000", "095356.485000", "095358.485000", "095400.485000", "095402.485000", "095404.485000", "095406.485000", "095408.485000", "095410.485000", "095412.485000", "095414.485000", "095416.485000", "095418.485000", "095420.485000", "095422.485000", "095424.485000", "095426.485000", "095428.485000", "095430.485000", "095432.485000", "095434.485000", "095436.485000", "095438.485000", "095440.485000", "095442.485000", "095444.485000", "095446.485000", "095448.485000", "095450.485000", "095452.485000", "095454.485000", "095456.485000", "095458.485000", "095500.485000", "095502.485000", "095504.485000", "095506.485000", "095508.485000", "095510.485000", "095512.485000", "095514.485000", "095516.485000", "095518.485000", "095520.485000", "095522.485000", "095524.485000", "095526.485000", "095528.485000", "095530.485000", "095532.485000", "095534.485000", "095536.485000", "095538.485000", "095540.485000", "095542.485000", "095544.485000", "095546.485000", "095548.485000", "095550.485000", "095552.485000", "095554.485000", "095556.485000", "095558.485000"],
      "ContentTime": ["095010.554000", "095010.557000", "095010.567000", "095010.569000", "095010.571000", "095010.573000", "095010.576000", "095010.578000", "095010.580000", "095010.587000", "095010.589000", "095010.591000", "095010.593000", "095010.596000", "095010.598000", "095010.600000", "095010.603000", "095010.605000", "095010.607000", "095010.617000", "095010.620000", "095010.622000", "095010.624000", "095010.627000", "095010.630000", "095050.548000", "095050.551000", "095050.553000", "095050.556000", "095050.558000", "095050.560000", "095050.563000", "095050.565000", "095050.567000", "095050.569000", "095050.572000", "095050.574000", "095050.576000", "095050.579000", "095050.581000", "095050.583000", "095050.585000", "095050.588000", "095050.590000", "095050.592000", "095130.549000", "095130.552000", "095130.554000", "095130.556000", "095130.559000", "095130.561000", "095130.563000", "095130.565000", "095130.568000", "095130.570000", "095130.572000", "095130.575000", "095130.577000", "095130.579000", "095130.581000", "095130.584000", "095130.586000", "095130.588000", "095130.590000", "095130.593000", "095210.549000", "095210.552000", "095210.554000", "095210.556000", "095210.559000", "095210.561000", "095210.563000", "095210.565000", "095210.568000", "095210.570000", "095210.572000", "095210.575000", "095210.577000", "095210.579000", "095210.581000", "095210.584000", "095210.586000", "095210.588000", "095210.591000", "095210.598000", "095250.548000", "095250.551000", "095250.553000", "095250.556000", "095250.558000", "095250.560000", "095250.562000", "095250.565000", "095250.567000", "095250.569000", "095250.572000", "095250.574000", "095250.576000", "095250.578000", "095250.581000", "095250.583000", "095250.585000", "095250.588000", "095250.590000", "095250.592000", "095330.548000", "095330.559000", "095330.561000", "095330.564000", "095330.566000", "095330.568000", "095330.571000", "095330.573000", "095330.575000", "095330.577000", "095330.580000", "095330.582000", "095330.584000", "095330.586000", "095330.589000", "095330.591000", "095330.593000", "095330.596000", "095330.598000", "095330.600000", "095410.549000", "095410.552000", "095410.554000", "095410.556000", "095410.559000", "095410.561000", "095410.563000", "095410.565000", "095410.568000", "095410.570000", "095410.572000", "095410.575000", "095410.577000", "095410.579000", "095410.582000", "095410.584000", "095410.586000", "095410.589000", "095410.591000", "095410.593000", "095450.549000", "095450.552000", "095450.554000", "095450.556000", "095450.559000", "095450.561000", "095450.563000", "095450.566000", "095450.568000", "095450.570000", "095450.572000", "095450.575000", "095450.577000", "095450.579000", "095450.582000", "095450.584000", "095450.586000", "095450.588000", "095450.591000", "095450.593000", "095530.549000", "095530.551000", "095530.553000", "095530.556000", "095530.558000", "095530.560000", "095530.563000", "095530.565000", "095530.567000", "095530.569000", "095530.572000", "095530.574000", "095530.576000", "095530.579000", "095530.581000", "095530.583000", "095530.585000", "095530.588000", "095530.590000", "095530.592000", "095559.616000", "095559.618000", "095559.621000", "095559.623000", "095559.625000", "095559.628000", "095559.630000", "095559.632000", "095559.635000", "095559.637000", "095559.639000", "095559.642000", "095559.644000", "095559.646000", "095559.655000"],
      "InstanceCreationTime": ["095010.554000", "095010.557000", "095010.567000", "095010.569000", "095010.571000", "095010.573000", "095010.576000", "095010.578000", "095010.580000", "095010.587000", "095010.589000", "095010.591000", "095010.593000", "095010.596000", "095010.598000", "095010.600000", "095010.603000", "095010.605000", "095010.607000", "095010.617000", "095010.620000", "095010.622000", "095010.624000", "095010.627000", "095010.630000", "095050.548000", "095050.551000", "095050.553000", "095050.556000", "095050.558000", "095050.560000", "095050.563000", "095050.565000", "095050.567000", "095050.569000", "095050.572000", "095050.574000", "095050.576000", "095050.579000", "095050.581000", "095050.583000", "095050.585000", "095050.588000", "095050.590000", "095050.592000", "095130.549000", "095130.552000", "095130.554000", "095130.556000", "095130.559000", "095130.561000", "095130.563000", "095130.565000", "095130.568000", "095130.570000", "095130.572000", "095130.575000", "095130.577000", "095130.579000", "095130.581000", "095130.584000", "095130.586000", "095130.588000", "095130.590000", "095130.593000", "095210.549000", "095210.552000", "095210.554000", "095210.556000", "095210.559000", "095210.561000", "095210.563000", "095210.565000", "095210.568000", "095210.570000", "095210.572000", "095210.575000", "095210.577000", "095210.579000", "095210.581000", "095210.584000", "095210.586000", "095210.588000", "095210.591000", "095210.598000", "095250.548000", "095250.551000", "095250.553000", "095250.556000", "095250.558000", "095250.560000", "095250.562000", "095250.565000", "095250.567000", "095250.569000", "095250.572000", "095250.574000", "095250.576000", "095250.578000", "095250.581000", "095250.583000", "095250.585000", "095250.588000", "095250.590000", "095250.592000", "095330.548000", "095330.559000", "095330.561000", "095330.564000", "095330.566000", "095330.568000", "095330.571000", "095330.573000", "095330.575000", "095330.577000", "095330.580000", "095330.582000", "095330.584000", "095330.586000", "095330.589000", "095330.591000", "095330.593000", "095330.596000", "095330.598000", "095330.600000", "095410.549000", "095410.552000", "095410.554000", "095410.556000", "095410.559000", "095410.561000", "095410.563000", "095410.565000", "095410.568000", "095410.570000", "095410.572000", "095410.575000", "095410.577000", "095410.579000", "095410.582000", "095410.584000", "095410.586000", "095410.589000", "095410.591000", "095410.593000", "095450.549000", "095450.552000", "095450.554000", "095450.556000", "095450.559000", "095450.561000", "095450.563000", "095450.566000", "095450.568000", "095450.570000", "095450.572000", "095450.575000", "095450.577000", "095450.579000", "095450.582000", "095450.584000", "095450.586000", "095450.588000", "095450.591000", "095450.593000", "095530.549000", "095530.551000", "095530.553000", "095530.556000", "095530.558000", "095530.560000", "095530.563000", "095530.565000", "095530.567000", "095530.569000", "095530.572000", "095530.574000", "095530.576000", "095530.579000", "095530.581000", "095530.583000", "095530.585000", "095530.588000", "095530.590000", "095530.592000", "095559.616000", "095559.618000", "095559.621000", "095559.623000", "095559.625000", "095559.628000", "095559.630000", "095559.632000", "095559.635000", "095559.637000", "095559.639000", "095559.642000", "095559.644000", "095559.646000", "095559.655000"],
      "InstanceNumber": [1, 2, 3, 4, 5, 6, 7, 8, 9, 10, 11, 12, 13, 14, 15, 16, 17, 18, 19, 20, 21, 22, 23, 24, 25, 26, 27, 28, 29, 30, 31, 32, 33, 34, 35, 36, 37, 38, 39, 40, 41, 42, 43, 44, 45, 46, 47, 48, 49, 50, 51, 52, 53, 54, 55, 56, 57, 58, 59, 60, 61, 62, 63, 64, 65, 66, 67, 68, 69, 70, 71, 72, 73, 74, 75, 76, 77, 78, 79, 80, 81, 82, 83, 84, 85, 86, 87, 88, 89, 90, 91, 92, 93, 94, 95, 96, 97, 98, 99, 100, 101, 102, 103, 104, 105, 106, 107, 108, 109, 110, 111, 112, 113, 114, 115, 116, 117, 118, 119, 120, 121, 122, 123, 124, 125, 126, 127, 128, 129, 130, 131, 132, 133, 134, 135, 136, 137, 138, 139, 140, 141, 142, 143, 144, 145, 146, 147, 148, 149, 150, 151, 152, 153, 154, 155, 156, 157, 158, 159, 160, 161, 162, 163, 164, 165, 166, 167, 168, 169, 170, 171, 172, 173, 174, 175, 176, 177, 178, 179, 180, 181, 182, 183, 184, 185, 186, 187, 188, 189, 190, 191, 192, 193, 194, 195, 196, 197, 198, 199, 200],
      "LargestImagePixelValue": [382, 379, 381, 380, 378, 379, 380, 383, 381, 379, 383, 382, 380, 380, 379, 379, 384, 379, 379, 379, 380, 381, 383, 379, 380, 382, 379, 379, 382, 381, 378, 382, 379, 381, 379, 380, 380, 379, 380, 378, 380, 378, 380, 378, 379, 379, 380, 377, 380, 380, 377, 381, 379, 377, 382, 378, 383, 380, 380, 379, 380, 377, 377, 381, 380, 379, 378, 380, 382, 377, 383, 380, 383, 378, 377, 385, 384, 378, 378, 381, 381, 378, 379, 379, 381, 383, 381, 382, 377, 376, 377, 379, 377, 377, 379, 378, 381, 377, 378, 380, 378, 380, 377, 380, 384, 381, 378, 379, 380, 379, 380, 379, 381, 378, 378, 379, 379, 379, 380, 381, 378, 380, 380, 376, 378, 382, 378, 379, 377, 378, 377, 381, 379, 378, 378, 379, 379, 377, 380, 379, 379, 382, 379, 379, 378, 377, 382, 377, 375, 382, 377, 377, 378, 379, 377, 377, 377, 381, 382, 378, 381, 377, 380, 378, 380, 378, 380, 376, 377, 379, 377, 378, 375, 377, 379, 381, 377, 378, 378, 378, 385, 379, 376, 377, 376, 380, 379, 378, 386, 382, 379, 378, 376, 377, 380, 378, 382, 378, 378, 377],
      "WindowCenter": [310.0, 309.0, 310.0, 309.0, 309.0, 309.0, 309.0, 309.0, 310.0, 309.0, 310.0, 310.0, 309.0, 310.0, 309.0, 309.0, 310.0, 309.0, 310.0, 309.0, 309.0, 309.0, 310.0, 309.0, 309.0, 309.0, 309.0, 310.0, 309.0, 309.0, 309.0, 309.0, 309.0, 309.0, 309.0, 309.0, 309.0, 309.0, 309.0, 309.0, 309.0, 309.0, 309.0, 309.0, 310.0, 309.0, 309.0, 309.0, 309.0, 309.0, 309.0, 309.0, 309.0, 309.0, 309.0, 309.0, 309.0, 309.0, 309.0, 309.0, 309.0, 309.0, 309.0, 309.0, 309.0, 309.0, 309.0, 309.0, 309.0, 309.0, 309.0, 309.0, 309.0, 309.0, 309.0, 309.0, 309.0, 309.0, 309.0, 309.0, 309.0, 309.0, 309.0, 309.0, 309.0, 309.0, 309.0, 309.0, 309.0, 309.0, 308.0, 309.0, 309.0, 309.0, 309.0, 309.0, 309.0, 309.0, 309.0, 309.0, 308.0, 309.0, 309.0, 309.0, 309.0, 309.0, 309.0, 308.0, 309.0, 309.0, 309.0, 309.0, 309.0, 309.0, 309.0, 309.0, 308.0, 309.0, 309.0, 309.0, 309.0, 309.0, 309.0, 309.0, 309.0, 309.0, 309.0, 309.0, 309.0, 309.0, 309.0, 309.0, 309.0, 309.0, 309.0, 309.0, 309.0, 309.0, 309.0, 309.0, 309.0, 309.0, 309.0, 309.0, 309.0, 309.0, 309.0, 309.0, 308.0, 309.0, 309.0, 309.0, 309.0, 309.0, 309.0, 309.0, 309.0, 309.0, 309.0, 309.0, 309.0, 309.0, 309.0, 309.0, 309.0, 309.0, 309.0, 309.0, 309.0, 309.0, 309.0, 308.0, 309.0, 309.0, 308.0, 309.0, 309.0, 309.0, 309.0, 309.0, 309.0, 308.0, 309.0, 308.0, 309.0, 308.0, 309.0, 308.0, 308.0, 308.0, 309.0, 308.0, 309.0, 309.0, 309.0, 308.0, 309.0, 308.0, 309.0, 308.0],
      "WindowWidth": [668.0, 668.0, 669.0, 667.0, 668.0, 668.0, 668.0, 667.0, 669.0, 668.0, 669.0, 668.0, 668.0, 669.0, 668.0, 667.0, 669.0, 667.0, 668.0, 668.0, 667.0, 668.0, 669.0, 667.0, 668.0, 668.0, 668.0, 669.0, 668.0, 668.0, 668.0, 667.0, 667.0, 667.0, 667.0, 668.0, 667.0, 667.0, 667.0, 668.0, 667.0, 668.0, 667.0, 667.0, 668.0, 667.0, 667.0, 668.0, 667.0, 667.0, 667.0, 667.0, 667.0, 667.0, 667.0, 668.0, 667.0, 667.0, 668.0, 667.0, 667.0, 668.0, 667.0, 667.0, 667.0, 667.0, 667.0, 667.0, 667.0, 667.0, 667.0, 667.0, 668.0, 667.0, 667.0, 667.0, 667.0, 667.0, 667.0, 667.0, 667.0, 667.0, 667.0, 668.0, 667.0, 667.0, 667.0, 667.0, 667.0, 668.0, 667.0, 667.0, 667.0, 667.0, 667.0, 667.0, 667.0, 667.0, 667.0, 667.0, 667.0, 667.0, 667.0, 667.0, 667.0, 667.0, 667.0, 667.0, 667.0, 667.0, 667.0, 667.0, 667.0, 667.0, 667.0, 667.0, 667.0, 667.0, 667.0, 667.0, 667.0, 667.0, 667.0, 667.0, 667.0, 667.0, 667.0, 667.0, 667.0, 667.0, 667.0, 667.0, 667.0, 667.0, 667.0, 667.0, 667.0, 667.0, 667.0, 667.0, 667.0, 667.0, 667.0, 667.0, 667.0, 667.0, 667.0, 667.0, 667.0, 667.0, 667.0, 667.0, 667.0, 667.0, 667.0, 667.0, 667.0, 667.0, 667.0, 667.0, 667.0, 667.0, 667.0, 667.0, 667.0, 667.0, 667.0, 667.0, 667.0, 667.0, 667.0, 666.0, 667.0, 667.0, 667.0, 667.0, 667.0, 667.0, 667.0, 667.0, 667.0, 667.0, 667.0, 666.0, 667.0, 666.0, 667.0, 667.0, 666.0, 667.0, 667.0, 666.0, 667.0, 667.0, 667.0, 666.0, 667.0, 666.0, 667.0, 667.0]
    },
    "slices": {}
  }
}