{
  "AcquisitionMatrixPE": 80,
  "AcquisitionNumber": 1,
  "AcquisitionTime": "10:49:27.497500",
  "BandwidthPerPixelPhaseEncode": 25,
  "BaseResolution": 80,
  "BodyPartExamined": "BRAIN",
  "CoilCombinationMethod": "Sum of Squares",
  "ConsistencyInfo": "N4_VE11C_LATEST_20160120",
  "ConversionSoftware": "dcm2niix",
  "ConversionSoftwareVersion": "v1.0.20220720",
  "DerivedVendorReportedEchoSpacing": 0.0005,
  "DeviceSerialNumber": "66112",
  "DwellTime": 2.7e-06,
  "EchoTime": 0.03,
  "EchoTrainLength": 80,
  "EffectiveEchoSpacing": 0.0005,
  "FlipAngle": 77,
  "HeudiconvVersion": "0.13.1",
  "ImageOrientationPatientDICOM": [0.994557, -0.104014, 0.00607494, 0.097342, 0.948389, 0.301799],
  "ImageOrientationText": "Tra>Cor(17.4)>Sag(2.1)",
  "ImageType": [
    "ORIGINAL",
    "PRIMARY",
    "M",
    "ND",
    "NORM",
    "MOSAIC"
],
  "ImagingFrequency": 123.252,
  "InPlanePhaseEncodingDirectionDICOM": "COL",
  "InstitutionAddress": "Maynard 3,Hanover,NH,US,03755",
  "InstitutionName": "Dartmouth College - PBS",
  "InstitutionalDepartmentName": "Department",
  "MRAcquisitionType": "2D",
  "MagneticFieldStrength": 3,
  "Manufacturer": "Siemens",
  "ManufacturersModelName": "Prisma",
  "MatrixCoilMode": "SENSE",
  "Modality": "MR",
  "NonlinearGradientCorrection": false,
  "PartialFourier": 1,
  "PatientPosition": "HFS",
  "PercentPhaseFOV": 100,
  "PercentSampling": 100,
  "PhaseEncodingDirection": "j-",
  "PhaseEncodingSteps": 80,
  "PhaseResolution": 1,
  "PixelBandwidth": 2315,
  "ProcedureStepDescription": "dbic^QA",
  "ProtocolName": "func-bold_fa-77",
  "PulseSequenceDetails": "%SiemensSeq%\\ep2d_bold",
  "ReceiveCoilActiveElements": "HEA;HEP",
  "ReceiveCoilName": "Head_32",
  "ReconMatrixPE": 80,
  "RepetitionTime": 2,
  "SAR": 0.0437666,
  "ScanOptions": "FS",
  "ScanningSequence": "EP",
  "SequenceName": "*epfid2d1_80",
  "SequenceVariant": "SK",
  "SeriesDescription": "func-bold_fa-77",
  "SeriesNumber": 8,
  "ShimSetting": [4147, -7703, -7512, 252, -62, -102, -18, 72],
  "SliceThickness": 3.5,
  "SliceTiming": [0.99, 0, 1.055, 0.065, 1.12, 0.13, 1.1875, 0.1975, 1.2525, 0.2625, 1.32, 0.33, 1.385, 0.395, 1.45, 0.46, 1.5175, 0.5275, 1.5825, 0.5925, 1.65, 0.66, 1.715, 0.725, 1.78, 0.79, 1.8475, 0.8575, 1.9125, 0.9225],
  "SoftwareVersions": "syngo MR E11",
  "SpacingBetweenSlices": 3.99,
  "StationName": "AWP66112",
  "TotalReadoutTime": 0.0395,
  "TxRefAmp": 225.2,
  "dcmmeta_affine": [
    [-2.9836719036102295, 0.2920258641242981, 0.1482389122247696, 107.58012390136719],
    [0.31204137206077576, 2.845167875289917, 1.1952626705169678, -131.1630859375],
    [0.01822480745613575, -0.9053955674171448, 3.8038759231567383, -20.771509170532227],
    [0.0, 0.0, 0.0, 1.0]
],
  "dcmmeta_reorient_transform": [
    [0.0, -1.0, 0.0, 79.0],
    [1.0, 0.0, 0.0, 0.0],
    [0.0, 0.0, 1.0, 0.0],
    [0.0, 0.0, 0.0, 1.0]
],
  "dcmmeta_shape": [80, 80, 30, 200],
  "dcmmeta_slice_dim": 2,
  "dcmmeta_version": 0.6,
  "global": {
    "const": {
      "AccessionNumber": "qa",
      "AcquisitionMatrix": [80, 0, 0, 80],
      "AngioFlag": "N",
      "BitsAllocated": 16,
      "BitsStored": 12,
      "BodyPartExamined": "BRAIN",
      "Columns": 480,
      "EchoNumbers": 1,
      "EchoTime": 30.0,
      "EchoTrainLength": 80,
      "FlipAngle": 77.0,
      "HighBit": 11,
      "ImageOrientationPatient": [0.99455730186619, -0.1040137897591, 0.0060749357694, 0.09734195793503, 0.94838926526642, 0.30179851681676],
      "ImagePositionPatient": [-785.78972524322, -600.23046035387, -277.02182928245],
      "ImageType": [
        "ORIGINAL",
        "PRIMARY",
        "M",
        "ND",
        "NORM",
        "MOSAIC"
],
      "ImagedNucleus": "1H",
      "ImagingFrequency": 123.25234,
      "InPlanePhaseEncodingDirection": "COL",
      "MRAcquisitionType": "2D",
      "MagneticFieldStrength": 3.0,
      "Manufacturer": "SIEMENS",
      "ManufacturerModelName": "Prisma",
      "Modality": "MR",
      "NumberOfAverages": 1.0,
      "NumberOfPhaseEncodingSteps": 80,
      "PercentPhaseFieldOfView": 100.0,
      "PercentSampling": 100.0,
      "PerformedProcedureStepStartTime": "103013.550000",
      "PhotometricInterpretation": "MONOCHROME2",
      "PixelBandwidth": 2315.0,
      "PixelRepresentation": 0,
      "PixelSpacing": [3.0, 3.0],
      "ProtocolName": "func-bold_fa-77",
      "RepetitionTime": 2000.0,
      "Rows": 480,
      "SAR": 0.04376659155732,
      "SamplesPerPixel": 1,
      "ScanOptions": "FS",
      "ScanningSequence": "EP",
      "SequenceName": "*epfid2d1_80",
      "SequenceVariant": "SK",
      "SeriesDescription": "func-bold_fa-77",
      "SeriesNumber": 8,
      "SeriesTime": "105023.379000",
      "SliceLocation": -55.097497307032,
      "SliceThickness": 3.5,
      "SmallestImagePixelValue": 0,
      "SoftwareVersions": "syngo MR E11",
      "SpacingBetweenSlices": 3.989999929239,
      "SpecificCharacterSet": "ISO_IR 100",
      "StudyID": "62",
      "StudyTime": "103013.518000",
      "TransmitCoilName": "Body",
      "VariableFlipAngleFlag": "N",
      "WindowCenterWidthExplanation": "Algo1",
      "dBdt": 0.0},
    "slices": {}
  },
  "time": {
    "samples": {
      "AcquisitionNumber": [1, 2, 3, 4, 5, 6, 7, 8, 9, 10, 11, 12, 13, 14, 15, 16, 17, 18, 19, 20, 21, 22, 23, 24, 25, 26, 27, 28, 29, 30, 31, 32, 33, 34, 35, 36, 37, 38, 39, 40, 41, 42, 43, 44, 45, 46, 47, 48, 49, 50, 51, 52, 53, 54, 55, 56, 57, 58, 59, 60, 61, 62, 63, 64, 65, 66, 67, 68, 69, 70, 71, 72, 73, 74, 75, 76, 77, 78, 79, 80, 81, 82, 83, 84, 85, 86, 87, 88, 89, 90, 91, 92, 93, 94, 95, 96, 97, 98, 99, 100, 101, 102, 103, 104, 105, 106, 107, 108, 109, 110, 111, 112, 113, 114, 115, 116, 117, 118, 119, 120, 121, 122, 123, 124, 125, 126, 127, 128, 129, 130, 131, 132, 133, 134, 135, 136, 137, 138, 139, 140, 141, 142, 143, 144, 145, 146, 147, 148, 149, 150, 151, 152, 153, 154, 155, 156, 157, 158, 159, 160, 161, 162, 163, 164, 165, 166, 167, 168, 169, 170, 171, 172, 173, 174, 175, 176, 177, 178, 179, 180, 181, 182, 183, 184, 185, 186, 187, 188, 189, 190, 191, 192, 193, 194, 195, 196, 197, 198, 199, 200],
      "AcquisitionTime": ["104927.497500", "104929.497500", "104931.497500", "104933.497500", "104935.497500", "104937.497500", "104939.497500", "104941.497500", "104943.497500", "104945.497500", "104947.497500", "104949.497500", "104951.497500", "104953.497500", "104955.497500", "104957.497500", "104959.497500", "105001.497500", "105003.497500", "105005.497500", "105007.497500", "105009.497500", "105011.497500", "105013.497500", "105015.497500", "105017.497500", "105019.497500", "105021.497500", "105023.497500", "105025.497500", "105027.497500", "105029.497500", "105031.497500", "105033.497500", "105035.497500", "105037.497500", "105039.497500", "105041.497500", "105043.497500", "105045.497500", "105047.497500", "105049.497500", "105051.497500", "105053.497500", "105055.497500", "105057.497500", "105059.497500", "105101.497500", "105103.497500", "105105.497500", "105107.497500", "105109.497500", "105111.497500", "105113.497500", "105115.497500", "105117.497500", "105119.497500", "105121.497500", "105123.497500", "105125.497500", "105127.497500", "105129.497500", "105131.497500", "105133.497500", "105135.497500", "105137.497500", "105139.497500", "105141.497500", "105143.497500", "105145.497500", "105147.497500", "105149.497500", "105151.497500", "105153.497500", "105155.497500", "105157.497500", "105159.497500", "105201.497500", "105203.497500", "105205.497500", "105207.497500", "105209.497500", "105211.497500", "105213.497500", "105215.497500", "105217.497500", "105219.497500", "105221.497500", "105223.497500", "105225.497500", "105227.497500", "105229.497500", "105231.497500", "105233.497500", "105235.497500", "105237.497500", "105239.497500", "105241.497500", "105243.497500", "105245.497500", "105247.497500", "105249.497500", "105251.497500", "105253.497500", "105255.497500", "105257.497500", "105259.497500", "105301.497500", "105303.497500", "105305.497500", "105307.497500", "105309.497500", "105311.497500", "105313.497500", "105315.497500", "105317.497500", "105319.497500", "105321.497500", "105323.497500", "105325.497500", "105327.497500", "105329.497500", "105331.497500", "105333.497500", "105335.497500", "105337.497500", "105339.497500", "105341.497500", "105343.497500", "105345.497500", "105347.497500", "105349.497500", "105351.497500", "105353.497500", "105355.497500", "105357.497500", "105359.497500", "105401.497500", "105403.497500", "105405.497500", "105407.497500", "105409.497500", "105411.497500", "105413.497500", "105415.497500", "105417.497500", "105419.497500", "105421.497500", "105423.497500", "105425.497500", "105427.497500", "105429.497500", "105431.497500", "105433.497500", "105435.497500", "105437.497500", "105439.497500", "105441.497500", "105443.497500", "105445.497500", "105447.497500", "105449.497500", "105451.497500", "105453.497500", "105455.497500", "105457.497500", "105459.497500", "105501.497500", "105503.497500", "105505.497500", "105507.497500", "105509.497500", "105511.497500", "105513.497500", "105515.497500", "105517.497500", "105519.497500", "105521.497500", "105523.497500", "105525.497500", "105527.497500", "105529.497500", "105531.497500", "105533.497500", "105535.497500", "105537.497500", "105539.497500", "105541.497500", "105543.497500", "105545.497500", "105547.497500", "105549.497500", "105551.497500", "105553.497500", "105555.497500", "105557.497500", "105559.497500", "105601.497500", "105603.497500", "105605.497500"],
      "ContentTime": ["105023.388000", "105023.391000", "105023.394000", "105023.396000", "105023.399000", "105023.401000", "105023.404000", "105023.406000", "105023.409000", "105023.412000", "105023.414000", "105023.417000", "105023.419000", "105023.422000", "105023.424000", "105023.432000", "105023.434000", "105023.437000", "105023.439000", "105023.442000", "105023.445000", "105023.447000", "105023.450000", "105023.452000", "105023.455000", "105023.457000", "105023.460000", "105023.463000", "105103.377000", "105103.380000", "105103.383000", "105103.386000", "105103.388000", "105103.391000", "105103.393000", "105103.396000", "105103.399000", "105103.401000", "105103.404000", "105103.406000", "105103.409000", "105103.412000", "105103.414000", "105103.417000", "105103.419000", "105103.422000", "105103.424000", "105103.427000", "105143.377000", "105143.379000", "105143.382000", "105143.390000", "105143.393000", "105143.395000", "105143.398000", "105143.400000", "105143.403000", "105143.406000", "105143.408000", "105143.411000", "105143.414000", "105143.416000", "105143.419000", "105143.421000", "105143.424000", "105143.426000", "105143.429000", "105143.432000", "105203.376000", "105203.379000", "105203.382000", "105203.385000", "105203.387000", "105203.390000", "105203.392000", "105203.395000", "105203.397000", "105203.400000", "105243.377000", "105243.380000", "105243.383000", "105243.386000", "105243.388000", "105243.391000", "105243.393000", "105243.396000", "105243.398000", "105243.401000", "105243.404000", "105243.406000", "105243.409000", "105243.411000", "105243.414000", "105243.416000", "105243.419000", "105243.422000", "105243.424000", "105243.427000", "105323.377000", "105323.380000", "105323.383000", "105323.386000", "105323.388000", "105323.391000", "105323.393000", "105323.396000", "105323.400000", "105323.403000", "105323.405000", "105323.408000", "105323.410000", "105323.413000", "105323.416000", "105323.418000", "105323.421000", "105323.423000", "105323.426000", "105323.429000", "105403.376000", "105403.379000", "105403.382000", "105403.385000", "105403.387000", "105403.394000", "105403.397000", "105403.399000", "105403.402000", "105403.404000", "105403.407000", "105403.409000", "105403.412000", "105403.415000", "105403.417000", "105403.420000", "105403.422000", "105403.425000", "105403.427000", "105403.448000", "105443.378000", "105443.380000", "105443.383000", "105443.386000", "105443.388000", "105443.391000", "105443.394000", "105443.396000", "105443.399000", "105443.402000", "105443.404000", "105443.407000", "105443.410000", "105443.412000", "105443.415000", "105443.417000", "105443.420000", "105443.423000", "105443.425000", "105443.428000", "105523.378000", "105523.381000", "105523.383000", "105523.386000", "105523.388000", "105523.391000", "105523.393000", "105523.396000", "105523.399000", "105523.401000", "105523.404000", "105523.406000", "105523.409000", "105523.412000", "105523.414000", "105523.417000", "105523.419000", "105523.422000", "105523.424000", "105523.427000", "105603.377000", "105603.379000", "105603.382000", "105603.385000", "105603.387000", "105603.390000", "105603.393000", "105603.395000", "105603.398000", "105603.401000", "105603.403000", "105603.406000", "105603.408000", "105603.411000", "105603.414000", "105603.416000", "105603.419000", "105603.422000", "105603.424000", "105603.427000", "105607.378000", "105607.381000"],
      "InstanceCreationTime": ["105023.388000", "105023.391000", "105023.394000", "105023.396000", "105023.399000", "105023.401000", "105023.404000", "105023.406000", "105023.409000", "105023.412000", "105023.414000", "105023.417000", "105023.419000", "105023.422000", "105023.424000", "105023.432000", "105023.434000", "105023.437000", "105023.439000", "105023.442000", "105023.445000", "105023.447000", "105023.450000", "105023.452000", "105023.455000", "105023.457000", "105023.460000", "105023.463000", "105103.377000", "105103.380000", "105103.383000", "105103.386000", "105103.388000", "105103.391000", "105103.393000", "105103.396000", "105103.399000", "105103.401000", "105103.404000", "105103.406000", "105103.409000", "105103.412000", "105103.414000", "105103.417000", "105103.419000", "105103.422000", "105103.424000", "105103.427000", "105143.377000", "105143.379000", "105143.382000", "105143.390000", "105143.393000", "105143.395000", "105143.398000", "105143.400000", "105143.403000", "105143.406000", "105143.408000", "105143.411000", "105143.414000", "105143.416000", "105143.419000", "105143.421000", "105143.424000", "105143.426000", "105143.429000", "105143.432000", "105203.376000", "105203.379000", "105203.382000", "105203.385000", "105203.387000", "105203.390000", "105203.392000", "105203.395000", "105203.397000", "105203.400000", "105243.377000", "105243.380000", "105243.383000", "105243.386000", "105243.388000", "105243.391000", "105243.393000", "105243.396000", "105243.398000", "105243.401000", "105243.404000", "105243.406000", "105243.409000", "105243.411000", "105243.414000", "105243.416000", "105243.419000", "105243.422000", "105243.424000", "105243.427000", "105323.377000", "105323.380000", "105323.383000", "105323.386000", "105323.388000", "105323.391000", "105323.393000", "105323.396000", "105323.400000", "105323.403000", "105323.405000", "105323.408000", "105323.410000", "105323.413000", "105323.416000", "105323.418000", "105323.421000", "105323.423000", "105323.426000", "105323.429000", "105403.376000", "105403.379000", "105403.382000", "105403.385000", "105403.387000", "105403.394000", "105403.397000", "105403.399000", "105403.402000", "105403.404000", "105403.407000", "105403.409000", "105403.412000", "105403.415000", "105403.417000", "105403.420000", "105403.422000", "105403.425000", "105403.427000", "105403.448000", "105443.378000", "105443.380000", "105443.383000", "105443.386000", "105443.388000", "105443.391000", "105443.394000", "105443.396000", "105443.399000", "105443.402000", "105443.404000", "105443.407000", "105443.410000", "105443.412000", "105443.415000", "105443.417000", "105443.420000", "105443.423000", "105443.425000", "105443.428000", "105523.378000", "105523.381000", "105523.383000", "105523.386000", "105523.388000", "105523.391000", "105523.393000", "105523.396000", "105523.399000", "105523.401000", "105523.404000", "105523.406000", "105523.409000", "105523.412000", "105523.414000", "105523.417000", "105523.419000", "105523.422000", "105523.424000", "105523.427000", "105603.377000", "105603.379000", "105603.382000", "105603.385000", "105603.387000", "105603.390000", "105603.393000", "105603.395000", "105603.398000", "105603.401000", "105603.403000", "105603.406000", "105603.408000", "105603.411000", "105603.414000", "105603.416000", "105603.419000", "105603.422000", "105603.424000", "105603.427000", "105607.378000", "105607.381000"],
      "InstanceNumber": [1, 2, 3, 4, 5, 6, 7, 8, 9, 10, 11, 12, 13, 14, 15, 16, 17, 18, 19, 20, 21, 22, 23, 24, 25, 26, 27, 28, 29, 30, 31, 32, 33, 34, 35, 36, 37, 38, 39, 40, 41, 42, 43, 44, 45, 46, 47, 48, 49, 50, 51, 52, 53, 54, 55, 56, 57, 58, 59, 60, 61, 62, 63, 64, 65, 66, 67, 68, 69, 70, 71, 72, 73, 74, 75, 76, 77, 78, 79, 80, 81, 82, 83, 84, 85, 86, 87, 88, 89, 90, 91, 92, 93, 94, 95, 96, 97, 98, 99, 100, 101, 102, 103, 104, 105, 106, 107, 108, 109, 110, 111, 112, 113, 114, 115, 116, 117, 118, 119, 120, 121, 122, 123, 124, 125, 126, 127, 128, 129, 130, 131, 132, 133, 134, 135, 136, 137, 138, 139, 140, 141, 142, 143, 144, 145, 146, 147, 148, 149, 150, 151, 152, 153, 154, 155, 156, 157, 158, 159, 160, 161, 162, 163, 164, 165, 166, 167, 168, 169, 170, 171, 172, 173, 174, 175, 176, 177, 178, 179, 180, 181, 182, 183, 184, 185, 186, 187, 188, 189, 190, 191, 192, 193, 194, 195, 196, 197, 198, 199, 200],
      "LargestImagePixelValue": [1928, 1930, 1927, 1929, 1928, 1928, 1930, 1929, 1929, 1930, 1927, 1927, 1929, 1931, 1929, 1930, 1930, 1928, 1928, 1929, 1928, 1929, 1928, 1931, 1927, 1928, 1930, 1928, 1931, 1930, 1932, 1931, 1929, 1932, 1930, 1930, 1930, 1931, 1930, 1931, 1928, 1929, 1930, 1930, 1928, 1930, 1930, 1930, 1932, 1930, 1931, 1930, 1927, 1932, 1929, 1931, 1933, 1932, 1932, 1932, 1931, 1931, 1932, 1930, 1930, 1929, 1932, 1930, 1929, 1930, 1931, 1929, 1930, 1932, 1930, 1931, 1931, 1930, 1932, 1932, 1930, 1931, 1930, 1929, 1931, 1931, 1930, 1929, 1931, 1931, 1931, 1929, 1930, 1932, 1932, 1930, 1931, 1932, 1933, 1932, 1934, 1932, 1931, 1932, 1931, 1934, 1934, 1932, 1931, 1931, 1932, 1933, 1930, 1933, 1931, 1934, 1932, 1934, 1934, 1931, 1934, 1931, 1931, 1933, 1931, 1932, 1932, 1930, 1932, 1930, 1932, 1933, 1931, 1931, 1934, 1932, 1932, 1933, 1931, 1933, 1932, 1932, 1930, 1935, 1932, 1933, 1933, 1933, 1934, 1933, 1933, 1932, 1933, 1933, 1933, 1934, 1933, 1933, 1933, 1932, 1933, 1931, 1932, 1932, 1933, 1934, 1932, 1934, 1933, 1934, 1934, 1932, 1933, 1934, 1932, 1935, 1933, 1932, 1933, 1933, 1934, 1934, 1933, 1934, 1934, 1934, 1936, 1934, 1933, 1933, 1935, 1934, 1936, 1933, 1936, 1933, 1933, 1934, 1935, 1934],
      "WindowCenter": [963.0, 962.0, 961.0, 963.0, 962.0, 962.0, 962.0, 962.0, 963.0, 963.0, 962.0, 963.0, 961.0, 963.0, 963.0, 962.0, 960.0, 963.0, 963.0, 963.0, 963.0, 962.0, 962.0, 962.0, 961.0, 962.0, 961.0, 963.0, 961.0, 963.0, 963.0, 961.0, 963.0, 962.0, 963.0, 963.0, 963.0, 963.0, 963.0, 962.0, 962.0, 962.0, 962.0, 962.0, 961.0, 962.0, 962.0, 962.0, 962.0, 962.0, 961.0, 962.0, 962.0, 961.0, 961.0, 962.0, 962.0, 962.0, 961.0, 961.0, 962.0, 962.0, 962.0, 961.0, 961.0, 962.0, 961.0, 961.0, 961.0, 961.0, 961.0, 961.0, 961.0, 961.0, 961.0, 961.0, 961.0, 961.0, 961.0, 961.0, 961.0, 962.0, 962.0, 961.0, 961.0, 961.0, 961.0, 961.0, 962.0, 962.0, 961.0, 962.0, 962.0, 961.0, 961.0, 961.0, 961.0, 961.0, 961.0, 961.0, 961.0, 962.0, 961.0, 962.0, 960.0, 962.0, 961.0, 961.0, 961.0, 961.0, 962.0, 961.0, 960.0, 960.0, 962.0, 961.0, 961.0, 961.0, 961.0, 961.0, 961.0, 960.0, 961.0, 961.0, 961.0, 961.0, 961.0, 962.0, 961.0, 961.0, 961.0, 961.0, 962.0, 960.0, 962.0, 961.0, 961.0, 961.0, 961.0, 960.0, 962.0, 961.0, 961.0, 961.0, 960.0, 962.0, 960.0, 960.0, 961.0, 962.0, 961.0, 961.0, 962.0, 961.0, 960.0, 962.0, 960.0, 960.0, 962.0, 962.0, 961.0, 962.0, 960.0, 961.0, 960.0, 960.0, 961.0, 961.0, 961.0, 961.0, 960.0, 961.0, 961.0, 962.0, 962.0, 960.0, 961.0, 960.0, 959.0, 962.0, 962.0, 960.0, 961.0, 962.0, 961.0, 961.0, 960.0, 961.0, 961.0, 960.0, 960.0, 961.0, 961.0, 961.0, 961.0, 961.0, 961.0, 961.0, 961.0, 961.0],
      "WindowWidth": [2101.0, 2101.0, 2100.0, 2102.0, 2101.0, 2101.0, 2100.0, 2100.0, 2101.0, 2102.0, 2100.0, 2101.0, 2100.0, 2101.0, 2101.0, 2101.0, 2099.0, 2101.0, 2101.0, 2101.0, 2101.0, 2100.0, 2100.0, 2100.0, 2099.0, 2100.0, 2099.0, 2101.0, 2099.0, 2101.0, 2101.0, 2099.0, 2101.0, 2100.0, 2101.0, 2101.0, 2101.0, 2101.0, 2101.0, 2100.0, 2100.0, 2100.0, 2101.0, 2100.0, 2099.0, 2101.0, 2101.0, 2100.0, 2100.0, 2100.0, 2099.0, 2101.0, 2100.0, 2099.0, 2099.0, 2100.0, 2100.0, 2100.0, 2100.0, 2100.0, 2100.0, 2100.0, 2100.0, 2100.0, 2100.0, 2099.0, 2100.0, 2099.0, 2100.0, 2100.0, 2100.0, 2100.0, 2100.0, 2100.0, 2100.0, 2100.0, 2100.0, 2100.0, 2100.0, 2099.0, 2100.0, 2100.0, 2100.0, 2099.0, 2098.0, 2100.0, 2098.0, 2099.0, 2100.0, 2100.0, 2099.0, 2100.0, 2100.0, 2099.0, 2099.0, 2099.0, 2099.0, 2099.0, 2099.0, 2099.0, 2099.0, 2100.0, 2099.0, 2099.0, 2098.0, 2099.0, 2099.0, 2099.0, 2099.0, 2099.0, 2099.0, 2099.0, 2098.0, 2098.0, 2099.0, 2099.0, 2099.0, 2099.0, 2099.0, 2099.0, 2099.0, 2098.0, 2099.0, 2099.0, 2099.0, 2099.0, 2099.0, 2099.0, 2099.0, 2099.0, 2099.0, 2099.0, 2099.0, 2098.0, 2099.0, 2099.0, 2098.0, 2098.0, 2098.0, 2098.0, 2099.0, 2098.0, 2098.0, 2098.0, 2098.0, 2099.0, 2098.0, 2098.0, 2098.0, 2099.0, 2098.0, 2098.0, 2099.0, 2098.0, 2098.0, 2099.0, 2098.0, 2097.0, 2099.0, 2098.0, 2098.0, 2098.0, 2098.0, 2098.0, 2097.0, 2098.0, 2098.0, 2098.0, 2098.0, 2098.0, 2097.0, 2098.0, 2098.0, 2098.0, 2098.0, 2097.0, 2098.0, 2097.0, 2097.0, 2098.0, 2098.0, 2097.0, 2098.0, 2098.0, 2098.0, 2098.0, 2097.0, 2098.0, 2098.0, 2097.0, 2097.0, 2098.0, 2098.0, 2098.0, 2098.0, 2098.0, 2098.0, 2097.0, 2098.0, 2098.0]
    },
    "slices": {}
  }
}