{
  "AcquisitionMatrixPE": 80,
  "AcquisitionNumber": 1,
  "AcquisitionTime": "13:08:35.200000",
  "BandwidthPerPixelPhaseEncode": 48.077,
  "BaseResolution": 80,
  "BodyPartExamined": "BRAIN",
  "CoilCombinationMethod": "Sum of Squares",
  "ConsistencyInfo": "N4_VE11C_LATEST_20160120",
  "ConversionSoftware": "dcm2niix",
  "ConversionSoftwareVersion": "v1.0.20220720",
  "DerivedVendorReportedEchoSpacing": 0.000519999,
  "DeviceSerialNumber": "66112",
  "DwellTime": 2.7e-06,
  "EchoTime": 0.035,
  "EchoTrainLength": 39,
  "EffectiveEchoSpacing": 0.00026,
  "FlipAngle": 90,
  "HeudiconvVersion": "0.13.1",
  "ImageOrientationPatientDICOM": [0.986644, 0.1627, 0.00790791, -0.156975, 0.936716, 0.312925],
  "ImageOrientationText": "Tra>Cor(18.1)>Sag(-2.5)",
  "ImageType": [
    "ORIGINAL",
    "PRIMARY",
    "M",
    "ND",
    "NORM",
    "MOSAIC"
],
  "ImagingFrequency": 123.252,
  "InPlanePhaseEncodingDirectionDICOM": "COL",
  "InstitutionAddress": "Maynard 3,Hanover,NH,US,03755",
  "InstitutionName": "Dartmouth College - PBS",
  "InstitutionalDepartmentName": "Department",
  "MRAcquisitionType": "2D",
  "MagneticFieldStrength": 3,
  "Manufacturer": "Siemens",
  "ManufacturersModelName": "Prisma",
  "MatrixCoilMode": "GRAPPA",
  "Modality": "MR",
  "NonlinearGradientCorrection": false,
  "ParallelReductionFactorInPlane": 2,
  "PartialFourier": 1,
  "PatientPosition": "HFS",
  "PercentPhaseFOV": 100,
  "PercentSampling": 100,
  "PhaseEncodingDirection": "j-",
  "PhaseEncodingSteps": 79,
  "PhaseResolution": 1,
  "PixelBandwidth": 2315,
  "ProcedureStepDescription": "dbic^QA",
  "ProtocolName": "func-bold_task-rest_acq-p2",
  "PulseSequenceDetails": "%SiemensSeq%\\ep2d_bold",
  "ReceiveCoilActiveElements": "HEA;HEP",
  "ReceiveCoilName": "Head_32",
  "ReconMatrixPE": 80,
  "RefLinesPE": 24,
  "RepetitionTime": 2,
  "SAR": 0.0553956,
  "ScanOptions": "FS",
  "ScanningSequence": "EP",
  "SequenceName": "*epfid2d1_80",
  "SequenceVariant": "SK",
  "SeriesDescription": "func-bold_task-rest_acq-p2",
  "SeriesNumber": 5,
  "ShimSetting": [4147, -7688, -7508, 293, -35, -243, -89, 56],
  "SliceThickness": 3.5,
  "SliceTiming": [0.99, 0, 1.0575, 0.0675, 1.1225, 0.1325, 1.1875, 0.1975, 1.255, 0.265, 1.32, 0.33, 1.3875, 0.3975, 1.4525, 0.4625, 1.5175, 0.5275, 1.585, 0.595, 1.65, 0.66, 1.715, 0.7275, 1.7825, 0.7925, 1.8475, 0.8575, 1.915, 0.925],
  "SoftwareVersions": "syngo MR E11",
  "SpacingBetweenSlices": 3.99,
  "StationName": "AWP66112",
  "TaskName": "rest",
  "TotalReadoutTime": 0.02054,
  "TxRefAmp": 236.183,
  "dcmmeta_affine": [
    [-2.9599316120147705, -0.47092556953430176, -0.17358677089214325, 140.07469177246094],
    [-0.4881010055541992, 2.810148239135742, 1.2368457317352295, -100.5538330078125],
    [0.023723730817437172, -0.938773512840271, 3.789482831954956, -16.798154830932617],
    [0.0, 0.0, 0.0, 1.0]
],
  "dcmmeta_reorient_transform": [
    [0.0, -1.0, 0.0, 79.0],
    [1.0, 0.0, 0.0, 0.0],
    [0.0, 0.0, 1.0, 0.0],
    [0.0, 0.0, 0.0, 1.0]
],
  "dcmmeta_shape": [80, 80, 30, 200],
  "dcmmeta_slice_dim": 2,
  "dcmmeta_version": 0.6,
  "global": {
    "const": {
      "AccessionNumber": "qa",
      "AcquisitionMatrix": [80, 0, 0, 80],
      "AngioFlag": "N",
      "BitsAllocated": 16,
      "BitsStored": 12,
      "BodyPartExamined": "BRAIN",
      "Columns": 480,
      "EchoNumbers": 1,
      "EchoTime": 35.0,
      "EchoTrainLength": 39,
      "FlipAngle": 90.0,
      "HighBit": 11,
      "ImageOrientationPatient": [0.98664383890772, 0.16270033833975, 0.00790791056955, -0.1569751903681, 0.93671609383647, 0.3129245103162],
      "ImagePositionPatient": [-600.67276227375, -781.09774117054, -283.46071541323],
      "ImageType": [
        "ORIGINAL",
        "PRIMARY",
        "M",
        "ND",
        "NORM",
        "MOSAIC"
],
      "ImagedNucleus": "1H",
      "ImagingFrequency": 123.252448,
      "InPlanePhaseEncodingDirection": "COL",
      "MRAcquisitionType": "2D",
      "MagneticFieldStrength": 3.0,
      "Manufacturer": "SIEMENS",
      "ManufacturerModelName": "Prisma",
      "Modality": "MR",
      "NumberOfAverages": 1.0,
      "NumberOfPhaseEncodingSteps": 79,
      "PercentPhaseFieldOfView": 100.0,
      "PercentSampling": 100.0,
      "PerformedProcedureStepStartTime": "125923.932000",
      "PhotometricInterpretation": "MONOCHROME2",
      "PixelBandwidth": 2315.0,
      "PixelRepresentation": 0,
      "PixelSpacing": [3.0, 3.0],
      "ProtocolName": "func-bold_task-rest_acq-p2",
      "RepetitionTime": 2000.0,
      "Rows": 480,
      "SAR": 0.05539556434785,
      "SamplesPerPixel": 1,
      "ScanOptions": "FS",
      "ScanningSequence": "EP",
      "SequenceName": "*epfid2d1_80",
      "SequenceVariant": "SK",
      "SeriesDescription": "func-bold_task-rest_acq-p2",
      "SeriesNumber": 5,
      "SeriesTime": "130925.602000",
      "SliceLocation": -53.218296620872,
      "SliceThickness": 3.5,
      "SmallestImagePixelValue": 0,
      "SoftwareVersions": "syngo MR E11",
      "SpacingBetweenSlices": 3.9900000158441,
      "SpecificCharacterSet": "ISO_IR 100",
      "StudyID": "59",
      "StudyTime": "125923.858000",
      "TransmitCoilName": "Body",
      "VariableFlipAngleFlag": "N",
      "WindowCenterWidthExplanation": "Algo1",
      "dBdt": 0.0},
    "slices": {}
  },
  "time": {
    "samples": {
      "AcquisitionNumber": [1, 2, 3, 4, 5, 6, 7, 8, 9, 10, 11, 12, 13, 14, 15, 16, 17, 18, 19, 20, 21, 22, 23, 24, 25, 26, 27, 28, 29, 30, 31, 32, 33, 34, 35, 36, 37, 38, 39, 40, 41, 42, 43, 44, 45, 46, 47, 48, 49, 50, 51, 52, 53, 54, 55, 56, 57, 58, 59, 60, 61, 62, 63, 64, 65, 66, 67, 68, 69, 70, 71, 72, 73, 74, 75, 76, 77, 78, 79, 80, 81, 82, 83, 84, 85, 86, 87, 88, 89, 90, 91, 92, 93, 94, 95, 96, 97, 98, 99, 100, 101, 102, 103, 104, 105, 106, 107, 108, 109, 110, 111, 112, 113, 114, 115, 116, 117, 118, 119, 120, 121, 122, 123, 124, 125, 126, 127, 128, 129, 130, 131, 132, 133, 134, 135, 136, 137, 138, 139, 140, 141, 142, 143, 144, 145, 146, 147, 148, 149, 150, 151, 152, 153, 154, 155, 156, 157, 158, 159, 160, 161, 162, 163, 164, 165, 166, 167, 168, 169, 170, 171, 172, 173, 174, 175, 176, 177, 178, 179, 180, 181, 182, 183, 184, 185, 186, 187, 188, 189, 190, 191, 192, 193, 194, 195, 196, 197, 198, 199, 200],
      "AcquisitionTime": ["130835.200000", "130837.200000", "130839.200000", "130841.200000", "130843.200000", "130845.200000", "130847.200000", "130849.200000", "130851.200000", "130853.200000", "130855.200000", "130857.200000", "130859.200000", "130901.200000", "130903.200000", "130905.200000", "130907.200000", "130909.200000", "130911.200000", "130913.200000", "130915.200000", "130917.200000", "130919.200000", "130921.200000", "130923.200000", "130925.200000", "130927.200000", "130929.200000", "130931.200000", "130933.200000", "130935.200000", "130937.200000", "130939.200000", "130941.200000", "130943.200000", "130945.200000", "130947.200000", "130949.200000", "130951.200000", "130953.200000", "130955.200000", "130957.200000", "130959.200000", "131001.200000", "131003.200000", "131005.200000", "131007.200000", "131009.200000", "131011.200000", "131013.200000", "131015.200000", "131017.200000", "131019.200000", "131021.200000", "131023.200000", "131025.200000", "131027.200000", "131029.200000", "131031.200000", "131033.200000", "131035.200000", "131037.200000", "131039.200000", "131041.200000", "131043.200000", "131045.200000", "131047.200000", "131049.200000", "131051.200000", "131053.200000", "131055.200000", "131057.200000", "131059.200000", "131101.200000", "131103.200000", "131105.200000", "131107.200000", "131109.200000", "131111.200000", "131113.200000", "131115.200000", "131117.200000", "131119.200000", "131121.200000", "131123.200000", "131125.200000", "131127.200000", "131129.200000", "131131.200000", "131133.200000", "131135.200000", "131137.200000", "131139.200000", "131141.200000", "131143.200000", "131145.200000", "131147.200000", "131149.200000", "131151.200000", "131153.200000", "131155.200000", "131157.200000", "131159.200000", "131201.200000", "131203.200000", "131205.200000", "131207.200000", "131209.200000", "131211.200000", "131213.200000", "131215.200000", "131217.200000", "131219.200000", "131221.200000", "131223.200000", "131225.200000", "131227.200000", "131229.200000", "131231.200000", "131233.200000", "131235.200000", "131237.200000", "131239.200000", "131241.200000", "131243.200000", "131245.200000", "131247.200000", "131249.200000", "131251.200000", "131253.200000", "131255.200000", "131257.200000", "131259.200000", "131301.200000", "131303.200000", "131305.200000", "131307.200000", "131309.200000", "131311.200000", "131313.200000", "131315.200000", "131317.200000", "131319.200000", "131321.200000", "131323.200000", "131325.200000", "131327.200000", "131329.200000", "131331.200000", "131333.200000", "131335.200000", "131337.200000", "131339.200000", "131341.200000", "131343.200000", "131345.200000", "131347.200000", "131349.200000", "131351.200000", "131353.200000", "131355.200000", "131357.200000", "131359.200000", "131401.200000", "131403.200000", "131405.200000", "131407.200000", "131409.200000", "131411.200000", "131413.200000", "131415.200000", "131417.200000", "131419.200000", "131421.200000", "131423.200000", "131425.200000", "131427.200000", "131429.200000", "131431.200000", "131433.200000", "131435.200000", "131437.200000", "131439.200000", "131441.200000", "131443.200000", "131445.200000", "131447.200000", "131449.200000", "131451.200000", "131453.200000", "131455.200000", "131457.200000", "131459.200000", "131501.200000", "131503.200000", "131505.200000", "131507.200000", "131509.200000", "131511.200000", "131513.200000"],
      "ContentTime": ["130925.606000", "130925.609000", "130925.612000", "130925.614000", "130925.617000", "130925.620000", "130925.622000", "130925.625000", "130925.627000", "130925.630000", "130925.643000", "130925.645000", "130925.648000", "130925.650000", "130925.653000", "130925.655000", "130925.658000", "130925.661000", "130925.663000", "130925.666000", "130925.668000", "130925.671000", "130925.673000", "130925.676000", "130925.685000", "131005.600000", "131005.603000", "131005.606000", "131005.609000", "131005.611000", "131005.614000", "131005.616000", "131005.619000", "131005.621000", "131005.624000", "131005.626000", "131005.629000", "131005.640000", "131005.642000", "131005.645000", "131005.647000", "131005.650000", "131005.653000", "131005.655000", "131005.658000", "131045.601000", "131045.604000", "131045.606000", "131045.609000", "131045.611000", "131045.614000", "131045.616000", "131045.619000", "131045.621000", "131045.633000", "131045.635000", "131045.638000", "131045.640000", "131045.643000", "131045.646000", "131045.648000", "131045.651000", "131045.653000", "131045.656000", "131045.658000", "131125.599000", "131125.602000", "131125.605000", "131125.608000", "131125.610000", "131125.613000", "131125.615000", "131125.618000", "131125.620000", "131125.623000", "131125.625000", "131125.628000", "131125.630000", "131125.633000", "131125.636000", "131125.638000", "131125.641000", "131125.643000", "131125.646000", "131125.649000", "131205.600000", "131205.603000", "131205.606000", "131205.609000", "131205.611000", "131205.614000", "131205.616000", "131205.619000", "131205.621000", "131205.624000", "131205.627000", "131205.629000", "131205.632000", "131205.634000", "131205.637000", "131205.639000", "131205.642000", "131205.644000", "131205.647000", "131205.649000", "131245.601000", "131245.604000", "131245.606000", "131245.618000", "131245.620000", "131245.623000", "131245.625000", "131245.628000", "131245.631000", "131245.633000", "131245.636000", "131245.638000", "131245.641000", "131245.643000", "131245.646000", "131245.648000", "131245.651000", "131245.654000", "131245.656000", "131245.659000", "131325.599000", "131325.603000", "131325.605000", "131325.608000", "131325.610000", "131325.613000", "131325.615000", "131325.618000", "131325.620000", "131325.623000", "131325.626000", "131325.628000", "131325.631000", "131325.634000", "131325.636000", "131325.639000", "131325.641000", "131325.644000", "131325.646000", "131325.649000", "131405.600000", "131405.603000", "131405.606000", "131405.608000", "131405.611000", "131405.614000", "131405.616000", "131405.619000", "131405.621000", "131405.624000", "131405.627000", "131405.629000", "131405.632000", "131405.634000", "131405.637000", "131405.639000", "131405.642000", "131405.644000", "131405.647000", "131405.649000", "131445.601000", "131445.603000", "131445.606000", "131445.609000", "131445.611000", "131445.614000", "131445.616000", "131445.619000", "131445.621000", "131445.624000", "131445.627000", "131445.629000", "131445.632000", "131445.634000", "131445.637000", "131445.639000", "131445.642000", "131445.645000", "131445.647000", "131445.650000", "131514.499000", "131514.503000", "131514.506000", "131514.509000", "131514.511000", "131514.514000", "131514.517000", "131514.519000", "131514.522000", "131514.525000", "131514.533000", "131514.538000", "131514.542000", "131514.545000", "131514.548000"],
      "InstanceCreationTime": ["130925.606000", "130925.609000", "130925.612000", "130925.614000", "130925.617000", "130925.620000", "130925.622000", "130925.625000", "130925.627000", "130925.630000", "130925.643000", "130925.645000", "130925.648000", "130925.650000", "130925.653000", "130925.655000", "130925.658000", "130925.661000", "130925.663000", "130925.666000", "130925.668000", "130925.671000", "130925.673000", "130925.676000", "130925.685000", "131005.600000", "131005.603000", "131005.606000", "131005.609000", "131005.611000", "131005.614000", "131005.616000", "131005.619000", "131005.621000", "131005.624000", "131005.626000", "131005.629000", "131005.640000", "131005.642000", "131005.645000", "131005.647000", "131005.650000", "131005.653000", "131005.655000", "131005.658000", "131045.601000", "131045.604000", "131045.606000", "131045.609000", "131045.611000", "131045.614000", "131045.616000", "131045.619000", "131045.621000", "131045.633000", "131045.635000", "131045.638000", "131045.640000", "131045.643000", "131045.646000", "131045.648000", "131045.651000", "131045.653000", "131045.656000", "131045.658000", "131125.599000", "131125.602000", "131125.605000", "131125.608000", "131125.610000", "131125.613000", "131125.615000", "131125.618000", "131125.620000", "131125.623000", "131125.625000", "131125.628000", "131125.630000", "131125.633000", "131125.636000", "131125.638000", "131125.641000", "131125.643000", "131125.646000", "131125.649000", "131205.600000", "131205.603000", "131205.606000", "131205.609000", "131205.611000", "131205.614000", "131205.616000", "131205.619000", "131205.621000", "131205.624000", "131205.627000", "131205.629000", "131205.632000", "131205.634000", "131205.637000", "131205.639000", "131205.642000", "131205.644000", "131205.647000", "131205.649000", "131245.601000", "131245.604000", "131245.606000", "131245.618000", "131245.620000", "131245.623000", "131245.625000", "131245.628000", "131245.631000", "131245.633000", "131245.636000", "131245.638000", "131245.641000", "131245.643000", "131245.646000", "131245.648000", "131245.651000", "131245.654000", "131245.656000", "131245.659000", "131325.599000", "131325.603000", "131325.605000", "131325.608000", "131325.610000", "131325.613000", "131325.615000", "131325.618000", "131325.620000", "131325.623000", "131325.626000", "131325.628000", "131325.631000", "131325.634000", "131325.636000", "131325.639000", "131325.641000", "131325.644000", "131325.646000", "131325.649000", "131405.600000", "131405.603000", "131405.606000", "131405.608000", "131405.611000", "131405.614000", "131405.616000", "131405.619000", "131405.621000", "131405.624000", "131405.627000", "131405.629000", "131405.632000", "131405.634000", "131405.637000", "131405.639000", "131405.642000", "131405.644000", "131405.647000", "131405.649000", "131445.601000", "131445.603000", "131445.606000", "131445.609000", "131445.611000", "131445.614000", "131445.616000", "131445.619000", "131445.621000", "131445.624000", "131445.627000", "131445.629000", "131445.632000", "131445.634000", "131445.637000", "131445.639000", "131445.642000", "131445.645000", "131445.647000", "131445.650000", "131514.499000", "131514.503000", "131514.506000", "131514.509000", "131514.511000", "131514.514000", "131514.517000", "131514.519000", "131514.522000", "131514.525000", "131514.533000", "131514.538000", "131514.542000", "131514.545000", "131514.548000"],
      "InstanceNumber": [1, 2, 3, 4, 5, 6, 7, 8, 9, 10, 11, 12, 13, 14, 15, 16, 17, 18, 19, 20, 21, 22, 23, 24, 25, 26, 27, 28, 29, 30, 31, 32, 33, 34, 35, 36, 37, 38, 39, 40, 41, 42, 43, 44, 45, 46, 47, 48, 49, 50, 51, 52, 53, 54, 55, 56, 57, 58, 59, 60, 61, 62, 63, 64, 65, 66, 67, 68, 69, 70, 71, 72, 73, 74, 75, 76, 77, 78, 79, 80, 81, 82, 83, 84, 85, 86, 87, 88, 89, 90, 91, 92, 93, 94, 95, 96, 97, 98, 99, 100, 101, 102, 103, 104, 105, 106, 107, 108, 109, 110, 111, 112, 113, 114, 115, 116, 117, 118, 119, 120, 121, 122, 123, 124, 125, 126, 127, 128, 129, 130, 131, 132, 133, 134, 135, 136, 137, 138, 139, 140, 141, 142, 143, 144, 145, 146, 147, 148, 149, 150, 151, 152, 153, 154, 155, 156, 157, 158, 159, 160, 161, 162, 163, 164, 165, 166, 167, 168, 169, 170, 171, 172, 173, 174, 175, 176, 177, 178, 179, 180, 181, 182, 183, 184, 185, 186, 187, 188, 189, 190, 191, 192, 193, 194, 195, 196, 197, 198, 199, 200],
      "LargestImagePixelValue": [1941, 1944, 1939, 1937, 1939, 1939, 1930, 1939, 1941, 1939, 1942, 1939, 1934, 1935, 1946, 1944, 1939, 1936, 1933, 1941, 1937, 1936, 1944, 1944, 1938, 1937, 1938, 1940, 1940, 1942, 1934, 1933, 1935, 1934, 1941, 1944, 1942, 1934, 1937, 1935, 1935, 1939, 1935, 1940, 1943, 1933, 1940, 1940, 1944, 1944, 1940, 1944, 1933, 1937, 1938, 1938, 1934, 1937, 1942, 1936, 1944, 1940, 1939, 1932, 1935, 1942, 1933, 1937, 1937, 1931, 1934, 1943, 1933, 1941, 1935, 1938, 1932, 1941, 1939, 1936, 1942, 1943, 1937, 1934, 1937, 1936, 1940, 1942, 1945, 1932, 1942, 1935, 1933, 1931, 1925, 1930, 1928, 1937, 1935, 1941, 1936, 1936, 1934, 1937, 1940, 1930, 1932, 1941, 1939, 1938, 1931, 1932, 1931, 1932, 1927, 1935, 1943, 1944, 1928, 1931, 1933, 1928, 1925, 1933, 1933, 1933, 1931, 1932, 1931, 1935, 1933, 1926, 1930, 1939, 1938, 1935, 1934, 1937, 1933, 1926, 1933, 1935, 1939, 1935, 1933, 1937, 1929, 1928, 1930, 1933, 1935, 1931, 1931, 1933, 1930, 1933, 1937, 1930, 1937, 1936, 1927, 1925, 1927, 1924, 1933, 1933, 1934, 1935, 1931, 1939, 1931, 1928, 1934, 1938, 1922, 1929, 1927, 1933, 1934, 1931, 1932, 1932, 1933, 1933, 1933, 1929, 1929, 1934, 1930, 1934, 1934, 1932, 1937, 1923, 1929, 1926, 1932, 1941, 1935, 1931],
      "WindowCenter": [949.0, 949.0, 949.0, 949.0, 949.0, 949.0, 949.0, 949.0, 949.0, 949.0, 949.0, 949.0, 949.0, 948.0, 949.0, 949.0, 949.0, 949.0, 949.0, 949.0, 949.0, 949.0, 949.0, 948.0, 949.0, 948.0, 948.0, 949.0, 949.0, 949.0, 949.0, 949.0, 949.0, 949.0, 949.0, 949.0, 949.0, 949.0, 949.0, 949.0, 949.0, 949.0, 949.0, 949.0, 949.0, 949.0, 949.0, 949.0, 949.0, 949.0, 949.0, 949.0, 949.0, 948.0, 949.0, 949.0, 949.0, 949.0, 949.0, 949.0, 949.0, 949.0, 949.0, 948.0, 949.0, 949.0, 949.0, 949.0, 949.0, 949.0, 949.0, 949.0, 948.0, 949.0, 949.0, 949.0, 949.0, 949.0, 948.0, 949.0, 949.0, 949.0, 948.0, 949.0, 948.0, 949.0, 949.0, 948.0, 948.0, 949.0, 948.0, 949.0, 948.0, 948.0, 948.0, 949.0, 949.0, 948.0, 948.0, 948.0, 949.0, 949.0, 948.0, 949.0, 948.0, 948.0, 948.0, 948.0, 948.0, 948.0, 948.0, 949.0, 949.0, 948.0, 948.0, 949.0, 948.0, 949.0, 948.0, 948.0, 948.0, 948.0, 949.0, 948.0, 948.0, 948.0, 948.0, 949.0, 948.0, 948.0, 948.0, 948.0, 949.0, 948.0, 948.0, 949.0, 949.0, 948.0, 948.0, 948.0, 949.0, 948.0, 948.0, 948.0, 948.0, 949.0, 948.0, 948.0, 948.0, 949.0, 948.0, 949.0, 948.0, 949.0, 948.0, 948.0, 949.0, 948.0, 949.0, 949.0, 949.0, 949.0, 948.0, 948.0, 948.0, 948.0, 948.0, 948.0, 949.0, 948.0, 948.0, 948.0, 949.0, 948.0, 948.0, 949.0, 948.0, 948.0, 948.0, 949.0, 948.0, 948.0, 948.0, 949.0, 949.0, 949.0, 948.0, 949.0, 948.0, 948.0, 948.0, 948.0, 949.0, 948.0, 948.0, 948.0, 948.0, 949.0, 948.0, 948.0],
      "WindowWidth": [2055.0, 2055.0, 2055.0, 2055.0, 2055.0, 2055.0, 2055.0, 2055.0, 2054.0, 2054.0, 2054.0, 2054.0, 2055.0, 2054.0, 2054.0, 2054.0, 2054.0, 2054.0, 2054.0, 2054.0, 2054.0, 2055.0, 2054.0, 2054.0, 2054.0, 2054.0, 2054.0, 2054.0, 2054.0, 2054.0, 2054.0, 2054.0, 2054.0, 2054.0, 2055.0, 2054.0, 2054.0, 2055.0, 2054.0, 2054.0, 2054.0, 2054.0, 2054.0, 2054.0, 2054.0, 2054.0, 2055.0, 2055.0, 2055.0, 2054.0, 2054.0, 2054.0, 2054.0, 2054.0, 2054.0, 2053.0, 2054.0, 2054.0, 2054.0, 2054.0, 2055.0, 2054.0, 2054.0, 2054.0, 2054.0, 2054.0, 2055.0, 2054.0, 2054.0, 2054.0, 2055.0, 2054.0, 2054.0, 2054.0, 2054.0, 2054.0, 2055.0, 2054.0, 2054.0, 2055.0, 2054.0, 2054.0, 2054.0, 2054.0, 2054.0, 2054.0, 2054.0, 2054.0, 2054.0, 2054.0, 2054.0, 2054.0, 2054.0, 2054.0, 2054.0, 2054.0, 2054.0, 2054.0, 2054.0, 2054.0, 2054.0, 2054.0, 2054.0, 2054.0, 2054.0, 2054.0, 2054.0, 2054.0, 2054.0, 2054.0, 2054.0, 2054.0, 2054.0, 2054.0, 2054.0, 2054.0, 2054.0, 2054.0, 2053.0, 2053.0, 2053.0, 2053.0, 2054.0, 2053.0, 2053.0, 2053.0, 2053.0, 2054.0, 2053.0, 2053.0, 2053.0, 2053.0, 2054.0, 2053.0, 2053.0, 2054.0, 2054.0, 2053.0, 2053.0, 2053.0, 2054.0, 2053.0, 2053.0, 2053.0, 2053.0, 2054.0, 2053.0, 2053.0, 2053.0, 2054.0, 2053.0, 2054.0, 2053.0, 2054.0, 2053.0, 2054.0, 2054.0, 2054.0, 2054.0, 2054.0, 2054.0, 2054.0, 2053.0, 2053.0, 2053.0, 2053.0, 2053.0, 2053.0, 2054.0, 2053.0, 2053.0, 2053.0, 2054.0, 2053.0, 2053.0, 2054.0, 2053.0, 2053.0, 2053.0, 2054.0, 2053.0, 2053.0, 2053.0, 2054.0, 2054.0, 2054.0, 2053.0, 2054.0, 2053.0, 2053.0, 2053.0, 2053.0, 2054.0, 2053.0, 2053.0, 2053.0, 2053.0, 2054.0, 2053.0, 2053.0]
    },
    "slices": {}
  }
}