{
  "AcquisitionMatrixPE": 80,
  "AcquisitionNumber": 1,
  "AcquisitionTime": "13:15:29.125000",
  "BandwidthPerPixelPhaseEncode": 44.643,
  "BaseResolution": 80,
  "BodyPartExamined": "BRAIN",
  "CoilCombinationMethod": "Sum of Squares",
  "ConsistencyInfo": "N4_VE11C_LATEST_20160120",
  "ConversionSoftware": "dcm2niix",
  "ConversionSoftwareVersion": "v1.0.20220720",
  "DerivedVendorReportedEchoSpacing": 0.000559998,
  "DeviceSerialNumber": "66112",
  "DwellTime": 2.7e-06,
  "EchoTime": 0.035,
  "EchoTrainLength": 39,
  "EffectiveEchoSpacing": 0.000279999,
  "FlipAngle": 90,
  "HeudiconvVersion": "0.13.1",
  "ImageOrientationPatientDICOM": [0.986644, 0.1627, 0.00790791, -0.156975, 0.936716, 0.312925],
  "ImageOrientationText": "Tra>Cor(18.1)>Sag(-2.5)",
  "ImageType": [
    "ORIGINAL",
    "PRIMARY",
    "M",
    "ND",
    "NORM",
    "MOSAIC"
],
  "ImagingFrequency": 123.252,
  "InPlanePhaseEncodingDirectionDICOM": "COL",
  "InstitutionAddress": "Maynard 3,Hanover,NH,US,03755",
  "InstitutionName": "Dartmouth College - PBS",
  "InstitutionalDepartmentName": "Department",
  "MRAcquisitionType": "2D",
  "MagneticFieldStrength": 3,
  "Manufacturer": "Siemens",
  "ManufacturersModelName": "Prisma",
  "Modality": "MR",
  "MultibandAccelerationFactor": 4,
  "NonlinearGradientCorrection": false,
  "ParallelReductionFactorInPlane": 2,
  "PartialFourier": 1,
  "PatientPosition": "HFS",
  "PercentPhaseFOV": 100,
  "PercentSampling": 100,
  "PhaseEncodingDirection": "j-",
  "PhaseEncodingSteps": 79,
  "PhaseResolution": 1,
  "PixelBandwidth": 2315,
  "ProcedureStepDescription": "dbic^QA",
  "ProtocolName": "func-bold_task-rest_acq-p2-s4-3.5mm",
  "PulseSequenceDetails": "%SiemensSeq%\\ep2d_bold",
  "ReceiveCoilActiveElements": "HEA;HEP",
  "ReceiveCoilName": "Head_32",
  "ReconMatrixPE": 80,
  "RefLinesPE": 24,
  "RepetitionTime": 2,
  "SAR": 0.0208303,
  "ScanOptions": "FS",
  "ScanningSequence": "EP",
  "SequenceName": "*epfid2d1_80",
  "SequenceVariant": "SK",
  "SeriesDescription": "func-bold_task-rest_acq-p2-s4-3.5mm",
  "SeriesNumber": 7,
  "ShimSetting": [4147, -7689, -7508, 289, -38, -248, -88, 57],
  "SliceThickness": 3.5,
  "SliceTiming": [1.485, 0, 0.99, 0.2475, 1.2375, 0.7425, 1.7325, 0.495, 1.485, 0, 0.99, 0.2475, 1.2375, 0.7425, 1.7325, 0.495, 1.485, 0, 0.99, 0.2475, 1.2375, 0.7425, 1.7325, 0.495, 1.485, 0, 0.99, 0.2475, 1.2375, 0.7425, 1.7325, 0.495],
  "SoftwareVersions": "syngo MR E11",
  "SpacingBetweenSlices": 3.99,
  "StationName": "AWP66112",
  "TaskName": "rest",
  "TotalReadoutTime": 0.0221199,
  "TxRefAmp": 236.183,
  "dcmmeta_affine": [
    [-2.9599316120147705, -0.47092556953430176, -0.17358677089214325, 140.24827575683594],
    [-0.4881010055541992, 2.810148239135742, 1.2368457317352295, -101.79067993164062],
    [0.023723730817437172, -0.938773512840271, 3.789482831954956, -20.587636947631836],
    [0.0, 0.0, 0.0, 1.0]
],
  "dcmmeta_reorient_transform": [
    [0.0, -1.0, 0.0, 79.0],
    [1.0, 0.0, 0.0, 0.0],
    [0.0, 0.0, 1.0, 0.0],
    [0.0, 0.0, 0.0, 1.0]
],
  "dcmmeta_shape": [80, 80, 32, 200],
  "dcmmeta_slice_dim": 2,
  "dcmmeta_version": 0.6,
  "global": {
    "const": {
      "AccessionNumber": "qa",
      "AcquisitionMatrix": [80, 0, 0, 80],
      "AngioFlag": "N",
      "BitsAllocated": 16,
      "BitsStored": 12,
      "BodyPartExamined": "BRAIN",
      "Columns": 480,
      "EchoNumbers": 1,
      "EchoTime": 35.0,
      "EchoTrainLength": 39,
      "FlipAngle": 90.0,
      "HighBit": 11,
      "ImageOrientationPatient": [0.98664383890772, 0.16270033833975, 0.00790791056955, -0.1569751903681, 0.93671609383647, 0.3129245103162],
      "ImagePositionPatient": [-600.84634888073, -779.86089520039, -287.25019752993],
      "ImageType": [
        "ORIGINAL",
        "PRIMARY",
        "M",
        "ND",
        "NORM",
        "MOSAIC"
],
      "ImagedNucleus": "1H",
      "ImagingFrequency": 123.25245,
      "InPlanePhaseEncodingDirection": "COL",
      "MRAcquisitionType": "2D",
      "MagneticFieldStrength": 3.0,
      "Manufacturer": "SIEMENS",
      "ManufacturerModelName": "Prisma",
      "Modality": "MR",
      "NumberOfAverages": 1.0,
      "NumberOfPhaseEncodingSteps": 79,
      "PercentPhaseFieldOfView": 100.0,
      "PercentSampling": 100.0,
      "PerformedProcedureStepStartTime": "125923.932000",
      "PhotometricInterpretation": "MONOCHROME2",
      "PixelBandwidth": 2315.0,
      "PixelRepresentation": 0,
      "PixelSpacing": [3.0, 3.0],
      "ProtocolName": "func-bold_task-rest_acq-p2-s4-3.5mm",
      "RepetitionTime": 2000.0,
      "Rows": 480,
      "SAR": 0.02083034628341,
      "SamplesPerPixel": 1,
      "ScanOptions": "FS",
      "ScanningSequence": "EP",
      "SequenceName": "*epfid2d1_80",
      "SequenceVariant": "SK",
      "SeriesDescription": "func-bold_task-rest_acq-p2-s4-3.5mm",
      "SeriesNumber": 7,
      "SeriesTime": "131625.460000",
      "SliceLocation": -57.208295991397,
      "SliceThickness": 3.5,
      "SmallestImagePixelValue": 0,
      "SoftwareVersions": "syngo MR E11",
      "SpacingBetweenSlices": 3.9899999840815,
      "SpecificCharacterSet": "ISO_IR 100",
      "StudyID": "59",
      "StudyTime": "125923.858000",
      "TransmitCoilName": "Body",
      "VariableFlipAngleFlag": "N",
      "WindowCenterWidthExplanation": "Algo1",
      "dBdt": 0.0},
    "slices": {}
  },
  "time": {
    "samples": {
      "AcquisitionNumber": [1, 2, 3, 4, 5, 6, 7, 8, 9, 10, 11, 12, 13, 14, 15, 16, 17, 18, 19, 20, 21, 22, 23, 24, 25, 26, 27, 28, 29, 30, 31, 32, 33, 34, 35, 36, 37, 38, 39, 40, 41, 42, 43, 44, 45, 46, 47, 48, 49, 50, 51, 52, 53, 54, 55, 56, 57, 58, 59, 60, 61, 62, 63, 64, 65, 66, 67, 68, 69, 70, 71, 72, 73, 74, 75, 76, 77, 78, 79, 80, 81, 82, 83, 84, 85, 86, 87, 88, 89, 90, 91, 92, 93, 94, 95, 96, 97, 98, 99, 100, 101, 102, 103, 104, 105, 106, 107, 108, 109, 110, 111, 112, 113, 114, 115, 116, 117, 118, 119, 120, 121, 122, 123, 124, 125, 126, 127, 128, 129, 130, 131, 132, 133, 134, 135, 136, 137, 138, 139, 140, 141, 142, 143, 144, 145, 146, 147, 148, 149, 150, 151, 152, 153, 154, 155, 156, 157, 158, 159, 160, 161, 162, 163, 164, 165, 166, 167, 168, 169, 170, 171, 172, 173, 174, 175, 176, 177, 178, 179, 180, 181, 182, 183, 184, 185, 186, 187, 188, 189, 190, 191, 192, 193, 194, 195, 196, 197, 198, 199, 200],
      "AcquisitionTime": ["131529.125000", "131531.125000", "131533.125000", "131535.125000", "131537.125000", "131539.125000", "131541.125000", "131543.125000", "131545.125000", "131547.125000", "131549.125000", "131551.125000", "131553.125000", "131555.125000", "131557.125000", "131559.125000", "131601.125000", "131603.125000", "131605.125000", "131607.125000", "131609.125000", "131611.125000", "131613.125000", "131615.125000", "131617.125000", "131619.125000", "131621.125000", "131623.125000", "131625.125000", "131627.125000", "131629.125000", "131631.125000", "131633.125000", "131635.125000", "131637.125000", "131639.125000", "131641.125000", "131643.125000", "131645.125000", "131647.125000", "131649.125000", "131651.125000", "131653.125000", "131655.125000", "131657.125000", "131659.125000", "131701.125000", "131703.125000", "131705.125000", "131707.125000", "131709.125000", "131711.125000", "131713.125000", "131715.125000", "131717.125000", "131719.125000", "131721.125000", "131723.125000", "131725.125000", "131727.125000", "131729.125000", "131731.125000", "131733.125000", "131735.125000", "131737.125000", "131739.125000", "131741.125000", "131743.125000", "131745.125000", "131747.125000", "131749.125000", "131751.125000", "131753.125000", "131755.125000", "131757.125000", "131759.125000", "131801.125000", "131803.125000", "131805.125000", "131807.125000", "131809.125000", "131811.125000", "131813.125000", "131815.125000", "131817.125000", "131819.125000", "131821.125000", "131823.125000", "131825.125000", "131827.125000", "131829.125000", "131831.125000", "131833.125000", "131835.125000", "131837.125000", "131839.125000", "131841.125000", "131843.125000", "131845.125000", "131847.125000", "131849.125000", "131851.125000", "131853.125000", "131855.125000", "131857.125000", "131859.125000", "131901.125000", "131903.125000", "131905.125000", "131907.125000", "131909.125000", "131911.125000", "131913.125000", "131915.125000", "131917.125000", "131919.125000", "131921.125000", "131923.125000", "131925.125000", "131927.125000", "131929.125000", "131931.125000", "131933.125000", "131935.125000", "131937.125000", "131939.125000", "131941.125000", "131943.125000", "131945.125000", "131947.125000", "131949.125000", "131951.125000", "131953.125000", "131955.125000", "131957.125000", "131959.125000", "132001.125000", "132003.125000", "132005.125000", "132007.125000", "132009.125000", "132011.125000", "132013.125000", "132015.125000", "132017.125000", "132019.125000", "132021.125000", "132023.125000", "132025.125000", "132027.125000", "132029.125000", "132031.125000", "132033.125000", "132035.125000", "132037.125000", "132039.125000", "132041.125000", "132043.125000", "132045.125000", "132047.125000", "132049.125000", "132051.125000", "132053.125000", "132055.125000", "132057.125000", "132059.125000", "132101.125000", "132103.125000", "132105.125000", "132107.125000", "132109.125000", "132111.125000", "132113.125000", "132115.125000", "132117.125000", "132119.125000", "132121.125000", "132123.125000", "132125.125000", "132127.125000", "132129.125000", "132131.125000", "132133.125000", "132135.125000", "132137.125000", "132139.125000", "132141.125000", "132143.125000", "132145.125000", "132147.125000", "132149.125000", "132151.125000", "132153.125000", "132155.125000", "132157.125000", "132159.125000", "132201.125000", "132203.125000", "132205.125000", "132207.125000"],
      "ContentTime": ["131625.463000", "131625.467000", "131625.469000", "131625.476000", "131625.479000", "131625.483000", "131625.491000", "131625.494000", "131625.497000", "131625.499000", "131625.502000", "131625.504000", "131625.507000", "131625.509000", "131625.512000", "131625.515000", "131625.517000", "131625.520000", "131625.522000", "131625.525000", "131625.527000", "131625.547000", "131625.550000", "131625.552000", "131625.555000", "131625.557000", "131625.560000", "131625.563000", "131705.458000", "131705.469000", "131705.471000", "131705.474000", "131705.476000", "131705.479000", "131705.481000", "131705.484000", "131705.486000", "131705.489000", "131705.492000", "131705.494000", "131705.497000", "131705.499000", "131705.502000", "131705.504000", "131705.507000", "131705.510000", "131705.512000", "131705.515000", "131745.458000", "131745.461000", "131745.464000", "131745.467000", "131745.469000", "131745.472000", "131745.474000", "131745.477000", "131745.479000", "131745.482000", "131745.485000", "131745.487000", "131745.490000", "131745.492000", "131745.495000", "131745.497000", "131745.500000", "131745.502000", "131745.505000", "131745.507000", "131825.457000", "131825.460000", "131825.463000", "131825.465000", "131825.468000", "131825.471000", "131825.473000", "131825.476000", "131825.478000", "131825.481000", "131825.483000", "131825.491000", "131825.493000", "131825.496000", "131825.499000", "131825.501000", "131825.504000", "131825.506000", "131825.509000", "131825.511000", "131905.459000", "131905.461000", "131905.464000", "131905.466000", "131905.469000", "131905.472000", "131905.474000", "131905.477000", "131905.479000", "131905.482000", "131905.485000", "131905.487000", "131905.490000", "131905.493000", "131905.495000", "131905.498000", "131905.500000", "131905.503000", "131905.505000", "131905.508000", "131945.458000", "131945.461000", "131945.464000", "131945.466000", "131945.469000", "131945.472000", "131945.474000", "131945.477000", "131945.483000", "131945.486000", "131945.488000", "131945.491000", "131945.493000", "131945.496000", "131945.498000", "131945.501000", "131945.503000", "131945.506000", "131945.509000", "131945.511000", "132025.458000", "132025.461000", "132025.463000", "132025.466000", "132025.468000", "132025.471000", "132025.474000", "132025.476000", "132025.479000", "132025.481000", "132025.484000", "132025.486000", "132025.489000", "132025.491000", "132025.494000", "132025.496000", "132025.499000", "132025.502000", "132025.504000", "132025.507000", "132105.459000", "132105.462000", "132105.464000", "132105.467000", "132105.469000", "132105.472000", "132105.474000", "132105.477000", "132105.479000", "132105.482000", "132105.485000", "132105.487000", "132105.490000", "132105.492000", "132105.495000", "132105.497000", "132105.500000", "132105.503000", "132105.505000", "132105.508000", "132145.459000", "132145.462000", "132145.464000", "132145.467000", "132145.469000", "132145.472000", "132145.474000", "132145.477000", "132145.480000", "132145.482000", "132145.485000", "132145.487000", "132145.489000", "132145.492000", "132145.494000", "132145.497000", "132145.500000", "132145.502000", "132145.505000", "132145.507000", "132208.546000", "132208.549000", "132208.551000", "132208.554000", "132208.557000", "132208.560000", "132208.562000", "132208.565000", "132208.567000", "132208.570000", "132208.573000", "132208.577000"],
      "InstanceCreationTime": ["131625.463000", "131625.467000", "131625.469000", "131625.476000", "131625.479000", "131625.483000", "131625.491000", "131625.494000", "131625.497000", "131625.499000", "131625.502000", "131625.504000", "131625.507000", "131625.509000", "131625.512000", "131625.515000", "131625.517000", "131625.520000", "131625.522000", "131625.525000", "131625.527000", "131625.547000", "131625.550000", "131625.552000", "131625.555000", "131625.557000", "131625.560000", "131625.563000", "131705.458000", "131705.469000", "131705.471000", "131705.474000", "131705.476000", "131705.479000", "131705.481000", "131705.484000", "131705.486000", "131705.489000", "131705.492000", "131705.494000", "131705.497000", "131705.499000", "131705.502000", "131705.504000", "131705.507000", "131705.510000", "131705.512000", "131705.515000", "131745.458000", "131745.461000", "131745.464000", "131745.467000", "131745.469000", "131745.472000", "131745.474000", "131745.477000", "131745.479000", "131745.482000", "131745.485000", "131745.487000", "131745.490000", "131745.492000", "131745.495000", "131745.497000", "131745.500000", "131745.502000", "131745.505000", "131745.507000", "131825.457000", "131825.460000", "131825.463000", "131825.465000", "131825.468000", "131825.471000", "131825.473000", "131825.476000", "131825.478000", "131825.481000", "131825.483000", "131825.491000", "131825.493000", "131825.496000", "131825.499000", "131825.501000", "131825.504000", "131825.506000", "131825.509000", "131825.511000", "131905.459000", "131905.461000", "131905.464000", "131905.466000", "131905.469000", "131905.472000", "131905.474000", "131905.477000", "131905.479000", "131905.482000", "131905.485000", "131905.487000", "131905.490000", "131905.493000", "131905.495000", "131905.498000", "131905.500000", "131905.503000", "131905.505000", "131905.508000", "131945.458000", "131945.461000", "131945.464000", "131945.466000", "131945.469000", "131945.472000", "131945.474000", "131945.477000", "131945.483000", "131945.486000", "131945.488000", "131945.491000", "131945.493000", "131945.496000", "131945.498000", "131945.501000", "131945.503000", "131945.506000", "131945.509000", "131945.511000", "132025.458000", "132025.461000", "132025.463000", "132025.466000", "132025.468000", "132025.471000", "132025.474000", "132025.476000", "132025.479000", "132025.481000", "132025.484000", "132025.486000", "132025.489000", "132025.491000", "132025.494000", "132025.496000", "132025.499000", "132025.502000", "132025.504000", "132025.507000", "132105.459000", "132105.462000", "132105.464000", "132105.467000", "132105.469000", "132105.472000", "132105.474000", "132105.477000", "132105.479000", "132105.482000", "132105.485000", "132105.487000", "132105.490000", "132105.492000", "132105.495000", "132105.497000", "132105.500000", "132105.503000", "132105.505000", "132105.508000", "132145.459000", "132145.462000", "132145.464000", "132145.467000", "132145.469000", "132145.472000", "132145.474000", "132145.477000", "132145.480000", "132145.482000", "132145.485000", "132145.487000", "132145.489000", "132145.492000", "132145.494000", "132145.497000", "132145.500000", "132145.502000", "132145.505000", "132145.507000", "132208.546000", "132208.549000", "132208.551000", "132208.554000", "132208.557000", "132208.560000", "132208.562000", "132208.565000", "132208.567000", "132208.570000", "132208.573000", "132208.577000"],
      "InstanceNumber": [1, 2, 3, 4, 5, 6, 7, 8, 9, 10, 11, 12, 13, 14, 15, 16, 17, 18, 19, 20, 21, 22, 23, 24, 25, 26, 27, 28, 29, 30, 31, 32, 33, 34, 35, 36, 37, 38, 39, 40, 41, 42, 43, 44, 45, 46, 47, 48, 49, 50, 51, 52, 53, 54, 55, 56, 57, 58, 59, 60, 61, 62, 63, 64, 65, 66, 67, 68, 69, 70, 71, 72, 73, 74, 75, 76, 77, 78, 79, 80, 81, 82, 83, 84, 85, 86, 87, 88, 89, 90, 91, 92, 93, 94, 95, 96, 97, 98, 99, 100, 101, 102, 103, 104, 105, 106, 107, 108, 109, 110, 111, 112, 113, 114, 115, 116, 117, 118, 119, 120, 121, 122, 123, 124, 125, 126, 127, 128, 129, 130, 131, 132, 133, 134, 135, 136, 137, 138, 139, 140, 141, 142, 143, 144, 145, 146, 147, 148, 149, 150, 151, 152, 153, 154, 155, 156, 157, 158, 159, 160, 161, 162, 163, 164, 165, 166, 167, 168, 169, 170, 171, 172, 173, 174, 175, 176, 177, 178, 179, 180, 181, 182, 183, 184, 185, 186, 187, 188, 189, 190, 191, 192, 193, 194, 195, 196, 197, 198, 199, 200],
      "LargestImagePixelValue": [1907, 1905, 1910, 1903, 1908, 1901, 1899, 1904, 1905, 1905, 1903, 1900, 1906, 1904, 1904, 1902, 1901, 1899, 1902, 1901, 1905, 1906, 1897, 1902, 1905, 1903, 1912, 1909, 1906, 1904, 1905, 1901, 1901, 1907, 1903, 1901, 1905, 1906, 1900, 1900, 1913, 1901, 1902, 1907, 1908, 1909, 1902, 1907, 1904, 1904, 1903, 1902, 1904, 1909, 1906, 1902, 1905, 1905, 1909, 1911, 1905, 1905, 1905, 1913, 1906, 1904, 1903, 1905, 1903, 1906, 1905, 1908, 1911, 1905, 1901, 1904, 1900, 1903, 1902, 1904, 1905, 1906, 1905, 1909, 1907, 1909, 1905, 1907, 1903, 1907, 1905, 1908, 1909, 1906, 1902, 1908, 1903, 1906, 1905, 1904, 1903, 1907, 1905, 1905, 1903, 1903, 1901, 1906, 1913, 1903, 1910, 1903, 1906, 1903, 1909, 1903, 1910, 1910, 1908, 1908, 1911, 1904, 1911, 1907, 1904, 1907, 1904, 1912, 1902, 1907, 1904, 1907, 1910, 1904, 1907, 1904, 1908, 1905, 1909, 1909, 1906, 1906, 1908, 1906, 1905, 1910, 1909, 1904, 1913, 1911, 1911, 1911, 1904, 1905, 1907, 1906, 1905, 1904, 1901, 1906, 1906, 1913, 1905, 1907, 1901, 1904, 1905, 1906, 1904, 1907, 1901, 1903, 1903, 1910, 1907, 1905, 1907, 1905, 1913, 1905, 1907, 1905, 1909, 1904, 1905, 1903, 1907, 1904, 1902, 1910, 1907, 1902, 1899, 1910, 1906, 1909, 1907, 1904, 1902, 1902],
      "WindowCenter": [888.0, 888.0, 888.0, 888.0, 888.0, 887.0, 888.0, 888.0, 888.0, 888.0, 888.0, 888.0, 888.0, 888.0, 888.0, 888.0, 888.0, 888.0, 888.0, 888.0, 888.0, 888.0, 888.0, 888.0, 888.0, 888.0, 888.0, 888.0, 888.0, 888.0, 888.0, 888.0, 888.0, 888.0, 888.0, 888.0, 888.0, 888.0, 888.0, 888.0, 888.0, 888.0, 888.0, 888.0, 888.0, 888.0, 888.0, 888.0, 888.0, 888.0, 888.0, 888.0, 888.0, 888.0, 888.0, 888.0, 888.0, 888.0, 888.0, 888.0, 888.0, 888.0, 888.0, 888.0, 888.0, 888.0, 888.0, 888.0, 888.0, 888.0, 888.0, 888.0, 888.0, 888.0, 888.0, 888.0, 888.0, 888.0, 888.0, 888.0, 888.0, 888.0, 888.0, 888.0, 888.0, 888.0, 888.0, 888.0, 888.0, 888.0, 888.0, 888.0, 888.0, 888.0, 888.0, 888.0, 888.0, 888.0, 888.0, 888.0, 888.0, 888.0, 888.0, 888.0, 888.0, 888.0, 888.0, 888.0, 888.0, 888.0, 888.0, 888.0, 888.0, 888.0, 888.0, 888.0, 888.0, 888.0, 888.0, 888.0, 888.0, 888.0, 888.0, 888.0, 888.0, 888.0, 888.0, 888.0, 888.0, 888.0, 888.0, 888.0, 888.0, 888.0, 888.0, 888.0, 888.0, 888.0, 888.0, 888.0, 888.0, 888.0, 888.0, 888.0, 888.0, 888.0, 888.0, 888.0, 888.0, 888.0, 888.0, 888.0, 888.0, 888.0, 888.0, 888.0, 888.0, 888.0, 888.0, 888.0, 888.0, 888.0, 888.0, 888.0, 888.0, 888.0, 888.0, 888.0, 888.0, 888.0, 888.0, 888.0, 888.0, 888.0, 888.0, 888.0, 888.0, 888.0, 888.0, 888.0, 888.0, 888.0, 888.0, 888.0, 888.0, 888.0, 888.0, 888.0, 888.0, 888.0, 888.0, 888.0, 888.0, 888.0, 888.0, 888.0, 888.0, 888.0, 888.0, 888.0],
      "WindowWidth": [1986.0, 1986.0, 1986.0, 1985.0, 1986.0, 1985.0, 1985.0, 1985.0, 1986.0, 1985.0, 1986.0, 1986.0, 1986.0, 1986.0, 1986.0, 1986.0, 1985.0, 1986.0, 1986.0, 1986.0, 1986.0, 1986.0, 1986.0, 1986.0, 1985.0, 1986.0, 1986.0, 1986.0, 1986.0, 1985.0, 1986.0, 1986.0, 1986.0, 1986.0, 1986.0, 1986.0, 1986.0, 1986.0, 1986.0, 1986.0, 1987.0, 1987.0, 1986.0, 1986.0, 1986.0, 1986.0, 1986.0, 1986.0, 1986.0, 1986.0, 1986.0, 1986.0, 1986.0, 1986.0, 1986.0, 1985.0, 1986.0, 1985.0, 1986.0, 1986.0, 1986.0, 1986.0, 1986.0, 1986.0, 1986.0, 1986.0, 1986.0, 1986.0, 1985.0, 1986.0, 1986.0, 1986.0, 1986.0, 1986.0, 1986.0, 1986.0, 1985.0, 1985.0, 1986.0, 1985.0, 1986.0, 1985.0, 1986.0, 1986.0, 1986.0, 1986.0, 1985.0, 1986.0, 1986.0, 1986.0, 1986.0, 1986.0, 1986.0, 1985.0, 1986.0, 1986.0, 1986.0, 1986.0, 1985.0, 1986.0, 1986.0, 1986.0, 1986.0, 1986.0, 1986.0, 1986.0, 1986.0, 1986.0, 1986.0, 1986.0, 1986.0, 1986.0, 1986.0, 1986.0, 1986.0, 1986.0, 1985.0, 1986.0, 1986.0, 1986.0, 1986.0, 1986.0, 1986.0, 1986.0, 1986.0, 1986.0, 1986.0, 1986.0, 1986.0, 1986.0, 1986.0, 1986.0, 1986.0, 1986.0, 1986.0, 1986.0, 1986.0, 1986.0, 1986.0, 1986.0, 1986.0, 1986.0, 1986.0, 1986.0, 1986.0, 1986.0, 1987.0, 1986.0, 1986.0, 1986.0, 1986.0, 1986.0, 1986.0, 1986.0, 1986.0, 1986.0, 1986.0, 1986.0, 1986.0, 1986.0, 1986.0, 1986.0, 1986.0, 1986.0, 1986.0, 1986.0, 1986.0, 1986.0, 1986.0, 1986.0, 1986.0, 1986.0, 1986.0, 1986.0, 1986.0, 1986.0, 1986.0, 1986.0, 1986.0, 1986.0, 1986.0, 1986.0, 1986.0, 1986.0, 1986.0, 1985.0, 1986.0, 1986.0, 1986.0, 1986.0, 1986.0, 1986.0, 1986.0, 1986.0, 1986.0, 1986.0, 1986.0, 1986.0, 1986.0, 1986.0]
    },
    "slices": {}
  }
}