{
  "AcquisitionDateTime": "2017-01-23T85:90:0.820312", 
  "ConversionSoftware": "dcm2niix", 
  "ConversionSoftwareVersion": "v1.0.20170130", 
  "EchoTime": 0.035, 
  "EffectiveEchoSpacing": 0.00026, 
  "FlipAngle": 90, 
  "ImageType": [
    "ORIGINAL", 
    "PRIMARY", 
    "M", 
    "ND", 
    "NORM", 
    "MOCO", 
    "MOSAIC"
], 
  "MagneticFieldStrength": 3, 
  "Manufacturer": "Siemens", 
  "ManufacturersModelName": "Prisma", 
  "PhaseEncodingDirection": "j-", 
  "ProcedureStepDescription": "dbic_QA", 
  "ProtocolName": "BOLD_p2", 
  "RepetitionTime": 2, 
  "SliceTiming": [0, 0.065, 0.13, 0.1975, 0.2625, 0.33, 0.395, 0.46, 0.5275, 0.5925, 0.66, 0.725, 0.79, 0.8575, 0.9225], 
  "dcmmeta_affine": [
    [-2.928352117538452, 0.6213723421096802, 0.2614715099334717, 81.27957153320312], 
    [0.6517257690429688, 2.7883148193359375, 1.1899996995925903, -141.289306640625], 
    [-0.00259850500151515, -0.9160767197608948, 3.7994253635406494, -26.77762222290039], 
    [0.0, 0.0, 0.0, 1.0]
], 
  "dcmmeta_reorient_transform": [
    [0.0, -1.0, 0.0, 79.0], 
    [1.0, 0.0, 0.0, 0.0], 
    [0.0, 0.0, 1.0, 0.0], 
    [0.0, 0.0, 0.0, 1.0]
], 
  "dcmmeta_shape": [80, 80, 30, 157], 
  "dcmmeta_slice_dim": 2, 
  "dcmmeta_version": 0.6, 
  "global": {
    "const": {
      "AccessionNumber": "qa", 
      "AcquisitionMatrix": [80, 0, 0, 80], 
      "AngioFlag": "N", 
      "BitsAllocated": 16, 
      "BitsStored": 12, 
      "BodyPartExamined": "BRAIN", 
      "Columns": 480, 
      "EchoNumbers": 1, 
      "EchoTime": 35.0, 
      "EchoTrainLength": 39, 
      "FlipAngle": 90.0, 
      "HighBit": 11, 
      "ImageOrientationPatient": [0.97611741140062, -0.2172419133431, -0.0008661683255, 0.2071241052374, 0.92943829356233, 0.30535890930109], 
      "ImagePositionPatient": [-840.31289073578, -506.30539011097, -281.84332834252], 
      "ImageType": [
        "ORIGINAL", 
        "PRIMARY", 
        "M", 
        "ND", 
        "NORM", 
        "MOCO", 
        "MOSAIC"
], 
      "ImagedNucleus": "1H", 
      "ImagingFrequency": 123.252571, 
      "InPlanePhaseEncodingDirection": "COL", 
      "MRAcquisitionType": "2D", 
      "MagneticFieldStrength": 3.0, 
      "Manufacturer": "SIEMENS", 
      "ManufacturerModelName": "Prisma", 
      "Modality": "MR", 
      "NumberOfAverages": 1.0, 
      "NumberOfPhaseEncodingSteps": 79, 
      "PercentPhaseFieldOfView": 100.0, 
      "PercentSampling": 100.0, 
      "PerformedProcedureStepStartTime": "085204.987000", 
      "PhotometricInterpretation": "MONOCHROME2", 
      "PixelBandwidth": 2315.0, 
      "PixelRepresentation": 0, 
      "PixelSpacing": [3.0, 3.0], 
      "PositionReferenceIndicator": "", 
      "ProtocolName": "BOLD_p2", 
      "RepetitionTime": 2000.0, 
      "Rows": 480, 
      "SAR": 0.05574649815339, 
      "SamplesPerPixel": 1, 
      "ScanOptions": "FS", 
      "ScanningSequence": "EP", 
      "SequenceName": "*epfid2d1_80", 
      "SequenceVariant": "SK", 
      "SeriesDescription": "MoCoSeries", 
      "SeriesNumber": 6, 
      "SeriesTime": "085950.152000", 
      "SliceLocation": -62.311161854605, 
      "SliceThickness": 3.5, 
      "SmallestImagePixelValue": 0, 
      "SoftwareVersions": "syngo MR E11", 
      "SpacingBetweenSlices": 3.9899999583388, 
      "SpecificCharacterSet": "ISO_IR 100", 
      "StudyID": "23", 
      "StudyTime": "085204.907000", 
      "TransmitCoilName": "Body", 
      "VariableFlipAngleFlag": "N", 
      "WindowCenterWidthExplanation": "Algo1", 
      "dBdt": 0.0}, 
    "slices": {}
  }, 
  "time": {
    "samples": {
      "AcquisitionNumber": [1, 2, 3, 4, 5, 6, 7, 8, 9, 10, 11, 12, 13, 14, 15, 16, 17, 18, 19, 20, 21, 22, 23, 24, 25, 26, 27, 28, 29, 30, 31, 32, 33, 34, 35, 36, 37, 38, 39, 40, 41, 42, 43, 44, 45, 46, 47, 48, 49, 50, 51, 52, 53, 54, 55, 56, 57, 58, 59, 60, 61, 62, 63, 64, 65, 66, 67, 68, 69, 70, 71, 72, 73, 74, 75, 76, 77, 78, 79, 80, 81, 82, 83, 84, 85, 86, 87, 88, 89, 90, 91, 92, 93, 94, 95, 96, 97, 98, 99, 100, 101, 102, 103, 104, 105, 106, 107, 108, 109, 110, 111, 112, 113, 114, 115, 116, 117, 118, 119, 120, 121, 122, 123, 124, 125, 126, 127, 128, 129, 130, 131, 132, 133, 134, 135, 136, 137, 138, 139, 140, 141, 142, 143, 144, 145, 146, 147, 148, 149, 150, 151, 152, 153, 154, 155, 156, 157], 
      "AcquisitionTime": ["085900.820000", "085902.820000", "085904.820000", "085906.820000", "085908.820000", "085910.820000", "085912.820000", "085914.820000", "085916.820000", "085918.820000", "085920.820000", "085922.820000", "085924.820000", "085926.820000", "085928.820000", "085930.820000", "085932.820000", "085934.820000", "085936.820000", "085938.820000", "085940.820000", "085942.820000", "085944.820000", "085946.820000", "085948.820000", "085950.820000", "085952.820000", "085954.820000", "085956.820000", "085958.820000", "090000.820000", "090002.820000", "090004.820000", "090006.820000", "090008.820000", "090010.820000", "090012.820000", "090014.820000", "090016.820000", "090018.820000", "090020.820000", "090022.820000", "090024.820000", "090026.820000", "090028.820000", "090030.820000", "090032.820000", "090034.820000", "090036.820000", "090038.820000", "090040.820000", "090042.820000", "090044.820000", "090046.820000", "090048.820000", "090050.820000", "090052.820000", "090054.820000", "090056.820000", "090058.820000", "090100.820000", "090102.820000", "090104.820000", "090106.820000", "090108.820000", "090110.820000", "090112.820000", "090114.820000", "090116.820000", "090118.820000", "090120.820000", "090122.820000", "090124.820000", "090126.820000", "090128.820000", "090130.820000", "090132.820000", "090134.820000", "090136.820000", "090138.820000", "090140.820000", "090142.820000", "090144.820000", "090146.820000", "090148.820000", "090150.820000", "090152.820000", "090154.820000", "090156.820000", "090158.820000", "090200.820000", "090202.820000", "090204.820000", "090206.820000", "090208.820000", "090210.820000", "090212.820000", "090214.820000", "090216.820000", "090218.820000", "090220.820000", "090222.820000", "090224.820000", "090226.820000", "090228.820000", "090230.820000", "090232.820000", "090234.820000", "090236.820000", "090238.820000", "090240.820000", "090242.820000", "090244.820000", "090246.820000", "090248.820000", "090250.820000", "090252.820000", "090254.820000", "090256.820000", "090258.820000", "090300.820000", "090302.820000", "090304.820000", "090306.820000", "090308.820000", "090310.820000", "090312.820000", "090314.820000", "090316.820000", "090318.820000", "090320.820000", "090322.820000", "090324.820000", "090326.820000", "090328.820000", "090330.820000", "090332.820000", "090334.820000", "090336.820000", "090338.820000", "090340.820000", "090342.820000", "090344.820000", "090346.820000", "090348.820000", "090350.820000", "090352.820000", "090354.820000", "090356.820000", "090358.820000", "090400.820000", "090402.820000", "090404.820000", "090406.820000", "090408.820000", "090410.820000", "090412.820000"], 
      "ContentTime": ["085950.154000", "085950.157000", "085950.169000", "085950.171000", "085950.174000", "085950.177000", "085950.179000", "085950.182000", "085950.185000", "085950.187000", "085950.190000", "085950.193000", "085950.196000", "085950.198000", "085950.201000", "085950.204000", "085950.208000", "085950.212000", "085950.215000", "085950.217000", "085950.220000", "085950.224000", "085950.227000", "085950.230000", "090030.106000", "090030.109000", "090030.111000", "090030.114000", "090030.117000", "090030.119000", "090030.122000", "090030.125000", "090030.127000", "090030.130000", "090030.133000", "090030.135000", "090030.138000", "090030.141000", "090030.143000", "090030.146000", "090030.149000", "090030.152000", "090030.154000", "090030.157000", "090110.104000", "090110.107000", "090110.109000", "090110.112000", "090110.115000", "090110.117000", "090110.120000", "090110.123000", "090110.125000", "090110.128000", "090110.130000", "090110.133000", "090110.136000", "090110.138000", "090110.141000", "090110.144000", "090110.146000", "090110.149000", "090110.151000", "090110.154000", "090150.102000", "090150.105000", "090150.107000", "090150.110000", "090150.113000", "090150.115000", "090150.118000", "090150.121000", "090150.123000", "090150.126000", "090150.129000", "090150.131000", "090150.134000", "090150.137000", "090150.139000", "090150.142000", "090150.145000", "090150.147000", "090150.150000", "090150.153000", "090230.100000", "090230.103000", "090230.105000", "090230.108000", "090230.111000", "090230.113000", "090230.116000", "090230.119000", "090230.121000", "090230.124000", "090230.126000", "090230.129000", "090230.132000", "090230.134000", "090230.137000", "090230.141000", "090230.143000", "090230.146000", "090230.148000", "090230.151000", "090310.095000", "090310.098000", "090310.101000", "090310.103000", "090310.106000", "090310.109000", "090310.111000", "090310.114000", "090310.116000", "090310.119000", "090310.122000", "090310.124000", "090310.127000", "090310.130000", "090310.132000", "090310.135000", "090310.138000", "090310.140000", "090310.143000", "090310.146000", "090350.103000", "090350.106000", "090350.108000", "090350.111000", "090350.114000", "090350.116000", "090350.119000", "090350.122000", "090350.124000", "090350.127000", "090350.130000", "090350.132000", "090350.135000", "090350.138000", "090350.140000", "090350.143000", "090350.146000", "090350.148000", "090350.151000", "090350.154000", "090414.331000", "090414.334000", "090414.344000", "090414.347000", "090414.349000", "090414.352000", "090414.355000", "090414.358000", "090414.361000", "090414.363000", "090414.366000", "090414.369000", "090414.371000"], 
      "InstanceCreationTime": ["085950.154000", "085950.157000", "085950.169000", "085950.171000", "085950.174000", "085950.177000", "085950.179000", "085950.182000", "085950.185000", "085950.187000", "085950.190000", "085950.193000", "085950.196000", "085950.198000", "085950.201000", "085950.204000", "085950.208000", "085950.212000", "085950.215000", "085950.217000", "085950.220000", "085950.224000", "085950.227000", "085950.230000", "090030.106000", "090030.109000", "090030.111000", "090030.114000", "090030.117000", "090030.119000", "090030.122000", "090030.125000", "090030.127000", "090030.130000", "090030.133000", "090030.135000", "090030.138000", "090030.141000", "090030.143000", "090030.146000", "090030.149000", "090030.152000", "090030.154000", "090030.157000", "090110.104000", "090110.107000", "090110.109000", "090110.112000", "090110.115000", "090110.117000", "090110.120000", "090110.123000", "090110.125000", "090110.128000", "090110.130000", "090110.133000", "090110.136000", "090110.138000", "090110.141000", "090110.144000", "090110.146000", "090110.149000", "090110.151000", "090110.154000", "090150.102000", "090150.105000", "090150.107000", "090150.110000", "090150.113000", "090150.115000", "090150.118000", "090150.121000", "090150.123000", "090150.126000", "090150.129000", "090150.131000", "090150.134000", "090150.137000", "090150.139000", "090150.142000", "090150.145000", "090150.147000", "090150.150000", "090150.153000", "090230.100000", "090230.103000", "090230.105000", "090230.108000", "090230.111000", "090230.113000", "090230.116000", "090230.119000", "090230.121000", "090230.124000", "090230.126000", "090230.129000", "090230.132000", "090230.134000", "090230.137000", "090230.141000", "090230.143000", "090230.146000", "090230.148000", "090230.151000", "090310.095000", "090310.098000", "090310.101000", "090310.103000", "090310.106000", "090310.109000", "090310.111000", "090310.114000", "090310.116000", "090310.119000", "090310.122000", "090310.124000", "090310.127000", "090310.130000", "090310.132000", "090310.135000", "090310.138000", "090310.140000", "090310.143000", "090310.146000", "090350.103000", "090350.106000", "090350.108000", "090350.111000", "090350.114000", "090350.116000", "090350.119000", "090350.122000", "090350.124000", "090350.127000", "090350.130000", "090350.132000", "090350.135000", "090350.138000", "090350.140000", "090350.143000", "090350.146000", "090350.148000", "090350.151000", "090350.154000", "090414.331000", "090414.334000", "090414.344000", "090414.347000", "090414.349000", "090414.352000", "090414.355000", "090414.358000", "090414.361000", "090414.363000", "090414.366000", "090414.369000", "090414.371000"], 
      "InstanceNumber": [1, 2, 3, 4, 5, 6, 7, 8, 9, 10, 11, 12, 13, 14, 15, 16, 17, 18, 19, 20, 21, 22, 23, 24, 25, 26, 27, 28, 29, 30, 31, 32, 33, 34, 35, 36, 37, 38, 39, 40, 41, 42, 43, 44, 45, 46, 47, 48, 49, 50, 51, 52, 53, 54, 55, 56, 57, 58, 59, 60, 61, 62, 63, 64, 65, 66, 67, 68, 69, 70, 71, 72, 73, 74, 75, 76, 77, 78, 79, 80, 81, 82, 83, 84, 85, 86, 87, 88, 89, 90, 91, 92, 93, 94, 95, 96, 97, 98, 99, 100, 101, 102, 103, 104, 105, 106, 107, 108, 109, 110, 111, 112, 113, 114, 115, 116, 117, 118, 119, 120, 121, 122, 123, 124, 125, 126, 127, 128, 129, 130, 131, 132, 133, 134, 135, 136, 137, 138, 139, 140, 141, 142, 143, 144, 145, 146, 147, 148, 149, 150, 151, 152, 153, 154, 155, 156, 157], 
      "LargestImagePixelValue": [2219, 2225, 2221, 2219, 2228, 2222, 2227, 2226, 2231, 2226, 2219, 2217, 2220, 2228, 2228, 2226, 2222, 2226, 2225, 2220, 2222, 2220, 2230, 2218, 2226, 2225, 2229, 2219, 2226, 2220, 2227, 2230, 2231, 2231, 2224, 2226, 2219, 2232, 2222, 2222, 2223, 2221, 2224, 2222, 2233, 2218, 2219, 2224, 2220, 2215, 2228, 2217, 2219, 2223, 2228, 2219, 2220, 2225, 2219, 2225, 2223, 2218, 2226, 2225, 2228, 2215, 2223, 2221, 2218, 2225, 2229, 2219, 2226, 2216, 2227, 2224, 2215, 2224, 2221, 2218, 2217, 2210, 2222, 2219, 2217, 2225, 2222, 2225, 2225, 2222, 2218, 2222, 2222, 2224, 2220, 2225, 2224, 2227, 2217, 2222, 2218, 2224, 2210, 2221, 2220, 2223, 2225, 2218, 2216, 2220, 2211, 2218, 2225, 2213, 2220, 2220, 2221, 2219, 2222, 2221, 2227, 2221, 2227, 2226, 2218, 2217, 2222, 2226, 2220, 2224, 2221, 2220, 2221, 2226, 2225, 2220, 2220, 2221, 2218, 2220, 2224, 2222, 2226, 2225, 2221, 2220, 2220, 2216, 2219, 2220, 2225, 2219, 2225, 2214, 2223, 2217, 2220], 
      "WindowCenter": [971.0, 972.0, 971.0, 971.0, 971.0, 971.0, 972.0, 971.0, 971.0, 971.0, 971.0, 971.0, 971.0, 971.0, 971.0, 971.0, 971.0, 971.0, 971.0, 971.0, 971.0, 971.0, 971.0, 971.0, 971.0, 972.0, 971.0, 971.0, 971.0, 971.0, 971.0, 971.0, 971.0, 971.0, 971.0, 971.0, 971.0, 971.0, 971.0, 972.0, 971.0, 971.0, 971.0, 971.0, 971.0, 971.0, 971.0, 971.0, 971.0, 971.0, 971.0, 971.0, 971.0, 971.0, 971.0, 971.0, 972.0, 971.0, 971.0, 971.0, 971.0, 971.0, 971.0, 971.0, 971.0, 971.0, 971.0, 971.0, 971.0, 971.0, 972.0, 971.0, 971.0, 971.0, 971.0, 971.0, 971.0, 971.0, 971.0, 971.0, 971.0, 971.0, 971.0, 971.0, 971.0, 971.0, 971.0, 971.0, 971.0, 971.0, 971.0, 971.0, 971.0, 971.0, 971.0, 971.0, 971.0, 971.0, 971.0, 971.0, 971.0, 971.0, 971.0, 971.0, 971.0, 971.0, 971.0, 971.0, 971.0, 971.0, 971.0, 971.0, 971.0, 971.0, 971.0, 971.0, 971.0, 971.0, 971.0, 971.0, 971.0, 971.0, 971.0, 971.0, 971.0, 971.0, 971.0, 971.0, 971.0, 971.0, 971.0, 971.0, 971.0, 971.0, 971.0, 971.0, 971.0, 971.0, 971.0, 971.0, 971.0, 971.0, 971.0, 971.0, 971.0, 971.0, 971.0, 971.0, 971.0, 971.0, 971.0, 971.0, 971.0, 971.0, 971.0, 971.0, 971.0], 
      "WindowWidth": [2115.0, 2115.0, 2114.0, 2114.0, 2114.0, 2114.0, 2115.0, 2114.0, 2114.0, 2114.0, 2114.0, 2114.0, 2114.0, 2114.0, 2114.0, 2114.0, 2114.0, 2114.0, 2114.0, 2114.0, 2114.0, 2114.0, 2114.0, 2114.0, 2114.0, 2115.0, 2114.0, 2115.0, 2114.0, 2114.0, 2114.0, 2115.0, 2114.0, 2115.0, 2114.0, 2114.0, 2115.0, 2114.0, 2114.0, 2115.0, 2114.0, 2115.0, 2115.0, 2115.0, 2115.0, 2115.0, 2115.0, 2115.0, 2115.0, 2115.0, 2115.0, 2115.0, 2115.0, 2115.0, 2115.0, 2115.0, 2116.0, 2115.0, 2115.0, 2115.0, 2115.0, 2115.0, 2114.0, 2115.0, 2115.0, 2115.0, 2115.0, 2115.0, 2115.0, 2115.0, 2116.0, 2115.0, 2114.0, 2115.0, 2114.0, 2115.0, 2115.0, 2114.0, 2114.0, 2115.0, 2114.0, 2114.0, 2114.0, 2115.0, 2114.0, 2115.0, 2115.0, 2114.0, 2114.0, 2114.0, 2114.0, 2114.0, 2114.0, 2115.0, 2114.0, 2115.0, 2114.0, 2114.0, 2115.0, 2114.0, 2114.0, 2114.0, 2115.0, 2114.0, 2114.0, 2114.0, 2114.0, 2114.0, 2114.0, 2114.0, 2114.0, 2114.0, 2114.0, 2114.0, 2114.0, 2114.0, 2115.0, 2114.0, 2114.0, 2114.0, 2115.0, 2114.0, 2114.0, 2114.0, 2115.0, 2114.0, 2114.0, 2114.0, 2114.0, 2115.0, 2115.0, 2115.0, 2115.0, 2114.0, 2115.0, 2114.0, 2114.0, 2115.0, 2114.0, 2115.0, 2114.0, 2115.0, 2114.0, 2115.0, 2115.0, 2114.0, 2114.0, 2114.0, 2115.0, 2115.0, 2115.0, 2115.0, 2114.0, 2115.0, 2115.0, 2114.0, 2115.0]
    }, 
    "slices": {}
  }
}