{
  "AcquisitionMatrixPE": 80,
  "AcquisitionNumber": 1,
  "AcquisitionTime": "08:59:0.820000",
  "BandwidthPerPixelPhaseEncode": 48.077,
  "BaseResolution": 80,
  "BodyPartExamined": "BRAIN",
  "CoilCombinationMethod": "Sum of Squares",
  "ConsistencyInfo": "N4_VE11C_LATEST_20160120",
  "ConversionSoftware": "dcm2niix",
  "ConversionSoftwareVersion": "v1.0.20220720",
  "DerivedVendorReportedEchoSpacing": 0.000519999,
  "DeviceSerialNumber": "66112",
  "DwellTime": 2.7e-06,
  "EchoTime": 0.035,
  "EchoTrainLength": 39,
  "EffectiveEchoSpacing": 0.00026,
  "FlipAngle": 90,
  "HeudiconvVersion": "0.13.1",
  "ImageOrientationPatientDICOM": [0.976117, -0.217242, -0.000866168, 0.207124, 0.929438, 0.305359],
  "ImageOrientationText": "Tra>Cor(17.4)>Sag(3.8)",
  "ImageType": [
    "ORIGINAL",
    "PRIMARY",
    "M",
    "ND",
    "NORM",
    "MOSAIC"
],
  "ImagingFrequency": 123.253,
  "InPlanePhaseEncodingDirectionDICOM": "COL",
  "InstitutionAddress": "Maynard 3,Hanover,NH,US,03755",
  "InstitutionName": "Dartmouth College - PBS",
  "InstitutionalDepartmentName": "Department",
  "MRAcquisitionType": "2D",
  "MagneticFieldStrength": 3,
  "Manufacturer": "Siemens",
  "ManufacturersModelName": "Prisma",
  "MatrixCoilMode": "GRAPPA",
  "Modality": "MR",
  "NonlinearGradientCorrection": false,
  "ParallelReductionFactorInPlane": 2,
  "PartialFourier": 1,
  "PatientPosition": "HFS",
  "PercentPhaseFOV": 100,
  "PercentSampling": 100,
  "PhaseEncodingDirection": "j-",
  "PhaseEncodingSteps": 79,
  "PhaseResolution": 1,
  "PixelBandwidth": 2315,
  "ProcedureStepDescription": "dbic^QA",
  "ProtocolName": "BOLD_p2",
  "PulseSequenceDetails": "%SiemensSeq%\\ep2d_bold",
  "ReceiveCoilActiveElements": "HEA;HEP",
  "ReceiveCoilName": "Head_32",
  "ReconMatrixPE": 80,
  "RefLinesPE": 24,
  "RepetitionTime": 2,
  "SAR": 0.0557465,
  "ScanOptions": "FS",
  "ScanningSequence": "EP",
  "SequenceName": "*epfid2d1_80",
  "SequenceVariant": "SK",
  "SeriesDescription": "BOLD_p2",
  "SeriesNumber": 5,
  "ShimSetting": [4146, -7689, -7499, 250, -121, -209, -55, 105],
  "SliceThickness": 3.5,
  "SliceTiming": [0.99, 0, 1.055, 0.065, 1.12, 0.13, 1.1875, 0.1975, 1.2525, 0.2625, 1.32, 0.33, 1.385, 0.395, 1.45, 0.46, 1.5175, 0.5275, 1.5825, 0.5925, 1.65, 0.66, 1.715, 0.725, 1.78, 0.79, 1.8475, 0.8575, 1.9125, 0.9225],
  "SoftwareVersions": "syngo MR E11",
  "SpacingBetweenSlices": 3.99,
  "StationName": "AWP66112",
  "TaskName": "rest",
  "TotalReadoutTime": 0.02054,
  "TxRefAmp": 230.8,
  "dcmmeta_affine": [
    [-2.928352117538452, 0.6213723421096802, 0.2614715099334717, 81.27957153320312],
    [0.6517257690429688, 2.7883148193359375, 1.1899996995925903, -141.289306640625],
    [-0.00259850500151515, -0.9160767197608948, 3.7994253635406494, -26.77762222290039],
    [0.0, 0.0, 0.0, 1.0]
],
  "dcmmeta_reorient_transform": [
    [0.0, -1.0, 0.0, 79.0],
    [1.0, 0.0, 0.0, 0.0],
    [0.0, 0.0, 1.0, 0.0],
    [0.0, 0.0, 0.0, 1.0]
],
  "dcmmeta_shape": [80, 80, 30, 157],
  "dcmmeta_slice_dim": 2,
  "dcmmeta_version": 0.6,
  "global": {
    "const": {
      "AccessionNumber": "qa",
      "AcquisitionMatrix": [80, 0, 0, 80],
      "AngioFlag": "N",
      "BitsAllocated": 16,
      "BitsStored": 12,
      "BodyPartExamined": "BRAIN",
      "Columns": 480,
      "EchoNumbers": 1,
      "EchoTime": 35.0,
      "EchoTrainLength": 39,
      "FlipAngle": 90.0,
      "HighBit": 11,
      "ImageOrientationPatient": [0.97611741140062, -0.2172419133431, -0.0008661683255, 0.2071241052374, 0.92943829356233, 0.30535890930109],
      "ImagePositionPatient": [-840.31289073578, -506.30539011097, -281.84332834252],
      "ImageType": [
        "ORIGINAL",
        "PRIMARY",
        "M",
        "ND",
        "NORM",
        "MOSAIC"
],
      "ImagedNucleus": "1H",
      "ImagingFrequency": 123.252571,
      "InPlanePhaseEncodingDirection": "COL",
      "MRAcquisitionType": "2D",
      "MagneticFieldStrength": 3.0,
      "Manufacturer": "SIEMENS",
      "ManufacturerModelName": "Prisma",
      "Modality": "MR",
      "NumberOfAverages": 1.0,
      "NumberOfPhaseEncodingSteps": 79,
      "PercentPhaseFieldOfView": 100.0,
      "PercentSampling": 100.0,
      "PerformedProcedureStepStartTime": "085204.987000",
      "PhotometricInterpretation": "MONOCHROME2",
      "PixelBandwidth": 2315.0,
      "PixelRepresentation": 0,
      "PixelSpacing": [3.0, 3.0],
      "ProtocolName": "BOLD_p2",
      "RepetitionTime": 2000.0,
      "Rows": 480,
      "SAR": 0.05574649815339,
      "SamplesPerPixel": 1,
      "ScanOptions": "FS",
      "ScanningSequence": "EP",
      "SequenceName": "*epfid2d1_80",
      "SequenceVariant": "SK",
      "SeriesDescription": "BOLD_p2",
      "SeriesNumber": 5,
      "SeriesTime": "085950.022000",
      "SliceLocation": -62.311161854605,
      "SliceThickness": 3.5,
      "SmallestImagePixelValue": 0,
      "SoftwareVersions": "syngo MR E11",
      "SpacingBetweenSlices": 3.9899999583388,
      "SpecificCharacterSet": "ISO_IR 100",
      "StudyID": "23",
      "StudyTime": "085204.907000",
      "TransmitCoilName": "Body",
      "VariableFlipAngleFlag": "N",
      "WindowCenterWidthExplanation": "Algo1",
      "dBdt": 0.0},
    "slices": {}
  },
  "time": {
    "samples": {
      "AcquisitionNumber": [1, 2, 3, 4, 5, 6, 7, 8, 9, 10, 11, 12, 13, 14, 15, 16, 17, 18, 19, 20, 21, 22, 23, 24, 25, 26, 27, 28, 29, 30, 31, 32, 33, 34, 35, 36, 37, 38, 39, 40, 41, 42, 43, 44, 45, 46, 47, 48, 49, 50, 51, 52, 53, 54, 55, 56, 57, 58, 59, 60, 61, 62, 63, 64, 65, 66, 67, 68, 69, 70, 71, 72, 73, 74, 75, 76, 77, 78, 79, 80, 81, 82, 83, 84, 85, 86, 87, 88, 89, 90, 91, 92, 93, 94, 95, 96, 97, 98, 99, 100, 101, 102, 103, 104, 105, 106, 107, 108, 109, 110, 111, 112, 113, 114, 115, 116, 117, 118, 119, 120, 121, 122, 123, 124, 125, 126, 127, 128, 129, 130, 131, 132, 133, 134, 135, 136, 137, 138, 139, 140, 141, 142, 143, 144, 145, 146, 147, 148, 149, 150, 151, 152, 153, 154, 155, 156, 157],
      "AcquisitionTime": ["085900.820000", "085902.820000", "085904.820000", "085906.820000", "085908.820000", "085910.820000", "085912.820000", "085914.820000", "085916.820000", "085918.820000", "085920.820000", "085922.820000", "085924.820000", "085926.820000", "085928.820000", "085930.820000", "085932.820000", "085934.820000", "085936.820000", "085938.820000", "085940.820000", "085942.820000", "085944.820000", "085946.820000", "085948.820000", "085950.820000", "085952.820000", "085954.820000", "085956.820000", "085958.820000", "090000.820000", "090002.820000", "090004.820000", "090006.820000", "090008.820000", "090010.820000", "090012.820000", "090014.820000", "090016.820000", "090018.820000", "090020.820000", "090022.820000", "090024.820000", "090026.820000", "090028.820000", "090030.820000", "090032.820000", "090034.820000", "090036.820000", "090038.820000", "090040.820000", "090042.820000", "090044.820000", "090046.820000", "090048.820000", "090050.820000", "090052.820000", "090054.820000", "090056.820000", "090058.820000", "090100.820000", "090102.820000", "090104.820000", "090106.820000", "090108.820000", "090110.820000", "090112.820000", "090114.820000", "090116.820000", "090118.820000", "090120.820000", "090122.820000", "090124.820000", "090126.820000", "090128.820000", "090130.820000", "090132.820000", "090134.820000", "090136.820000", "090138.820000", "090140.820000", "090142.820000", "090144.820000", "090146.820000", "090148.820000", "090150.820000", "090152.820000", "090154.820000", "090156.820000", "090158.820000", "090200.820000", "090202.820000", "090204.820000", "090206.820000", "090208.820000", "090210.820000", "090212.820000", "090214.820000", "090216.820000", "090218.820000", "090220.820000", "090222.820000", "090224.820000", "090226.820000", "090228.820000", "090230.820000", "090232.820000", "090234.820000", "090236.820000", "090238.820000", "090240.820000", "090242.820000", "090244.820000", "090246.820000", "090248.820000", "090250.820000", "090252.820000", "090254.820000", "090256.820000", "090258.820000", "090300.820000", "090302.820000", "090304.820000", "090306.820000", "090308.820000", "090310.820000", "090312.820000", "090314.820000", "090316.820000", "090318.820000", "090320.820000", "090322.820000", "090324.820000", "090326.820000", "090328.820000", "090330.820000", "090332.820000", "090334.820000", "090336.820000", "090338.820000", "090340.820000", "090342.820000", "090344.820000", "090346.820000", "090348.820000", "090350.820000", "090352.820000", "090354.820000", "090356.820000", "090358.820000", "090400.820000", "090402.820000", "090404.820000", "090406.820000", "090408.820000", "090410.820000", "090412.820000"],
      "ContentTime": ["085950.025000", "085950.029000", "085950.032000", "085950.034000", "085950.037000", "085950.039000", "085950.042000", "085950.049000", "085950.051000", "085950.054000", "085950.057000", "085950.059000", "085950.062000", "085950.065000", "085950.067000", "085950.070000", "085950.072000", "085950.075000", "085950.078000", "085950.080000", "085950.083000", "085950.103000", "085950.106000", "085950.108000", "090030.020000", "090030.030000", "090030.033000", "090030.035000", "090030.038000", "090030.040000", "090030.043000", "090030.046000", "090030.048000", "090030.051000", "090030.054000", "090030.056000", "090030.059000", "090030.061000", "090030.064000", "090030.067000", "090030.069000", "090030.072000", "090030.074000", "090030.077000", "090110.020000", "090110.023000", "090110.026000", "090110.029000", "090110.031000", "090110.034000", "090110.036000", "090110.039000", "090110.041000", "090110.044000", "090110.046000", "090110.049000", "090110.052000", "090110.054000", "090110.057000", "090110.060000", "090110.062000", "090110.065000", "090110.067000", "090110.070000", "090150.020000", "090150.023000", "090150.026000", "090150.029000", "090150.031000", "090150.034000", "090150.036000", "090150.039000", "090150.042000", "090150.044000", "090150.047000", "090150.049000", "090150.052000", "090150.055000", "090150.057000", "090150.060000", "090150.063000", "090150.065000", "090150.068000", "090150.070000", "090230.020000", "090230.022000", "090230.025000", "090230.028000", "090230.030000", "090230.033000", "090230.035000", "090230.038000", "090230.041000", "090230.043000", "090230.046000", "090230.055000", "090230.057000", "090230.060000", "090230.062000", "090230.065000", "090230.067000", "090230.070000", "090230.073000", "090230.075000", "090310.020000", "090310.023000", "090310.026000", "090310.029000", "090310.032000", "090310.034000", "090310.037000", "090310.039000", "090310.042000", "090310.044000", "090310.047000", "090310.050000", "090310.052000", "090310.055000", "090310.057000", "090310.060000", "090310.063000", "090310.065000", "090310.068000", "090310.070000", "090350.020000", "090350.023000", "090350.026000", "090350.029000", "090350.031000", "090350.034000", "090350.036000", "090350.039000", "090350.042000", "090350.044000", "090350.047000", "090350.049000", "090350.052000", "090350.054000", "090350.057000", "090350.060000", "090350.062000", "090350.065000", "090350.067000", "090350.070000", "090414.254000", "090414.257000", "090414.260000", "090414.269000", "090414.272000", "090414.274000", "090414.277000", "090414.279000", "090414.283000", "090414.287000", "090414.291000", "090414.294000", "090414.298000"],
      "InstanceCreationTime": ["085950.025000", "085950.029000", "085950.032000", "085950.034000", "085950.037000", "085950.039000", "085950.042000", "085950.049000", "085950.051000", "085950.054000", "085950.057000", "085950.059000", "085950.062000", "085950.065000", "085950.067000", "085950.070000", "085950.072000", "085950.075000", "085950.078000", "085950.080000", "085950.083000", "085950.103000", "085950.106000", "085950.108000", "090030.020000", "090030.030000", "090030.033000", "090030.035000", "090030.038000", "090030.040000", "090030.043000", "090030.046000", "090030.048000", "090030.051000", "090030.054000", "090030.056000", "090030.059000", "090030.061000", "090030.064000", "090030.067000", "090030.069000", "090030.072000", "090030.074000", "090030.077000", "090110.020000", "090110.023000", "090110.026000", "090110.029000", "090110.031000", "090110.034000", "090110.036000", "090110.039000", "090110.041000", "090110.044000", "090110.046000", "090110.049000", "090110.052000", "090110.054000", "090110.057000", "090110.060000", "090110.062000", "090110.065000", "090110.067000", "090110.070000", "090150.020000", "090150.023000", "090150.026000", "090150.029000", "090150.031000", "090150.034000", "090150.036000", "090150.039000", "090150.042000", "090150.044000", "090150.047000", "090150.049000", "090150.052000", "090150.055000", "090150.057000", "090150.060000", "090150.063000", "090150.065000", "090150.068000", "090150.070000", "090230.020000", "090230.022000", "090230.025000", "090230.028000", "090230.030000", "090230.033000", "090230.035000", "090230.038000", "090230.041000", "090230.043000", "090230.046000", "090230.055000", "090230.057000", "090230.060000", "090230.062000", "090230.065000", "090230.067000", "090230.070000", "090230.073000", "090230.075000", "090310.020000", "090310.023000", "090310.026000", "090310.029000", "090310.032000", "090310.034000", "090310.037000", "090310.039000", "090310.042000", "090310.044000", "090310.047000", "090310.050000", "090310.052000", "090310.055000", "090310.057000", "090310.060000", "090310.063000", "090310.065000", "090310.068000", "090310.070000", "090350.020000", "090350.023000", "090350.026000", "090350.029000", "090350.031000", "090350.034000", "090350.036000", "090350.039000", "090350.042000", "090350.044000", "090350.047000", "090350.049000", "090350.052000", "090350.054000", "090350.057000", "090350.060000", "090350.062000", "090350.065000", "090350.067000", "090350.070000", "090414.254000", "090414.257000", "090414.260000", "090414.269000", "090414.272000", "090414.274000", "090414.277000", "090414.279000", "090414.283000", "090414.287000", "090414.291000", "090414.294000", "090414.298000"],
      "InstanceNumber": [1, 2, 3, 4, 5, 6, 7, 8, 9, 10, 11, 12, 13, 14, 15, 16, 17, 18, 19, 20, 21, 22, 23, 24, 25, 26, 27, 28, 29, 30, 31, 32, 33, 34, 35, 36, 37, 38, 39, 40, 41, 42, 43, 44, 45, 46, 47, 48, 49, 50, 51, 52, 53, 54, 55, 56, 57, 58, 59, 60, 61, 62, 63, 64, 65, 66, 67, 68, 69, 70, 71, 72, 73, 74, 75, 76, 77, 78, 79, 80, 81, 82, 83, 84, 85, 86, 87, 88, 89, 90, 91, 92, 93, 94, 95, 96, 97, 98, 99, 100, 101, 102, 103, 104, 105, 106, 107, 108, 109, 110, 111, 112, 113, 114, 115, 116, 117, 118, 119, 120, 121, 122, 123, 124, 125, 126, 127, 128, 129, 130, 131, 132, 133, 134, 135, 136, 137, 138, 139, 140, 141, 142, 143, 144, 145, 146, 147, 148, 149, 150, 151, 152, 153, 154, 155, 156, 157],
      "LargestImagePixelValue": [2219, 2224, 2221, 2218, 2227, 2221, 2226, 2225, 2231, 2225, 2218, 2217, 2220, 2227, 2227, 2225, 2221, 2225, 2224, 2219, 2221, 2218, 2229, 2217, 2225, 2224, 2228, 2219, 2225, 2219, 2226, 2228, 2230, 2229, 2223, 2225, 2218, 2231, 2220, 2221, 2222, 2220, 2223, 2220, 2231, 2217, 2218, 2222, 2218, 2215, 2226, 2217, 2218, 2221, 2227, 2218, 2219, 2223, 2218, 2224, 2221, 2217, 2226, 2225, 2227, 2214, 2222, 2219, 2216, 2224, 2227, 2218, 2224, 2215, 2228, 2223, 2214, 2225, 2220, 2217, 2215, 2209, 2219, 2218, 2214, 2224, 2222, 2222, 2224, 2222, 2218, 2221, 2220, 2222, 2219, 2221, 2222, 2227, 2214, 2221, 2216, 2223, 2209, 2219, 2219, 2219, 2225, 2217, 2213, 2219, 2210, 2215, 2224, 2213, 2218, 2217, 2219, 2219, 2219, 2222, 2227, 2221, 2228, 2224, 2218, 2216, 2222, 2221, 2219, 2221, 2217, 2219, 2219, 2222, 2224, 2219, 2219, 2217, 2217, 2216, 2224, 2219, 2227, 2219, 2219, 2216, 2219, 2215, 2218, 2221, 2222, 2215, 2222, 2209, 2220, 2217, 2217],
      "WindowCenter": [971.0, 972.0, 971.0, 971.0, 971.0, 971.0, 972.0, 971.0, 971.0, 971.0, 971.0, 971.0, 971.0, 971.0, 971.0, 971.0, 971.0, 971.0, 971.0, 971.0, 971.0, 972.0, 971.0, 971.0, 971.0, 971.0, 971.0, 971.0, 972.0, 971.0, 971.0, 971.0, 971.0, 971.0, 971.0, 971.0, 971.0, 971.0, 971.0, 972.0, 971.0, 971.0, 971.0, 971.0, 971.0, 972.0, 971.0, 971.0, 971.0, 971.0, 971.0, 971.0, 971.0, 971.0, 971.0, 971.0, 972.0, 971.0, 971.0, 971.0, 971.0, 972.0, 971.0, 971.0, 971.0, 971.0, 971.0, 971.0, 971.0, 971.0, 971.0, 971.0, 971.0, 972.0, 971.0, 971.0, 971.0, 972.0, 971.0, 972.0, 971.0, 971.0, 971.0, 971.0, 971.0, 971.0, 971.0, 971.0, 971.0, 971.0, 971.0, 971.0, 971.0, 971.0, 971.0, 972.0, 972.0, 971.0, 971.0, 971.0, 971.0, 971.0, 971.0, 971.0, 972.0, 971.0, 971.0, 971.0, 972.0, 971.0, 971.0, 971.0, 971.0, 971.0, 971.0, 971.0, 971.0, 971.0, 971.0, 972.0, 971.0, 971.0, 971.0, 971.0, 971.0, 971.0, 971.0, 971.0, 971.0, 971.0, 971.0, 971.0, 971.0, 971.0, 971.0, 971.0, 971.0, 972.0, 971.0, 971.0, 971.0, 971.0, 971.0, 971.0, 971.0, 971.0, 971.0, 971.0, 971.0, 971.0, 971.0, 971.0, 971.0, 971.0, 971.0, 971.0, 972.0],
      "WindowWidth": [2115.0, 2115.0, 2114.0, 2114.0, 2114.0, 2114.0, 2115.0, 2114.0, 2114.0, 2114.0, 2114.0, 2114.0, 2114.0, 2114.0, 2114.0, 2114.0, 2114.0, 2114.0, 2114.0, 2114.0, 2114.0, 2115.0, 2114.0, 2114.0, 2114.0, 2114.0, 2114.0, 2115.0, 2115.0, 2115.0, 2114.0, 2115.0, 2114.0, 2114.0, 2114.0, 2114.0, 2115.0, 2114.0, 2115.0, 2116.0, 2115.0, 2115.0, 2115.0, 2115.0, 2115.0, 2116.0, 2115.0, 2115.0, 2115.0, 2115.0, 2115.0, 2115.0, 2115.0, 2115.0, 2115.0, 2115.0, 2116.0, 2115.0, 2115.0, 2115.0, 2115.0, 2116.0, 2115.0, 2115.0, 2115.0, 2115.0, 2115.0, 2115.0, 2115.0, 2115.0, 2115.0, 2115.0, 2114.0, 2115.0, 2115.0, 2115.0, 2115.0, 2116.0, 2115.0, 2116.0, 2114.0, 2115.0, 2114.0, 2115.0, 2114.0, 2115.0, 2115.0, 2115.0, 2115.0, 2114.0, 2114.0, 2114.0, 2115.0, 2114.0, 2115.0, 2115.0, 2115.0, 2114.0, 2115.0, 2114.0, 2114.0, 2114.0, 2114.0, 2114.0, 2115.0, 2114.0, 2114.0, 2114.0, 2115.0, 2114.0, 2114.0, 2114.0, 2114.0, 2114.0, 2114.0, 2114.0, 2115.0, 2114.0, 2114.0, 2116.0, 2114.0, 2114.0, 2114.0, 2114.0, 2115.0, 2114.0, 2115.0, 2114.0, 2115.0, 2115.0, 2115.0, 2115.0, 2115.0, 2114.0, 2115.0, 2114.0, 2114.0, 2115.0, 2114.0, 2115.0, 2115.0, 2115.0, 2115.0, 2115.0, 2115.0, 2115.0, 2114.0, 2114.0, 2115.0, 2115.0, 2115.0, 2115.0, 2115.0, 2115.0, 2115.0, 2115.0, 2115.0]
    },
    "slices": {}
  }
}