{
  "AcquisitionMatrixPE": 80,
  "AcquisitionNumber": 1,
  "AcquisitionTime": "09:21:38.792500",
  "BandwidthPerPixelPhaseEncode": 48.077,
  "BaseResolution": 80,
  "BodyPartExamined": "BRAIN",
  "CoilCombinationMethod": "Sum of Squares",
  "ConsistencyInfo": "N4_VE11C_LATEST_20160120",
  "ConversionSoftware": "dcm2niix",
  "ConversionSoftwareVersion": "v1.0.20220720",
  "DerivedVendorReportedEchoSpacing": 0.000519999,
  "DeviceSerialNumber": "66112",
  "DwellTime": 2.7e-06,
  "EchoTime": 0.035,
  "EchoTrainLength": 39,
  "EffectiveEchoSpacing": 0.00026,
  "FlipAngle": 90,
  "HeudiconvVersion": "0.13.1",
  "ImageOrientationPatientDICOM": [0.986311, -0.164854, 0.00368752, 0.15604, 0.940342, 0.302338],
  "ImageOrientationText": "Tra>Cor(17.3)>Sag(3.1)",
  "ImageType": [
    "ORIGINAL",
    "PRIMARY",
    "M",
    "ND",
    "NORM",
    "MOSAIC"
],
  "ImagingFrequency": 123.252,
  "InPlanePhaseEncodingDirectionDICOM": "COL",
  "InstitutionAddress": "Maynard 3,Hanover,NH,US,03755",
  "InstitutionName": "Dartmouth College - PBS",
  "InstitutionalDepartmentName": "Department",
  "MRAcquisitionType": "2D",
  "MagneticFieldStrength": 3,
  "Manufacturer": "Siemens",
  "ManufacturersModelName": "Prisma",
  "MatrixCoilMode": "GRAPPA",
  "Modality": "MR",
  "NonlinearGradientCorrection": false,
  "ParallelReductionFactorInPlane": 2,
  "PartialFourier": 1,
  "PatientPosition": "HFS",
  "PercentPhaseFOV": 100,
  "PercentSampling": 100,
  "PhaseEncodingDirection": "j-",
  "PhaseEncodingSteps": 79,
  "PhaseResolution": 1,
  "PixelBandwidth": 2315,
  "ProcedureStepDescription": "dbic^QA",
  "ProtocolName": "func-bold_task-rest_acq-p2",
  "PulseSequenceDetails": "%SiemensSeq%\\ep2d_bold",
  "ReceiveCoilActiveElements": "HEA;HEP",
  "ReceiveCoilName": "Head_32",
  "ReconMatrixPE": 80,
  "RefLinesPE": 24,
  "RepetitionTime": 2,
  "SAR": 0.0555409,
  "ScanOptions": "FS",
  "ScanningSequence": "EP",
  "SequenceName": "*epfid2d1_80",
  "SequenceVariant": "SK",
  "SeriesDescription": "func-bold_task-rest_acq-p2",
  "SeriesNumber": 5,
  "ShimSetting": [4144, -7691, -7518, 308, -88, -132, 10, 66],
  "SliceThickness": 3.5,
  "SliceTiming": [0.9875, 0, 1.055, 0.065, 1.12, 0.13, 1.1875, 0.1975, 1.2525, 0.2625, 1.3175, 0.33, 1.385, 0.395, 1.45, 0.46, 1.5175, 0.5275, 1.5825, 0.5925, 1.6475, 0.66, 1.715, 0.725, 1.78, 0.79, 1.8475, 0.8575, 1.9125, 0.9225],
  "SoftwareVersions": "syngo MR E11",
  "SpacingBetweenSlices": 3.99,
  "StationName": "AWP66112",
  "TaskName": "rest",
  "TotalReadoutTime": 0.02054,
  "TxRefAmp": 222.457,
  "dcmmeta_affine": [
    [-2.9589335918426514, 0.4681195616722107, 0.21270301938056946, 95.61882019042969],
    [0.4945606291294098, 2.82102632522583, 1.1875197887420654, -140.48348999023438],
    [0.011062550358474255, -0.9070141911506653, 3.8032424449920654, -20.48823356628418],
    [0.0, 0.0, 0.0, 1.0]
],
  "dcmmeta_reorient_transform": [
    [0.0, -1.0, 0.0, 79.0],
    [1.0, 0.0, 0.0, 0.0],
    [0.0, 0.0, 1.0, 0.0],
    [0.0, 0.0, 0.0, 1.0]
],
  "dcmmeta_shape": [80, 80, 30, 200],
  "dcmmeta_slice_dim": 2,
  "dcmmeta_version": 0.6,
  "global": {
    "const": {
      "AccessionNumber": "qa",
      "AcquisitionMatrix": [80, 0, 0, 80],
      "AngioFlag": "N",
      "BitsAllocated": 16,
      "BitsStored": 12,
      "BodyPartExamined": "BRAIN",
      "Columns": 480,
      "EchoNumbers": 1,
      "EchoTime": 35.0,
      "EchoTrainLength": 39,
      "FlipAngle": 90.0,
      "HighBit": 11,
      "ImageOrientationPatient": [0.98631116422429, -0.1648535396865, 0.00368751669163, 0.1560398505318, 0.94034209755909, 0.30233806343923],
      "ImagePositionPatient": [-818.01087427825, -547.67071804338, -275.75770251477],
      "ImageType": [
        "ORIGINAL",
        "PRIMARY",
        "M",
        "ND",
        "NORM",
        "MOSAIC"
],
      "ImagedNucleus": "1H",
      "ImagingFrequency": 123.252325,
      "InPlanePhaseEncodingDirection": "COL",
      "MRAcquisitionType": "2D",
      "MagneticFieldStrength": 3.0,
      "Manufacturer": "SIEMENS",
      "ManufacturerModelName": "Prisma",
      "Modality": "MR",
      "NumberOfAverages": 1.0,
      "NumberOfPhaseEncodingSteps": 79,
      "PercentPhaseFieldOfView": 100.0,
      "PercentSampling": 100.0,
      "PerformedProcedureStepStartTime": "091837.086000",
      "PhotometricInterpretation": "MONOCHROME2",
      "PixelBandwidth": 2315.0,
      "PixelRepresentation": 0,
      "PixelSpacing": [3.0, 3.0],
      "ProtocolName": "func-bold_task-rest_acq-p2",
      "RepetitionTime": 2000.0,
      "Rows": 480,
      "SAR": 0.05554089216147,
      "SamplesPerPixel": 1,
      "ScanOptions": "FS",
      "ScanningSequence": "EP",
      "SequenceName": "*epfid2d1_80",
      "SequenceVariant": "SK",
      "SeriesDescription": "func-bold_task-rest_acq-p2",
      "SeriesNumber": 5,
      "SeriesTime": "092231.300000",
      "SliceLocation": -56.243167721664,
      "SliceThickness": 3.5,
      "SmallestImagePixelValue": 0,
      "SoftwareVersions": "syngo MR E11",
      "SpacingBetweenSlices": 3.9899999376132,
      "SpecificCharacterSet": "ISO_IR 100",
      "StudyID": "4",
      "StudyTime": "091837.043000",
      "TransmitCoilName": "Body",
      "VariableFlipAngleFlag": "N",
      "WindowCenterWidthExplanation": "Algo1",
      "dBdt": 0.0},
    "slices": {}
  },
  "time": {
    "samples": {
      "AcquisitionNumber": [1, 2, 3, 4, 5, 6, 7, 8, 9, 10, 11, 12, 13, 14, 15, 16, 17, 18, 19, 20, 21, 22, 23, 24, 25, 26, 27, 28, 29, 30, 31, 32, 33, 34, 35, 36, 37, 38, 39, 40, 41, 42, 43, 44, 45, 46, 47, 48, 49, 50, 51, 52, 53, 54, 55, 56, 57, 58, 59, 60, 61, 62, 63, 64, 65, 66, 67, 68, 69, 70, 71, 72, 73, 74, 75, 76, 77, 78, 79, 80, 81, 82, 83, 84, 85, 86, 87, 88, 89, 90, 91, 92, 93, 94, 95, 96, 97, 98, 99, 100, 101, 102, 103, 104, 105, 106, 107, 108, 109, 110, 111, 112, 113, 114, 115, 116, 117, 118, 119, 120, 121, 122, 123, 124, 125, 126, 127, 128, 129, 130, 131, 132, 133, 134, 135, 136, 137, 138, 139, 140, 141, 142, 143, 144, 145, 146, 147, 148, 149, 150, 151, 152, 153, 154, 155, 156, 157, 158, 159, 160, 161, 162, 163, 164, 165, 166, 167, 168, 169, 170, 171, 172, 173, 174, 175, 176, 177, 178, 179, 180, 181, 182, 183, 184, 185, 186, 187, 188, 189, 190, 191, 192, 193, 194, 195, 196, 197, 198, 199, 200],
      "AcquisitionTime": ["092138.792500", "092140.792500", "092142.792500", "092144.792500", "092146.792500", "092148.792500", "092150.792500", "092152.792500", "092154.792500", "092156.792500", "092158.792500", "092200.792500", "092202.792500", "092204.792500", "092206.792500", "092208.792500", "092210.792500", "092212.792500", "092214.792500", "092216.792500", "092218.792500", "092220.792500", "092222.792500", "092224.792500", "092226.792500", "092228.792500", "092230.792500", "092232.792500", "092234.792500", "092236.792500", "092238.792500", "092240.792500", "092242.792500", "092244.792500", "092246.792500", "092248.792500", "092250.792500", "092252.792500", "092254.792500", "092256.792500", "092258.792500", "092300.792500", "092302.792500", "092304.792500", "092306.792500", "092308.792500", "092310.792500", "092312.792500", "092314.792500", "092316.792500", "092318.792500", "092320.792500", "092322.792500", "092324.792500", "092326.792500", "092328.792500", "092330.792500", "092332.792500", "092334.792500", "092336.792500", "092338.792500", "092340.792500", "092342.792500", "092344.792500", "092346.792500", "092348.792500", "092350.792500", "092352.792500", "092354.792500", "092356.792500", "092358.792500", "092400.792500", "092402.792500", "092404.792500", "092406.792500", "092408.792500", "092410.792500", "092412.792500", "092414.792500", "092416.792500", "092418.792500", "092420.792500", "092422.792500", "092424.792500", "092426.792500", "092428.792500", "092430.792500", "092432.792500", "092434.792500", "092436.792500", "092438.792500", "092440.792500", "092442.792500", "092444.792500", "092446.792500", "092448.792500", "092450.792500", "092452.792500", "092454.792500", "092456.792500", "092458.792500", "092500.792500", "092502.792500", "092504.792500", "092506.792500", "092508.792500", "092510.792500", "092512.792500", "092514.792500", "092516.792500", "092518.792500", "092520.792500", "092522.792500", "092524.792500", "092526.792500", "092528.792500", "092530.792500", "092532.792500", "092534.792500", "092536.792500", "092538.792500", "092540.792500", "092542.792500", "092544.792500", "092546.792500", "092548.792500", "092550.792500", "092552.792500", "092554.792500", "092556.792500", "092558.792500", "092600.792500", "092602.792500", "092604.792500", "092606.792500", "092608.792500", "092610.792500", "092612.792500", "092614.792500", "092616.792500", "092618.792500", "092620.792500", "092622.792500", "092624.792500", "092626.792500", "092628.792500", "092630.792500", "092632.792500", "092634.792500", "092636.792500", "092638.792500", "092640.792500", "092642.792500", "092644.792500", "092646.792500", "092648.792500", "092650.792500", "092652.792500", "092654.792500", "092656.792500", "092658.792500", "092700.792500", "092702.792500", "092704.792500", "092706.792500", "092708.792500", "092710.792500", "092712.792500", "092714.792500", "092716.792500", "092718.792500", "092720.792500", "092722.792500", "092724.792500", "092726.792500", "092728.792500", "092730.792500", "092732.792500", "092734.792500", "092736.792500", "092738.792500", "092740.792500", "092742.792500", "092744.792500", "092746.792500", "092748.792500", "092750.792500", "092752.792500", "092754.792500", "092756.792500", "092758.792500", "092800.792500", "092802.792500", "092804.792500", "092806.792500", "092808.792500", "092810.792500", "092812.792500", "092814.792500", "092816.792500"],
      "ContentTime": ["092231.303000", "092231.307000", "092231.309000", "092231.312000", "092231.315000", "092231.317000", "092231.320000", "092231.322000", "092231.325000", "092231.327000", "092231.330000", "092231.333000", "092231.335000", "092231.339000", "092231.342000", "092231.344000", "092231.353000", "092231.356000", "092231.358000", "092231.361000", "092231.363000", "092231.366000", "092231.369000", "092231.371000", "092231.374000", "092231.376000", "092311.298000", "092311.301000", "092311.304000", "092311.306000", "092311.309000", "092311.312000", "092311.314000", "092311.317000", "092311.319000", "092311.322000", "092311.325000", "092311.327000", "092311.330000", "092311.332000", "092311.335000", "092311.338000", "092311.340000", "092311.343000", "092311.346000", "092311.348000", "092351.298000", "092351.301000", "092351.304000", "092351.307000", "092351.309000", "092351.312000", "092351.314000", "092351.317000", "092351.319000", "092351.322000", "092351.325000", "092351.327000", "092351.330000", "092351.332000", "092351.335000", "092351.338000", "092351.340000", "092351.343000", "092351.345000", "092351.348000", "092431.298000", "092431.301000", "092431.304000", "092431.306000", "092431.309000", "092431.312000", "092431.314000", "092431.317000", "092431.319000", "092431.322000", "092431.325000", "092431.327000", "092431.330000", "092431.332000", "092431.335000", "092431.338000", "092431.340000", "092431.343000", "092431.346000", "092431.348000", "092511.298000", "092511.301000", "092511.304000", "092511.307000", "092511.309000", "092511.312000", "092511.314000", "092511.317000", "092511.319000", "092511.322000", "092511.325000", "092511.327000", "092511.330000", "092511.332000", "092511.335000", "092511.338000", "092511.340000", "092511.343000", "092511.346000", "092511.348000", "092551.298000", "092551.300000", "092551.303000", "092551.306000", "092551.308000", "092551.311000", "092551.313000", "092551.316000", "092551.319000", "092551.321000", "092551.324000", "092551.326000", "092551.329000", "092551.333000", "092551.335000", "092551.338000", "092551.340000", "092551.343000", "092551.346000", "092551.348000", "092631.299000", "092631.301000", "092631.304000", "092631.307000", "092631.309000", "092631.312000", "092631.315000", "092631.317000", "092631.320000", "092631.322000", "092631.325000", "092631.327000", "092631.330000", "092631.333000", "092631.335000", "092631.338000", "092631.341000", "092631.343000", "092631.346000", "092631.348000", "092711.299000", "092711.301000", "092711.304000", "092711.307000", "092711.309000", "092711.312000", "092711.315000", "092711.317000", "092711.320000", "092711.323000", "092711.325000", "092711.328000", "092711.332000", "092711.335000", "092711.337000", "092711.340000", "092711.343000", "092711.345000", "092711.348000", "092711.350000", "092751.299000", "092751.301000", "092751.304000", "092751.306000", "092751.309000", "092751.312000", "092751.314000", "092751.317000", "092751.320000", "092751.322000", "092751.325000", "092751.327000", "092751.330000", "092751.333000", "092751.335000", "092751.338000", "092751.341000", "092751.343000", "092751.346000", "092751.348000", "092818.754000", "092818.757000", "092818.760000", "092818.763000", "092818.765000", "092818.768000", "092818.770000", "092818.773000", "092818.776000", "092818.778000", "092818.781000", "092818.789000", "092818.794000", "092818.806000"],
      "InstanceCreationTime": ["092231.303000", "092231.307000", "092231.309000", "092231.312000", "092231.315000", "092231.317000", "092231.320000", "092231.322000", "092231.325000", "092231.327000", "092231.330000", "092231.333000", "092231.335000", "092231.339000", "092231.342000", "092231.344000", "092231.353000", "092231.356000", "092231.358000", "092231.361000", "092231.363000", "092231.366000", "092231.369000", "092231.371000", "092231.374000", "092231.376000", "092311.298000", "092311.301000", "092311.304000", "092311.306000", "092311.309000", "092311.312000", "092311.314000", "092311.317000", "092311.319000", "092311.322000", "092311.325000", "092311.327000", "092311.330000", "092311.332000", "092311.335000", "092311.338000", "092311.340000", "092311.343000", "092311.346000", "092311.348000", "092351.298000", "092351.301000", "092351.304000", "092351.307000", "092351.309000", "092351.312000", "092351.314000", "092351.317000", "092351.319000", "092351.322000", "092351.325000", "092351.327000", "092351.330000", "092351.332000", "092351.335000", "092351.338000", "092351.340000", "092351.343000", "092351.345000", "092351.348000", "092431.298000", "092431.301000", "092431.304000", "092431.306000", "092431.309000", "092431.312000", "092431.314000", "092431.317000", "092431.319000", "092431.322000", "092431.325000", "092431.327000", "092431.330000", "092431.332000", "092431.335000", "092431.338000", "092431.340000", "092431.343000", "092431.346000", "092431.348000", "092511.298000", "092511.301000", "092511.304000", "092511.307000", "092511.309000", "092511.312000", "092511.314000", "092511.317000", "092511.319000", "092511.322000", "092511.325000", "092511.327000", "092511.330000", "092511.332000", "092511.335000", "092511.338000", "092511.340000", "092511.343000", "092511.346000", "092511.348000", "092551.298000", "092551.300000", "092551.303000", "092551.306000", "092551.308000", "092551.311000", "092551.313000", "092551.316000", "092551.319000", "092551.321000", "092551.324000", "092551.326000", "092551.329000", "092551.333000", "092551.335000", "092551.338000", "092551.340000", "092551.343000", "092551.346000", "092551.348000", "092631.299000", "092631.301000", "092631.304000", "092631.307000", "092631.309000", "092631.312000", "092631.315000", "092631.317000", "092631.320000", "092631.322000", "092631.325000", "092631.327000", "092631.330000", "092631.333000", "092631.335000", "092631.338000", "092631.341000", "092631.343000", "092631.346000", "092631.348000", "092711.299000", "092711.301000", "092711.304000", "092711.307000", "092711.309000", "092711.312000", "092711.315000", "092711.317000", "092711.320000", "092711.323000", "092711.325000", "092711.328000", "092711.332000", "092711.335000", "092711.337000", "092711.340000", "092711.343000", "092711.345000", "092711.348000", "092711.350000", "092751.299000", "092751.301000", "092751.304000", "092751.306000", "092751.309000", "092751.312000", "092751.314000", "092751.317000", "092751.320000", "092751.322000", "092751.325000", "092751.327000", "092751.330000", "092751.333000", "092751.335000", "092751.338000", "092751.341000", "092751.343000", "092751.346000", "092751.348000", "092818.754000", "092818.757000", "092818.760000", "092818.763000", "092818.765000", "092818.768000", "092818.770000", "092818.773000", "092818.776000", "092818.778000", "092818.781000", "092818.789000", "092818.794000", "092818.806000"],
      "InstanceNumber": [1, 2, 3, 4, 5, 6, 7, 8, 9, 10, 11, 12, 13, 14, 15, 16, 17, 18, 19, 20, 21, 22, 23, 24, 25, 26, 27, 28, 29, 30, 31, 32, 33, 34, 35, 36, 37, 38, 39, 40, 41, 42, 43, 44, 45, 46, 47, 48, 49, 50, 51, 52, 53, 54, 55, 56, 57, 58, 59, 60, 61, 62, 63, 64, 65, 66, 67, 68, 69, 70, 71, 72, 73, 74, 75, 76, 77, 78, 79, 80, 81, 82, 83, 84, 85, 86, 87, 88, 89, 90, 91, 92, 93, 94, 95, 96, 97, 98, 99, 100, 101, 102, 103, 104, 105, 106, 107, 108, 109, 110, 111, 112, 113, 114, 115, 116, 117, 118, 119, 120, 121, 122, 123, 124, 125, 126, 127, 128, 129, 130, 131, 132, 133, 134, 135, 136, 137, 138, 139, 140, 141, 142, 143, 144, 145, 146, 147, 148, 149, 150, 151, 152, 153, 154, 155, 156, 157, 158, 159, 160, 161, 162, 163, 164, 165, 166, 167, 168, 169, 170, 171, 172, 173, 174, 175, 176, 177, 178, 179, 180, 181, 182, 183, 184, 185, 186, 187, 188, 189, 190, 191, 192, 193, 194, 195, 196, 197, 198, 199, 200],
      "LargestImagePixelValue": [2178, 2178, 2176, 2174, 2177, 2178, 2177, 2182, 2188, 2179, 2183, 2174, 2181, 2185, 2178, 2176, 2176, 2176, 2181, 2182, 2181, 2179, 2186, 2179, 2179, 2182, 2177, 2180, 2183, 2183, 2186, 2175, 2183, 2183, 2184, 2183, 2184, 2185, 2180, 2187, 2183, 2189, 2183, 2181, 2178, 2184, 2177, 2175, 2183, 2178, 2182, 2179, 2188, 2189, 2182, 2189, 2185, 2183, 2179, 2190, 2182, 2183, 2183, 2181, 2183, 2182, 2183, 2184, 2179, 2179, 2185, 2187, 2186, 2184, 2180, 2176, 2184, 2190, 2187, 2183, 2186, 2180, 2187, 2195, 2185, 2183, 2185, 2189, 2185, 2177, 2183, 2183, 2189, 2185, 2191, 2187, 2189, 2188, 2180, 2188, 2187, 2187, 2190, 2191, 2186, 2186, 2188, 2188, 2182, 2184, 2186, 2186, 2184, 2191, 2189, 2182, 2183, 2183, 2182, 2186, 2181, 2183, 2183, 2182, 2179, 2183, 2178, 2176, 2191, 2181, 2181, 2182, 2179, 2184, 2179, 2186, 2185, 2188, 2188, 2187, 2182, 2190, 2186, 2186, 2179, 2185, 2185, 2187, 2181, 2191, 2179, 2182, 2187, 2183, 2180, 2184, 2179, 2196, 2189, 2190, 2183, 2185, 2181, 2189, 2179, 2180, 2192, 2180, 2181, 2191, 2193, 2192, 2185, 2186, 2185, 2190, 2181, 2180, 2185, 2188, 2187, 2192, 2185, 2190, 2186, 2184, 2186, 2185, 2190, 2188, 2179, 2181, 2189, 2180, 2189, 2187, 2186, 2186, 2193, 2188],
      "WindowCenter": [1015.0, 1015.0, 1015.0, 1015.0, 1015.0, 1014.0, 1015.0, 1015.0, 1015.0, 1014.0, 1014.0, 1015.0, 1014.0, 1015.0, 1014.0, 1014.0, 1014.0, 1014.0, 1014.0, 1014.0, 1014.0, 1015.0, 1014.0, 1014.0, 1014.0, 1014.0, 1014.0, 1014.0, 1014.0, 1014.0, 1014.0, 1014.0, 1014.0, 1014.0, 1014.0, 1014.0, 1014.0, 1014.0, 1014.0, 1015.0, 1014.0, 1014.0, 1014.0, 1014.0, 1014.0, 1014.0, 1014.0, 1014.0, 1014.0, 1014.0, 1014.0, 1014.0, 1014.0, 1014.0, 1014.0, 1014.0, 1014.0, 1014.0, 1014.0, 1014.0, 1014.0, 1015.0, 1014.0, 1014.0, 1015.0, 1014.0, 1014.0, 1014.0, 1014.0, 1014.0, 1015.0, 1014.0, 1014.0, 1014.0, 1014.0, 1014.0, 1014.0, 1014.0, 1014.0, 1014.0, 1014.0, 1014.0, 1014.0, 1014.0, 1014.0, 1014.0, 1014.0, 1014.0, 1014.0, 1014.0, 1014.0, 1014.0, 1014.0, 1014.0, 1014.0, 1014.0, 1014.0, 1014.0, 1015.0, 1014.0, 1014.0, 1014.0, 1014.0, 1014.0, 1014.0, 1014.0, 1014.0, 1014.0, 1014.0, 1014.0, 1014.0, 1014.0, 1014.0, 1014.0, 1014.0, 1013.0, 1014.0, 1014.0, 1014.0, 1014.0, 1014.0, 1014.0, 1013.0, 1014.0, 1014.0, 1014.0, 1013.0, 1014.0, 1014.0, 1014.0, 1014.0, 1014.0, 1014.0, 1014.0, 1013.0, 1014.0, 1013.0, 1013.0, 1014.0, 1013.0, 1013.0, 1013.0, 1013.0, 1013.0, 1013.0, 1014.0, 1014.0, 1013.0, 1013.0, 1013.0, 1013.0, 1013.0, 1013.0, 1013.0, 1013.0, 1013.0, 1013.0, 1014.0, 1013.0, 1013.0, 1013.0, 1013.0, 1013.0, 1013.0, 1013.0, 1013.0, 1013.0, 1013.0, 1013.0, 1013.0, 1013.0, 1013.0, 1013.0, 1013.0, 1013.0, 1013.0, 1013.0, 1013.0, 1013.0, 1013.0, 1013.0, 1013.0, 1013.0, 1013.0, 1013.0, 1013.0, 1013.0, 1013.0, 1013.0, 1013.0, 1013.0, 1013.0, 1013.0, 1013.0, 1013.0, 1013.0, 1013.0, 1013.0, 1013.0, 1013.0],
      "WindowWidth": [2247.0, 2247.0, 2247.0, 2247.0, 2246.0, 2247.0, 2247.0, 2246.0, 2246.0, 2246.0, 2246.0, 2246.0, 2246.0, 2246.0, 2246.0, 2246.0, 2246.0, 2246.0, 2246.0, 2246.0, 2246.0, 2246.0, 2246.0, 2246.0, 2246.0, 2246.0, 2246.0, 2246.0, 2245.0, 2245.0, 2245.0, 2246.0, 2246.0, 2246.0, 2246.0, 2245.0, 2245.0, 2246.0, 2245.0, 2246.0, 2245.0, 2245.0, 2246.0, 2245.0, 2245.0, 2245.0, 2245.0, 2245.0, 2245.0, 2245.0, 2245.0, 2245.0, 2245.0, 2245.0, 2245.0, 2245.0, 2245.0, 2245.0, 2245.0, 2245.0, 2245.0, 2246.0, 2245.0, 2245.0, 2245.0, 2245.0, 2245.0, 2245.0, 2245.0, 2245.0, 2245.0, 2245.0, 2245.0, 2245.0, 2245.0, 2245.0, 2245.0, 2245.0, 2245.0, 2245.0, 2245.0, 2245.0, 2245.0, 2244.0, 2244.0, 2245.0, 2245.0, 2244.0, 2245.0, 2245.0, 2245.0, 2244.0, 2244.0, 2244.0, 2244.0, 2244.0, 2244.0, 2244.0, 2245.0, 2244.0, 2244.0, 2244.0, 2244.0, 2244.0, 2244.0, 2244.0, 2244.0, 2244.0, 2244.0, 2244.0, 2244.0, 2244.0, 2245.0, 2244.0, 2244.0, 2244.0, 2244.0, 2244.0, 2244.0, 2244.0, 2244.0, 2244.0, 2244.0, 2244.0, 2244.0, 2244.0, 2244.0, 2244.0, 2244.0, 2244.0, 2244.0, 2244.0, 2244.0, 2244.0, 2244.0, 2244.0, 2243.0, 2243.0, 2244.0, 2243.0, 2243.0, 2243.0, 2243.0, 2243.0, 2244.0, 2244.0, 2244.0, 2243.0, 2243.0, 2244.0, 2243.0, 2244.0, 2243.0, 2243.0, 2243.0, 2243.0, 2243.0, 2244.0, 2243.0, 2243.0, 2243.0, 2243.0, 2243.0, 2243.0, 2243.0, 2243.0, 2243.0, 2243.0, 2243.0, 2243.0, 2243.0, 2243.0, 2243.0, 2243.0, 2243.0, 2243.0, 2243.0, 2243.0, 2243.0, 2243.0, 2243.0, 2243.0, 2243.0, 2243.0, 2243.0, 2243.0, 2243.0, 2243.0, 2242.0, 2243.0, 2243.0, 2243.0, 2243.0, 2243.0, 2243.0, 2242.0, 2243.0, 2242.0, 2243.0, 2243.0]
    },
    "slices": {}
  }
}