{
  "AcquisitionMatrixPE": 80,
  "AcquisitionNumber": 1,
  "AcquisitionTime": "09:28:34.147500",
  "BandwidthPerPixelPhaseEncode": 44.643,
  "BaseResolution": 80,
  "BodyPartExamined": "BRAIN",
  "CoilCombinationMethod": "Sum of Squares",
  "ConsistencyInfo": "N4_VE11C_LATEST_20160120",
  "ConversionSoftware": "dcm2niix",
  "ConversionSoftwareVersion": "v1.0.20220720",
  "DerivedVendorReportedEchoSpacing": 0.000559998,
  "DeviceSerialNumber": "66112",
  "DwellTime": 2.7e-06,
  "EchoTime": 0.035,
  "EchoTrainLength": 39,
  "EffectiveEchoSpacing": 0.000279999,
  "FlipAngle": 90,
  "HeudiconvVersion": "0.13.1",
  "ImageOrientationPatientDICOM": [0.986311, -0.164854, 0.00368752, 0.15604, 0.940342, 0.302338],
  "ImageOrientationText": "Tra>Cor(17.3)>Sag(3.1)",
  "ImageType": [
    "ORIGINAL",
    "PRIMARY",
    "M",
    "ND",
    "NORM",
    "MOSAIC"
],
  "ImagingFrequency": 123.252,
  "InPlanePhaseEncodingDirectionDICOM": "COL",
  "InstitutionAddress": "Maynard 3,Hanover,NH,US,03755",
  "InstitutionName": "Dartmouth College - PBS",
  "InstitutionalDepartmentName": "Department",
  "MRAcquisitionType": "2D",
  "MagneticFieldStrength": 3,
  "Manufacturer": "Siemens",
  "ManufacturersModelName": "Prisma",
  "Modality": "MR",
  "MultibandAccelerationFactor": 4,
  "NonlinearGradientCorrection": false,
  "ParallelReductionFactorInPlane": 2,
  "PartialFourier": 1,
  "PatientPosition": "HFS",
  "PercentPhaseFOV": 100,
  "PercentSampling": 100,
  "PhaseEncodingDirection": "j-",
  "PhaseEncodingSteps": 79,
  "PhaseResolution": 1,
  "PixelBandwidth": 2315,
  "ProcedureStepDescription": "dbic^QA",
  "ProtocolName": "func-bold_task-rest_acq-p2-s4-3.5mm",
  "PulseSequenceDetails": "%SiemensSeq%\\ep2d_bold",
  "ReceiveCoilActiveElements": "HEA;HEP",
  "ReceiveCoilName": "Head_32",
  "ReconMatrixPE": 80,
  "RefLinesPE": 24,
  "RepetitionTime": 2,
  "SAR": 0.020885,
  "ScanOptions": "FS",
  "ScanningSequence": "EP",
  "SequenceName": "*epfid2d1_80",
  "SequenceVariant": "SK",
  "SeriesDescription": "func-bold_task-rest_acq-p2-s4-3.5mm",
  "SeriesNumber": 7,
  "ShimSetting": [4144, -7693, -7517, 308, -88, -131, 12, 66],
  "SliceThickness": 3.5,
  "SliceTiming": [1.485, 0, 0.99, 0.2475, 1.2375, 0.7425, 1.7325, 0.495, 1.485, 0, 0.99, 0.2475, 1.2375, 0.7425, 1.7325, 0.495, 1.485, 0, 0.99, 0.2475, 1.2375, 0.7425, 1.7325, 0.495, 1.485, 0, 0.99, 0.2475, 1.2375, 0.7425, 1.7325, 0.495],
  "SoftwareVersions": "syngo MR E11",
  "SpacingBetweenSlices": 3.99,
  "StationName": "AWP66112",
  "TaskName": "rest",
  "TotalReadoutTime": 0.0221199,
  "TxRefAmp": 222.457,
  "dcmmeta_affine": [
    [-2.9589335918426514, 0.4681195616722107, 0.21270301938056946, 95.40612030029297],
    [0.4945606291294098, 2.82102632522583, 1.1875197887420654, -141.67100524902344],
    [0.011062550358474255, -0.9070141911506653, 3.8032426834106445, -24.291479110717773],
    [0.0, 0.0, 0.0, 1.0]
],
  "dcmmeta_reorient_transform": [
    [0.0, -1.0, 0.0, 79.0],
    [1.0, 0.0, 0.0, 0.0],
    [0.0, 0.0, 1.0, 0.0],
    [0.0, 0.0, 0.0, 1.0]
],
  "dcmmeta_shape": [80, 80, 32, 200],
  "dcmmeta_slice_dim": 2,
  "dcmmeta_version": 0.6,
  "global": {
    "const": {
      "AccessionNumber": "qa",
      "AcquisitionMatrix": [80, 0, 0, 80],
      "AngioFlag": "N",
      "BitsAllocated": 16,
      "BitsStored": 12,
      "BodyPartExamined": "BRAIN",
      "Columns": 480,
      "EchoNumbers": 1,
      "EchoTime": 35.0,
      "EchoTrainLength": 39,
      "FlipAngle": 90.0,
      "HighBit": 11,
      "ImageOrientationPatient": [0.98631116422429, -0.1648535396865, 0.00368751669163, 0.1560398505318, 0.94034209755909, 0.30233806343923],
      "ImagePositionPatient": [-817.79817105026, -546.48319896989, -279.56094805921],
      "ImageType": [
        "ORIGINAL",
        "PRIMARY",
        "M",
        "ND",
        "NORM",
        "MOSAIC"
],
      "ImagedNucleus": "1H",
      "ImagingFrequency": 123.252324,
      "InPlanePhaseEncodingDirection": "COL",
      "MRAcquisitionType": "2D",
      "MagneticFieldStrength": 3.0,
      "Manufacturer": "SIEMENS",
      "ManufacturerModelName": "Prisma",
      "Modality": "MR",
      "NumberOfAverages": 1.0,
      "NumberOfPhaseEncodingSteps": 79,
      "PercentPhaseFieldOfView": 100.0,
      "PercentSampling": 100.0,
      "PerformedProcedureStepStartTime": "091837.086000",
      "PhotometricInterpretation": "MONOCHROME2",
      "PixelBandwidth": 2315.0,
      "PixelRepresentation": 0,
      "PixelSpacing": [3.0, 3.0],
      "ProtocolName": "func-bold_task-rest_acq-p2-s4-3.5mm",
      "RepetitionTime": 2000.0,
      "Rows": 480,
      "SAR": 0.02088499498417,
      "SamplesPerPixel": 1,
      "ScanOptions": "FS",
      "ScanningSequence": "EP",
      "SequenceName": "*epfid2d1_80",
      "SequenceVariant": "SK",
      "SeriesDescription": "func-bold_task-rest_acq-p2-s4-3.5mm",
      "SeriesNumber": 7,
      "SeriesTime": "092931.382000",
      "SliceLocation": -60.233170338749,
      "SliceThickness": 3.5,
      "SmallestImagePixelValue": 0,
      "SoftwareVersions": "syngo MR E11",
      "SpacingBetweenSlices": 3.9899999927773,
      "SpecificCharacterSet": "ISO_IR 100",
      "StudyID": "4",
      "StudyTime": "091837.043000",
      "TransmitCoilName": "Body",
      "VariableFlipAngleFlag": "N",
      "WindowCenterWidthExplanation": "Algo1",
      "dBdt": 0.0},
    "slices": {}
  },
  "time": {
    "samples": {
      "AcquisitionNumber": [1, 2, 3, 4, 5, 6, 7, 8, 9, 10, 11, 12, 13, 14, 15, 16, 17, 18, 19, 20, 21, 22, 23, 24, 25, 26, 27, 28, 29, 30, 31, 32, 33, 34, 35, 36, 37, 38, 39, 40, 41, 42, 43, 44, 45, 46, 47, 48, 49, 50, 51, 52, 53, 54, 55, 56, 57, 58, 59, 60, 61, 62, 63, 64, 65, 66, 67, 68, 69, 70, 71, 72, 73, 74, 75, 76, 77, 78, 79, 80, 81, 82, 83, 84, 85, 86, 87, 88, 89, 90, 91, 92, 93, 94, 95, 96, 97, 98, 99, 100, 101, 102, 103, 104, 105, 106, 107, 108, 109, 110, 111, 112, 113, 114, 115, 116, 117, 118, 119, 120, 121, 122, 123, 124, 125, 126, 127, 128, 129, 130, 131, 132, 133, 134, 135, 136, 137, 138, 139, 140, 141, 142, 143, 144, 145, 146, 147, 148, 149, 150, 151, 152, 153, 154, 155, 156, 157, 158, 159, 160, 161, 162, 163, 164, 165, 166, 167, 168, 169, 170, 171, 172, 173, 174, 175, 176, 177, 178, 179, 180, 181, 182, 183, 184, 185, 186, 187, 188, 189, 190, 191, 192, 193, 194, 195, 196, 197, 198, 199, 200],
      "AcquisitionTime": ["092834.147500", "092836.147500", "092838.147500", "092840.147500", "092842.147500", "092844.147500", "092846.147500", "092848.147500", "092850.147500", "092852.147500", "092854.147500", "092856.147500", "092858.147500", "092900.147500", "092902.147500", "092904.147500", "092906.147500", "092908.147500", "092910.147500", "092912.147500", "092914.147500", "092916.147500", "092918.147500", "092920.147500", "092922.147500", "092924.147500", "092926.147500", "092928.147500", "092930.147500", "092932.147500", "092934.147500", "092936.147500", "092938.147500", "092940.147500", "092942.147500", "092944.147500", "092946.147500", "092948.147500", "092950.147500", "092952.147500", "092954.147500", "092956.147500", "092958.147500", "093000.147500", "093002.147500", "093004.147500", "093006.147500", "093008.147500", "093010.147500", "093012.147500", "093014.147500", "093016.147500", "093018.147500", "093020.147500", "093022.147500", "093024.147500", "093026.147500", "093028.147500", "093030.147500", "093032.147500", "093034.147500", "093036.147500", "093038.147500", "093040.147500", "093042.147500", "093044.147500", "093046.147500", "093048.147500", "093050.147500", "093052.147500", "093054.147500", "093056.147500", "093058.147500", "093100.147500", "093102.147500", "093104.147500", "093106.147500", "093108.147500", "093110.147500", "093112.147500", "093114.147500", "093116.147500", "093118.147500", "093120.147500", "093122.147500", "093124.147500", "093126.147500", "093128.147500", "093130.147500", "093132.147500", "093134.147500", "093136.147500", "093138.147500", "093140.147500", "093142.147500", "093144.147500", "093146.147500", "093148.147500", "093150.147500", "093152.147500", "093154.147500", "093156.147500", "093158.147500", "093200.147500", "093202.147500", "093204.147500", "093206.147500", "093208.147500", "093210.147500", "093212.147500", "093214.147500", "093216.147500", "093218.147500", "093220.147500", "093222.147500", "093224.147500", "093226.147500", "093228.147500", "093230.147500", "093232.147500", "093234.147500", "093236.147500", "093238.147500", "093240.147500", "093242.147500", "093244.147500", "093246.147500", "093248.147500", "093250.147500", "093252.147500", "093254.147500", "093256.147500", "093258.147500", "093300.147500", "093302.147500", "093304.147500", "093306.147500", "093308.147500", "093310.147500", "093312.147500", "093314.147500", "093316.147500", "093318.147500", "093320.147500", "093322.147500", "093324.147500", "093326.147500", "093328.147500", "093330.147500", "093332.147500", "093334.147500", "093336.147500", "093338.147500", "093340.147500", "093342.147500", "093344.147500", "093346.147500", "093348.147500", "093350.147500", "093352.147500", "093354.147500", "093356.147500", "093358.147500", "093400.147500", "093402.147500", "093404.147500", "093406.147500", "093408.147500", "093410.147500", "093412.147500", "093414.147500", "093416.147500", "093418.147500", "093420.147500", "093422.147500", "093424.147500", "093426.147500", "093428.147500", "093430.147500", "093432.147500", "093434.147500", "093436.147500", "093438.147500", "093440.147500", "093442.147500", "093444.147500", "093446.147500", "093448.147500", "093450.147500", "093452.147500", "093454.147500", "093456.147500", "093458.147500", "093500.147500", "093502.147500", "093504.147500", "093506.147500", "093508.147500", "093510.147500", "093512.147500"],
      "ContentTime": ["092931.393000", "092931.396000", "092931.399000", "092931.401000", "092931.414000", "092931.422000", "092931.425000", "092931.428000", "092931.430000", "092931.433000", "092931.436000", "092931.438000", "092931.441000", "092931.443000", "092931.446000", "092931.449000", "092931.451000", "092931.454000", "092931.456000", "092931.459000", "092931.462000", "092931.465000", "092931.467000", "092931.470000", "092931.472000", "092931.475000", "092931.478000", "092931.480000", "092931.483000", "093011.371000", "093011.373000", "093011.376000", "093011.379000", "093011.381000", "093011.384000", "093011.386000", "093011.389000", "093011.392000", "093011.394000", "093011.397000", "093011.400000", "093011.402000", "093011.405000", "093011.407000", "093011.410000", "093011.413000", "093011.415000", "093011.418000", "093011.420000", "093051.371000", "093051.374000", "093051.380000", "093051.383000", "093051.385000", "093051.388000", "093051.391000", "093051.393000", "093051.396000", "093051.399000", "093051.401000", "093051.404000", "093051.407000", "093051.409000", "093051.412000", "093051.414000", "093051.417000", "093051.420000", "093051.422000", "093051.425000", "093111.370000", "093111.373000", "093111.376000", "093111.379000", "093111.381000", "093111.384000", "093111.394000", "093111.397000", "093111.400000", "093111.402000", "093151.370000", "093151.374000", "093151.376000", "093151.379000", "093151.381000", "093151.384000", "093151.387000", "093151.389000", "093151.400000", "093151.403000", "093151.406000", "093151.408000", "093151.411000", "093151.413000", "093151.416000", "093151.419000", "093151.421000", "093151.424000", "093151.426000", "093151.429000", "093231.370000", "093231.373000", "093231.376000", "093231.379000", "093231.381000", "093231.384000", "093231.387000", "093231.389000", "093231.392000", "093231.394000", "093231.397000", "093231.400000", "093231.402000", "093231.405000", "093231.407000", "093231.410000", "093231.413000", "093231.415000", "093231.418000", "093231.420000", "093311.370000", "093311.373000", "093311.376000", "093311.379000", "093311.381000", "093311.384000", "093311.387000", "093311.389000", "093311.392000", "093311.395000", "093311.397000", "093311.400000", "093311.402000", "093311.405000", "093311.408000", "093311.410000", "093311.413000", "093311.415000", "093311.418000", "093311.421000", "093351.371000", "093351.374000", "093351.376000", "093351.379000", "093351.381000", "093351.384000", "093351.387000", "093351.389000", "093351.392000", "093351.394000", "093351.397000", "093351.400000", "093351.402000", "093351.405000", "093351.407000", "093351.410000", "093351.413000", "093351.415000", "093351.418000", "093351.421000", "093431.371000", "093431.374000", "093431.376000", "093431.379000", "093431.381000", "093431.384000", "093431.386000", "093431.389000", "093431.392000", "093431.394000", "093431.397000", "093431.400000", "093431.402000", "093431.405000", "093431.407000", "093431.410000", "093431.413000", "093431.415000", "093431.418000", "093431.420000", "093511.371000", "093511.373000", "093511.376000", "093511.379000", "093511.382000", "093511.384000", "093511.387000", "093511.389000", "093511.392000", "093511.395000", "093511.397000", "093511.400000", "093511.402000", "093511.405000", "093511.408000", "093511.410000", "093511.413000", "093511.415000", "093511.418000", "093511.421000", "093512.712000"],
      "InstanceCreationTime": ["092931.393000", "092931.396000", "092931.399000", "092931.401000", "092931.414000", "092931.422000", "092931.425000", "092931.428000", "092931.430000", "092931.433000", "092931.436000", "092931.438000", "092931.441000", "092931.443000", "092931.446000", "092931.449000", "092931.451000", "092931.454000", "092931.456000", "092931.459000", "092931.462000", "092931.465000", "092931.467000", "092931.470000", "092931.472000", "092931.475000", "092931.478000", "092931.480000", "092931.483000", "093011.371000", "093011.373000", "093011.376000", "093011.379000", "093011.381000", "093011.384000", "093011.386000", "093011.389000", "093011.392000", "093011.394000", "093011.397000", "093011.400000", "093011.402000", "093011.405000", "093011.407000", "093011.410000", "093011.413000", "093011.415000", "093011.418000", "093011.420000", "093051.371000", "093051.374000", "093051.380000", "093051.383000", "093051.385000", "093051.388000", "093051.391000", "093051.393000", "093051.396000", "093051.399000", "093051.401000", "093051.404000", "093051.407000", "093051.409000", "093051.412000", "093051.414000", "093051.417000", "093051.420000", "093051.422000", "093051.425000", "093111.370000", "093111.373000", "093111.376000", "093111.379000", "093111.381000", "093111.384000", "093111.394000", "093111.397000", "093111.400000", "093111.402000", "093151.370000", "093151.374000", "093151.376000", "093151.379000", "093151.381000", "093151.384000", "093151.387000", "093151.389000", "093151.400000", "093151.403000", "093151.406000", "093151.408000", "093151.411000", "093151.413000", "093151.416000", "093151.419000", "093151.421000", "093151.424000", "093151.426000", "093151.429000", "093231.370000", "093231.373000", "093231.376000", "093231.379000", "093231.381000", "093231.384000", "093231.387000", "093231.389000", "093231.392000", "093231.394000", "093231.397000", "093231.400000", "093231.402000", "093231.405000", "093231.407000", "093231.410000", "093231.413000", "093231.415000", "093231.418000", "093231.420000", "093311.370000", "093311.373000", "093311.376000", "093311.379000", "093311.381000", "093311.384000", "093311.387000", "093311.389000", "093311.392000", "093311.395000", "093311.397000", "093311.400000", "093311.402000", "093311.405000", "093311.408000", "093311.410000", "093311.413000", "093311.415000", "093311.418000", "093311.421000", "093351.371000", "093351.374000", "093351.376000", "093351.379000", "093351.381000", "093351.384000", "093351.387000", "093351.389000", "093351.392000", "093351.394000", "093351.397000", "093351.400000", "093351.402000", "093351.405000", "093351.407000", "093351.410000", "093351.413000", "093351.415000", "093351.418000", "093351.421000", "093431.371000", "093431.374000", "093431.376000", "093431.379000", "093431.381000", "093431.384000", "093431.386000", "093431.389000", "093431.392000", "093431.394000", "093431.397000", "093431.400000", "093431.402000", "093431.405000", "093431.407000", "093431.410000", "093431.413000", "093431.415000", "093431.418000", "093431.420000", "093511.371000", "093511.373000", "093511.376000", "093511.379000", "093511.382000", "093511.384000", "093511.387000", "093511.389000", "093511.392000", "093511.395000", "093511.397000", "093511.400000", "093511.402000", "093511.405000", "093511.408000", "093511.410000", "093511.413000", "093511.415000", "093511.418000", "093511.421000", "093512.712000"],
      "InstanceNumber": [1, 2, 3, 4, 5, 6, 7, 8, 9, 10, 11, 12, 13, 14, 15, 16, 17, 18, 19, 20, 21, 22, 23, 24, 25, 26, 27, 28, 29, 30, 31, 32, 33, 34, 35, 36, 37, 38, 39, 40, 41, 42, 43, 44, 45, 46, 47, 48, 49, 50, 51, 52, 53, 54, 55, 56, 57, 58, 59, 60, 61, 62, 63, 64, 65, 66, 67, 68, 69, 70, 71, 72, 73, 74, 75, 76, 77, 78, 79, 80, 81, 82, 83, 84, 85, 86, 87, 88, 89, 90, 91, 92, 93, 94, 95, 96, 97, 98, 99, 100, 101, 102, 103, 104, 105, 106, 107, 108, 109, 110, 111, 112, 113, 114, 115, 116, 117, 118, 119, 120, 121, 122, 123, 124, 125, 126, 127, 128, 129, 130, 131, 132, 133, 134, 135, 136, 137, 138, 139, 140, 141, 142, 143, 144, 145, 146, 147, 148, 149, 150, 151, 152, 153, 154, 155, 156, 157, 158, 159, 160, 161, 162, 163, 164, 165, 166, 167, 168, 169, 170, 171, 172, 173, 174, 175, 176, 177, 178, 179, 180, 181, 182, 183, 184, 185, 186, 187, 188, 189, 190, 191, 192, 193, 194, 195, 196, 197, 198, 199, 200],
      "LargestImagePixelValue": [2170, 2170, 2168, 2169, 2164, 2171, 2172, 2165, 2164, 2167, 2172, 2173, 2168, 2164, 2166, 2163, 2164, 2168, 2165, 2168, 2162, 2168, 2165, 2168, 2165, 2166, 2165, 2168, 2171, 2167, 2166, 2165, 2165, 2164, 2165, 2167, 2164, 2168, 2171, 2163, 2161, 2166, 2167, 2165, 2163, 2169, 2165, 2168, 2166, 2168, 2168, 2169, 2165, 2164, 2166, 2167, 2170, 2168, 2166, 2167, 2164, 2168, 2168, 2165, 2166, 2164, 2164, 2163, 2164, 2167, 2164, 2168, 2169, 2169, 2168, 2165, 2165, 2167, 2166, 2169, 2163, 2168, 2166, 2163, 2165, 2164, 2166, 2165, 2168, 2166, 2168, 2167, 2172, 2170, 2161, 2157, 2167, 2172, 2164, 2168, 2168, 2165, 2164, 2163, 2169, 2163, 2165, 2169, 2166, 2168, 2166, 2170, 2163, 2168, 2164, 2165, 2165, 2168, 2171, 2166, 2166, 2164, 2166, 2167, 2167, 2165, 2168, 2168, 2172, 2170, 2167, 2163, 2169, 2165, 2163, 2173, 2167, 2172, 2170, 2169, 2167, 2168, 2164, 2168, 2169, 2169, 2165, 2161, 2169, 2169, 2170, 2169, 2168, 2169, 2172, 2166, 2170, 2170, 2169, 2166, 2172, 2164, 2170, 2167, 2169, 2168, 2167, 2164, 2165, 2166, 2165, 2170, 2171, 2170, 2166, 2173, 2167, 2165, 2167, 2171, 2168, 2167, 2173, 2166, 2168, 2170, 2167, 2166, 2166, 2168, 2167, 2162, 2170, 2171, 2168, 2169, 2167, 2170, 2170, 2164],
      "WindowCenter": [941.0, 941.0, 941.0, 941.0, 941.0, 941.0, 941.0, 941.0, 941.0, 941.0, 941.0, 941.0, 941.0, 941.0, 941.0, 941.0, 941.0, 941.0, 941.0, 941.0, 941.0, 941.0, 941.0, 941.0, 941.0, 941.0, 941.0, 941.0, 941.0, 941.0, 941.0, 941.0, 941.0, 941.0, 941.0, 941.0, 941.0, 941.0, 941.0, 941.0, 941.0, 941.0, 941.0, 941.0, 941.0, 941.0, 941.0, 941.0, 941.0, 941.0, 941.0, 941.0, 941.0, 941.0, 941.0, 941.0, 941.0, 941.0, 941.0, 941.0, 941.0, 941.0, 941.0, 941.0, 941.0, 941.0, 941.0, 941.0, 941.0, 941.0, 941.0, 941.0, 941.0, 941.0, 941.0, 941.0, 941.0, 941.0, 941.0, 941.0, 941.0, 941.0, 941.0, 941.0, 941.0, 941.0, 941.0, 941.0, 940.0, 941.0, 941.0, 941.0, 941.0, 941.0, 941.0, 941.0, 941.0, 941.0, 941.0, 941.0, 941.0, 941.0, 941.0, 941.0, 941.0, 940.0, 941.0, 940.0, 941.0, 941.0, 941.0, 940.0, 941.0, 941.0, 941.0, 941.0, 940.0, 941.0, 940.0, 940.0, 940.0, 941.0, 940.0, 941.0, 940.0, 940.0, 940.0, 941.0, 940.0, 940.0, 940.0, 940.0, 940.0, 940.0, 940.0, 940.0, 941.0, 941.0, 940.0, 940.0, 940.0, 940.0, 941.0, 941.0, 940.0, 940.0, 940.0, 940.0, 940.0, 940.0, 940.0, 940.0, 940.0, 940.0, 940.0, 940.0, 940.0, 940.0, 940.0, 940.0, 940.0, 940.0, 940.0, 940.0, 940.0, 940.0, 940.0, 940.0, 940.0, 940.0, 940.0, 940.0, 940.0, 940.0, 940.0, 940.0, 940.0, 940.0, 940.0, 940.0, 940.0, 940.0, 940.0, 940.0, 940.0, 940.0, 940.0, 940.0, 940.0, 940.0, 940.0, 940.0, 940.0, 940.0, 940.0, 940.0, 940.0, 940.0, 940.0, 940.0],
      "WindowWidth": [2175.0, 2175.0, 2175.0, 2175.0, 2175.0, 2175.0, 2176.0, 2175.0, 2175.0, 2175.0, 2175.0, 2175.0, 2175.0, 2175.0, 2174.0, 2175.0, 2175.0, 2175.0, 2175.0, 2175.0, 2175.0, 2175.0, 2175.0, 2175.0, 2174.0, 2175.0, 2174.0, 2175.0, 2175.0, 2174.0, 2175.0, 2174.0, 2175.0, 2175.0, 2175.0, 2174.0, 2175.0, 2174.0, 2174.0, 2175.0, 2174.0, 2174.0, 2174.0, 2174.0, 2174.0, 2175.0, 2174.0, 2174.0, 2175.0, 2174.0, 2175.0, 2174.0, 2174.0, 2174.0, 2174.0, 2174.0, 2174.0, 2174.0, 2174.0, 2174.0, 2174.0, 2174.0, 2174.0, 2174.0, 2174.0, 2174.0, 2174.0, 2174.0, 2173.0, 2174.0, 2174.0, 2174.0, 2174.0, 2174.0, 2174.0, 2174.0, 2173.0, 2174.0, 2174.0, 2174.0, 2174.0, 2174.0, 2174.0, 2174.0, 2175.0, 2174.0, 2174.0, 2173.0, 2174.0, 2174.0, 2174.0, 2173.0, 2174.0, 2173.0, 2174.0, 2173.0, 2174.0, 2174.0, 2173.0, 2174.0, 2173.0, 2173.0, 2173.0, 2173.0, 2173.0, 2174.0, 2173.0, 2174.0, 2174.0, 2174.0, 2173.0, 2173.0, 2173.0, 2173.0, 2173.0, 2173.0, 2174.0, 2173.0, 2174.0, 2174.0, 2174.0, 2173.0, 2173.0, 2173.0, 2173.0, 2173.0, 2173.0, 2173.0, 2173.0, 2173.0, 2173.0, 2173.0, 2174.0, 2173.0, 2173.0, 2173.0, 2173.0, 2173.0, 2173.0, 2173.0, 2173.0, 2173.0, 2173.0, 2173.0, 2173.0, 2173.0, 2173.0, 2173.0, 2173.0, 2173.0, 2173.0, 2173.0, 2173.0, 2173.0, 2173.0, 2172.0, 2173.0, 2173.0, 2173.0, 2173.0, 2173.0, 2173.0, 2173.0, 2172.0, 2172.0, 2173.0, 2172.0, 2172.0, 2172.0, 2173.0, 2173.0, 2173.0, 2173.0, 2173.0, 2173.0, 2173.0, 2173.0, 2173.0, 2173.0, 2173.0, 2173.0, 2173.0, 2173.0, 2173.0, 2172.0, 2172.0, 2172.0, 2173.0, 2173.0, 2173.0, 2172.0, 2172.0, 2173.0, 2172.0, 2172.0, 2172.0, 2172.0, 2172.0, 2173.0, 2172.0]
    },
    "slices": {}
  }
}