{
  "AcquisitionMatrixPE": 80,
  "AcquisitionNumber": 1,
  "AcquisitionTime": "08:37:10.540000",
  "BandwidthPerPixelPhaseEncode": 25,
  "BaseResolution": 80,
  "BodyPartExamined": "BRAIN",
  "CoilCombinationMethod": "Sum of Squares",
  "ConsistencyInfo": "N4_VE11C_LATEST_20160120",
  "ConversionSoftware": "dcm2niix",
  "ConversionSoftwareVersion": "v1.0.20220720",
  "DerivedVendorReportedEchoSpacing": 0.0005,
  "DeviceSerialNumber": "66112",
  "DwellTime": 2.7e-06,
  "EchoTime": 0.03,
  "EchoTrainLength": 80,
  "EffectiveEchoSpacing": 0.0005,
  "FlipAngle": 10,
  "HeudiconvVersion": "0.13.1",
  "ImageOrientationPatientDICOM": [0.99501, -0.0997522, 0.00214475, 0.0940561, 0.944932, 0.31346],
  "ImageOrientationText": "Tra>Cor(18.2)>Sag(1.9)",
  "ImageType": [
    "ORIGINAL",
    "PRIMARY",
    "M",
    "ND",
    "NORM",
    "MOSAIC"
],
  "ImagingFrequency": 123.252,
  "InPlanePhaseEncodingDirectionDICOM": "COL",
  "InstitutionAddress": "Maynard 3,Hanover,NH,US,03755",
  "InstitutionName": "Dartmouth College - PBS",
  "InstitutionalDepartmentName": "Department",
  "MRAcquisitionType": "2D",
  "MagneticFieldStrength": 3,
  "Manufacturer": "Siemens",
  "ManufacturersModelName": "Prisma",
  "MatrixCoilMode": "SENSE",
  "Modality": "MR",
  "NonlinearGradientCorrection": false,
  "PartialFourier": 1,
  "PatientPosition": "HFS",
  "PercentPhaseFOV": 100,
  "PercentSampling": 100,
  "PhaseEncodingDirection": "j-",
  "PhaseEncodingSteps": 80,
  "PhaseResolution": 1,
  "PixelBandwidth": 2315,
  "ProcedureStepDescription": "dbic^QA",
  "ProtocolName": "func-bold_fa-10",
  "PulseSequenceDetails": "%SiemensSeq%\\ep2d_bold",
  "ReceiveCoilActiveElements": "HC1-7;NC1,2",
  "ReceiveCoilName": "HeadNeck_64",
  "ReconMatrixPE": 80,
  "RepetitionTime": 2,
  "SAR": 0.00756521,
  "ScanOptions": "FS",
  "ScanningSequence": "EP",
  "SequenceName": "*epfid2d1_80",
  "SequenceVariant": "SK",
  "SeriesDescription": "func-bold_fa-10",
  "SeriesNumber": 9,
  "ShimSetting": [4139, -7698, -7529, 196, -42, -355, -76, 123],
  "SliceThickness": 3.5,
  "SliceTiming": [0.99, 0, 1.055, 0.065, 1.12, 0.13, 1.1875, 0.1975, 1.2525, 0.2625, 1.32, 0.33, 1.385, 0.395, 1.45, 0.46, 1.5175, 0.5275, 1.5825, 0.5925, 1.65, 0.66, 1.715, 0.725, 1.78, 0.79, 1.8475, 0.8575, 1.9125, 0.9225],
  "SoftwareVersions": "syngo MR E11",
  "SpacingBetweenSlices": 3.99,
  "StationName": "AWP66112",
  "TotalReadoutTime": 0.0395,
  "TxRefAmp": 207.473,
  "dcmmeta_affine": [
    [-2.985029935836792, 0.28216832876205444, 0.13284684717655182, 105.8648452758789],
    [0.29925665259361267, 2.8347959518432617, 1.2436585426330566, -141.63331604003906],
    [0.006434241309762001, -0.9403793215751648, 3.788900136947632, -32.6810188293457],
    [0.0, 0.0, 0.0, 1.0]
],
  "dcmmeta_reorient_transform": [
    [0.0, -1.0, 0.0, 79.0],
    [1.0, 0.0, 0.0, 0.0],
    [0.0, 0.0, 1.0, 0.0],
    [0.0, 0.0, 0.0, 1.0]
],
  "dcmmeta_shape": [80, 80, 30, 200],
  "dcmmeta_slice_dim": 2,
  "dcmmeta_version": 0.6,
  "global": {
    "const": {
      "AccessionNumber": "qa64",
      "AcquisitionMatrix": [80, 0, 0, 80],
      "AngioFlag": "N",
      "BitsAllocated": 16,
      "BitsStored": 12,
      "BodyPartExamined": "BRAIN",
      "Columns": 480,
      "EchoNumbers": 1,
      "EchoTime": 30.0,
      "EchoTrainLength": 80,
      "FlipAngle": 10.0,
      "HighBit": 11,
      "ImageOrientationPatient": [0.99500999730781, -0.0997522196115, 0.00214474709197, 0.09405610914887, 0.94493196461292, 0.31345977506619],
      "ImagePositionPatient": [-781.59580353129, -589.42340214929, -296.33369803151],
      "ImageType": [
        "ORIGINAL",
        "PRIMARY",
        "M",
        "ND",
        "NORM",
        "MOSAIC"
],
      "ImagedNucleus": "1H",
      "ImagingFrequency": 123.252349,
      "InPlanePhaseEncodingDirection": "COL",
      "MRAcquisitionType": "2D",
      "MagneticFieldStrength": 3.0,
      "Manufacturer": "SIEMENS",
      "ManufacturerModelName": "Prisma",
      "Modality": "MR",
      "NumberOfAverages": 1.0,
      "NumberOfPhaseEncodingSteps": 80,
      "PercentPhaseFieldOfView": 100.0,
      "PercentSampling": 100.0,
      "PerformedProcedureStepStartTime": "080615.195000",
      "PhotometricInterpretation": "MONOCHROME2",
      "PixelBandwidth": 2315.0,
      "PixelRepresentation": 0,
      "PixelSpacing": [3.0, 3.0],
      "ProtocolName": "func-bold_fa-10",
      "RepetitionTime": 2000.0,
      "Rows": 480,
      "SAR": 0.00756521161375,
      "SamplesPerPixel": 1,
      "ScanOptions": "FS",
      "ScanningSequence": "EP",
      "SequenceName": "*epfid2d1_80",
      "SequenceVariant": "SK",
      "SeriesDescription": "func-bold_fa-10",
      "SeriesNumber": 9,
      "SeriesTime": "083810.110000",
      "SliceLocation": -71.65533915159,
      "SliceThickness": 3.5,
      "SmallestImagePixelValue": 0,
      "SoftwareVersions": "syngo MR E11",
      "SpacingBetweenSlices": 3.9899999214471,
      "SpecificCharacterSet": "ISO_IR 100",
      "StudyID": "39",
      "StudyTime": "080615.126000",
      "TransmitCoilName": "Body",
      "VariableFlipAngleFlag": "N",
      "WindowCenterWidthExplanation": "Algo1",
      "dBdt": 0.0},
    "slices": {}
  },
  "time": {
    "samples": {
      "AcquisitionNumber": [1, 2, 3, 4, 5, 6, 7, 8, 9, 10, 11, 12, 13, 14, 15, 16, 17, 18, 19, 20, 21, 22, 23, 24, 25, 26, 27, 28, 29, 30, 31, 32, 33, 34, 35, 36, 37, 38, 39, 40, 41, 42, 43, 44, 45, 46, 47, 48, 49, 50, 51, 52, 53, 54, 55, 56, 57, 58, 59, 60, 61, 62, 63, 64, 65, 66, 67, 68, 69, 70, 71, 72, 73, 74, 75, 76, 77, 78, 79, 80, 81, 82, 83, 84, 85, 86, 87, 88, 89, 90, 91, 92, 93, 94, 95, 96, 97, 98, 99, 100, 101, 102, 103, 104, 105, 106, 107, 108, 109, 110, 111, 112, 113, 114, 115, 116, 117, 118, 119, 120, 121, 122, 123, 124, 125, 126, 127, 128, 129, 130, 131, 132, 133, 134, 135, 136, 137, 138, 139, 140, 141, 142, 143, 144, 145, 146, 147, 148, 149, 150, 151, 152, 153, 154, 155, 156, 157, 158, 159, 160, 161, 162, 163, 164, 165, 166, 167, 168, 169, 170, 171, 172, 173, 174, 175, 176, 177, 178, 179, 180, 181, 182, 183, 184, 185, 186, 187, 188, 189, 190, 191, 192, 193, 194, 195, 196, 197, 198, 199, 200],
      "AcquisitionTime": ["083710.540000", "083712.540000", "083714.540000", "083716.540000", "083718.540000", "083720.540000", "083722.540000", "083724.540000", "083726.540000", "083728.540000", "083730.540000", "083732.540000", "083734.540000", "083736.540000", "083738.540000", "083740.540000", "083742.540000", "083744.540000", "083746.540000", "083748.540000", "083750.540000", "083752.540000", "083754.540000", "083756.540000", "083758.540000", "083800.540000", "083802.540000", "083804.540000", "083806.540000", "083808.540000", "083810.540000", "083812.540000", "083814.540000", "083816.540000", "083818.540000", "083820.540000", "083822.540000", "083824.540000", "083826.540000", "083828.540000", "083830.540000", "083832.540000", "083834.540000", "083836.540000", "083838.540000", "083840.540000", "083842.540000", "083844.540000", "083846.540000", "083848.540000", "083850.540000", "083852.540000", "083854.540000", "083856.540000", "083858.540000", "083900.540000", "083902.540000", "083904.540000", "083906.540000", "083908.540000", "083910.540000", "083912.540000", "083914.540000", "083916.540000", "083918.540000", "083920.540000", "083922.540000", "083924.540000", "083926.540000", "083928.540000", "083930.540000", "083932.540000", "083934.540000", "083936.540000", "083938.540000", "083940.540000", "083942.540000", "083944.540000", "083946.540000", "083948.540000", "083950.540000", "083952.540000", "083954.540000", "083956.540000", "083958.540000", "084000.540000", "084002.540000", "084004.540000", "084006.540000", "084008.540000", "084010.540000", "084012.540000", "084014.540000", "084016.540000", "084018.540000", "084020.540000", "084022.540000", "084024.540000", "084026.540000", "084028.540000", "084030.540000", "084032.540000", "084034.540000", "084036.540000", "084038.540000", "084040.540000", "084042.540000", "084044.540000", "084046.540000", "084048.540000", "084050.540000", "084052.540000", "084054.540000", "084056.540000", "084058.540000", "084100.540000", "084102.540000", "084104.540000", "084106.540000", "084108.540000", "084110.540000", "084112.540000", "084114.540000", "084116.540000", "084118.540000", "084120.540000", "084122.540000", "084124.540000", "084126.540000", "084128.540000", "084130.540000", "084132.540000", "084134.540000", "084136.540000", "084138.540000", "084140.540000", "084142.540000", "084144.540000", "084146.540000", "084148.540000", "084150.540000", "084152.540000", "084154.540000", "084156.540000", "084158.540000", "084200.540000", "084202.540000", "084204.540000", "084206.540000", "084208.540000", "084210.540000", "084212.540000", "084214.540000", "084216.540000", "084218.540000", "084220.540000", "084222.540000", "084224.540000", "084226.540000", "084228.540000", "084230.540000", "084232.540000", "084234.540000", "084236.540000", "084238.540000", "084240.540000", "084242.540000", "084244.540000", "084246.540000", "084248.540000", "084250.540000", "084252.540000", "084254.540000", "084256.540000", "084258.540000", "084300.540000", "084302.540000", "084304.540000", "084306.540000", "084308.540000", "084310.540000", "084312.540000", "084314.540000", "084316.540000", "084318.540000", "084320.540000", "084322.540000", "084324.540000", "084326.540000", "084328.540000", "084330.540000", "084332.540000", "084334.540000", "084336.540000", "084338.540000", "084340.540000", "084342.540000", "084344.540000", "084346.540000", "084348.540000"],
      "ContentTime": ["083810.120000", "083810.124000", "083810.127000", "083810.130000", "083810.133000", "083810.135000", "083810.138000", "083810.140000", "083810.143000", "083810.145000", "083810.148000", "083810.151000", "083810.153000", "083810.156000", "083810.158000", "083810.161000", "083810.163000", "083810.166000", "083810.168000", "083810.182000", "083810.185000", "083810.187000", "083810.190000", "083810.192000", "083810.195000", "083810.197000", "083810.200000", "083810.203000", "083810.207000", "083850.108000", "083850.124000", "083850.128000", "083850.131000", "083850.133000", "083850.136000", "083850.139000", "083850.141000", "083850.144000", "083850.146000", "083850.149000", "083850.151000", "083850.154000", "083850.157000", "083850.159000", "083850.162000", "083850.164000", "083850.167000", "083850.169000", "083850.172000", "083930.107000", "083930.110000", "083930.113000", "083930.115000", "083930.118000", "083930.122000", "083930.125000", "083930.128000", "083930.131000", "083930.134000", "083930.136000", "083930.139000", "083930.155000", "083930.158000", "083930.160000", "083930.163000", "083930.165000", "083930.168000", "083930.170000", "083930.173000", "084010.107000", "084010.110000", "084010.113000", "084010.115000", "084010.118000", "084010.120000", "084010.124000", "084010.128000", "084010.131000", "084010.134000", "084010.136000", "084010.139000", "084010.141000", "084010.144000", "084010.146000", "084010.161000", "084010.164000", "084010.167000", "084010.169000", "084010.173000", "084050.107000", "084050.110000", "084050.113000", "084050.116000", "084050.120000", "084050.122000", "084050.126000", "084050.129000", "084050.131000", "084050.134000", "084050.136000", "084050.139000", "084050.141000", "084050.144000", "084050.146000", "084050.149000", "084050.152000", "084050.154000", "084050.157000", "084050.159000", "084130.108000", "084130.110000", "084130.113000", "084130.117000", "084130.120000", "084130.123000", "084130.127000", "084130.129000", "084130.132000", "084130.134000", "084130.137000", "084130.139000", "084130.142000", "084130.145000", "084130.147000", "084130.150000", "084130.152000", "084130.155000", "084130.157000", "084130.160000", "084210.108000", "084210.110000", "084210.114000", "084210.117000", "084210.120000", "084210.124000", "084210.127000", "084210.129000", "084210.132000", "084210.135000", "084210.137000", "084210.140000", "084210.144000", "084210.147000", "084210.149000", "084210.152000", "084210.154000", "084210.157000", "084210.159000", "084210.162000", "084250.108000", "084250.112000", "084250.115000", "084250.118000", "084250.121000", "084250.124000", "084250.127000", "084250.130000", "084250.132000", "084250.135000", "084250.137000", "084250.141000", "084250.144000", "084250.147000", "084250.149000", "084250.152000", "084250.154000", "084250.157000", "084250.160000", "084250.162000", "084330.107000", "084330.111000", "084330.114000", "084330.116000", "084330.119000", "084330.122000", "084330.125000", "084330.128000", "084330.130000", "084330.133000", "084330.135000", "084330.138000", "084330.141000", "084330.143000", "084330.146000", "084330.148000", "084330.152000", "084330.155000", "084330.158000", "084330.161000", "084350.175000", "084350.178000", "084350.180000", "084350.183000", "084350.185000", "084350.188000", "084350.191000", "084350.193000", "084350.196000", "084350.198000", "084350.201000"],
      "InstanceCreationTime": ["083810.120000", "083810.124000", "083810.127000", "083810.130000", "083810.133000", "083810.135000", "083810.138000", "083810.140000", "083810.143000", "083810.145000", "083810.148000", "083810.151000", "083810.153000", "083810.156000", "083810.158000", "083810.161000", "083810.163000", "083810.166000", "083810.168000", "083810.182000", "083810.185000", "083810.187000", "083810.190000", "083810.192000", "083810.195000", "083810.197000", "083810.200000", "083810.203000", "083810.207000", "083850.108000", "083850.124000", "083850.128000", "083850.131000", "083850.133000", "083850.136000", "083850.139000", "083850.141000", "083850.144000", "083850.146000", "083850.149000", "083850.151000", "083850.154000", "083850.157000", "083850.159000", "083850.162000", "083850.164000", "083850.167000", "083850.169000", "083850.172000", "083930.107000", "083930.110000", "083930.113000", "083930.115000", "083930.118000", "083930.122000", "083930.125000", "083930.128000", "083930.131000", "083930.134000", "083930.136000", "083930.139000", "083930.155000", "083930.158000", "083930.160000", "083930.163000", "083930.165000", "083930.168000", "083930.170000", "083930.173000", "084010.107000", "084010.110000", "084010.113000", "084010.115000", "084010.118000", "084010.120000", "084010.124000", "084010.128000", "084010.131000", "084010.134000", "084010.136000", "084010.139000", "084010.141000", "084010.144000", "084010.146000", "084010.161000", "084010.164000", "084010.167000", "084010.169000", "084010.173000", "084050.107000", "084050.110000", "084050.113000", "084050.116000", "084050.120000", "084050.122000", "084050.126000", "084050.129000", "084050.131000", "084050.134000", "084050.136000", "084050.139000", "084050.141000", "084050.144000", "084050.146000", "084050.149000", "084050.152000", "084050.154000", "084050.157000", "084050.159000", "084130.108000", "084130.110000", "084130.113000", "084130.117000", "084130.120000", "084130.123000", "084130.127000", "084130.129000", "084130.132000", "084130.134000", "084130.137000", "084130.139000", "084130.142000", "084130.145000", "084130.147000", "084130.150000", "084130.152000", "084130.155000", "084130.157000", "084130.160000", "084210.108000", "084210.110000", "084210.114000", "084210.117000", "084210.120000", "084210.124000", "084210.127000", "084210.129000", "084210.132000", "084210.135000", "084210.137000", "084210.140000", "084210.144000", "084210.147000", "084210.149000", "084210.152000", "084210.154000", "084210.157000", "084210.159000", "084210.162000", "084250.108000", "084250.112000", "084250.115000", "084250.118000", "084250.121000", "084250.124000", "084250.127000", "084250.130000", "084250.132000", "084250.135000", "084250.137000", "084250.141000", "084250.144000", "084250.147000", "084250.149000", "084250.152000", "084250.154000", "084250.157000", "084250.160000", "084250.162000", "084330.107000", "084330.111000", "084330.114000", "084330.116000", "084330.119000", "084330.122000", "084330.125000", "084330.128000", "084330.130000", "084330.133000", "084330.135000", "084330.138000", "084330.141000", "084330.143000", "084330.146000", "084330.148000", "084330.152000", "084330.155000", "084330.158000", "084330.161000", "084350.175000", "084350.178000", "084350.180000", "084350.183000", "084350.185000", "084350.188000", "084350.191000", "084350.193000", "084350.196000", "084350.198000", "084350.201000"],
      "InstanceNumber": [1, 2, 3, 4, 5, 6, 7, 8, 9, 10, 11, 12, 13, 14, 15, 16, 17, 18, 19, 20, 21, 22, 23, 24, 25, 26, 27, 28, 29, 30, 31, 32, 33, 34, 35, 36, 37, 38, 39, 40, 41, 42, 43, 44, 45, 46, 47, 48, 49, 50, 51, 52, 53, 54, 55, 56, 57, 58, 59, 60, 61, 62, 63, 64, 65, 66, 67, 68, 69, 70, 71, 72, 73, 74, 75, 76, 77, 78, 79, 80, 81, 82, 83, 84, 85, 86, 87, 88, 89, 90, 91, 92, 93, 94, 95, 96, 97, 98, 99, 100, 101, 102, 103, 104, 105, 106, 107, 108, 109, 110, 111, 112, 113, 114, 115, 116, 117, 118, 119, 120, 121, 122, 123, 124, 125, 126, 127, 128, 129, 130, 131, 132, 133, 134, 135, 136, 137, 138, 139, 140, 141, 142, 143, 144, 145, 146, 147, 148, 149, 150, 151, 152, 153, 154, 155, 156, 157, 158, 159, 160, 161, 162, 163, 164, 165, 166, 167, 168, 169, 170, 171, 172, 173, 174, 175, 176, 177, 178, 179, 180, 181, 182, 183, 184, 185, 186, 187, 188, 189, 190, 191, 192, 193, 194, 195, 196, 197, 198, 199, 200],
      "LargestImagePixelValue": [726, 724, 725, 726, 721, 724, 724, 725, 725, 722, 723, 723, 730, 725, 726, 723, 725, 724, 725, 722, 723, 725, 723, 720, 722, 723, 723, 725, 723, 723, 723, 725, 723, 722, 724, 725, 725, 723, 727, 723, 723, 723, 722, 726, 725, 724, 724, 724, 722, 724, 723, 725, 723, 727, 725, 725, 725, 727, 724, 726, 724, 725, 721, 722, 724, 725, 724, 721, 723, 722, 724, 724, 722, 725, 722, 722, 723, 724, 724, 723, 725, 722, 724, 724, 721, 726, 722, 725, 724, 722, 725, 725, 725, 723, 722, 727, 723, 724, 721, 723, 723, 722, 725, 730, 725, 724, 724, 724, 723, 725, 724, 722, 722, 721, 723, 724, 726, 725, 724, 723, 724, 724, 723, 726, 723, 722, 728, 721, 725, 725, 724, 730, 726, 727, 727, 723, 724, 729, 722, 723, 722, 723, 723, 727, 724, 722, 721, 722, 722, 724, 722, 723, 721, 724, 725, 722, 724, 724, 722, 724, 722, 726, 724, 723, 723, 721, 722, 723, 723, 722, 727, 728, 728, 727, 722, 723, 726, 722, 720, 722, 721, 721, 722, 724, 722, 721, 723, 721, 720, 724, 723, 724, 723, 723, 725, 723, 722, 723, 722, 726],
      "WindowCenter": [473.0, 473.0, 472.0, 473.0, 472.0, 472.0, 473.0, 472.0, 472.0, 472.0, 472.0, 472.0, 474.0, 472.0, 472.0, 472.0, 472.0, 472.0, 472.0, 472.0, 472.0, 472.0, 472.0, 472.0, 472.0, 472.0, 472.0, 472.0, 473.0, 472.0, 472.0, 472.0, 472.0, 472.0, 472.0, 472.0, 472.0, 473.0, 472.0, 472.0, 472.0, 472.0, 472.0, 472.0, 473.0, 472.0, 472.0, 472.0, 472.0, 472.0, 472.0, 472.0, 472.0, 473.0, 472.0, 472.0, 472.0, 472.0, 472.0, 472.0, 472.0, 472.0, 472.0, 472.0, 472.0, 472.0, 472.0, 472.0, 472.0, 472.0, 472.0, 472.0, 472.0, 472.0, 472.0, 472.0, 472.0, 472.0, 472.0, 472.0, 472.0, 472.0, 473.0, 472.0, 472.0, 472.0, 472.0, 472.0, 472.0, 472.0, 472.0, 472.0, 472.0, 473.0, 472.0, 472.0, 472.0, 473.0, 472.0, 472.0, 472.0, 473.0, 472.0, 473.0, 472.0, 472.0, 472.0, 472.0, 472.0, 472.0, 472.0, 473.0, 472.0, 472.0, 472.0, 472.0, 472.0, 472.0, 472.0, 472.0, 473.0, 472.0, 472.0, 472.0, 472.0, 472.0, 472.0, 472.0, 473.0, 472.0, 472.0, 474.0, 472.0, 473.0, 472.0, 472.0, 472.0, 472.0, 472.0, 472.0, 472.0, 472.0, 472.0, 472.0, 472.0, 472.0, 472.0, 472.0, 472.0, 472.0, 472.0, 472.0, 472.0, 472.0, 472.0, 472.0, 472.0, 472.0, 472.0, 472.0, 472.0, 472.0, 472.0, 472.0, 472.0, 472.0, 472.0, 472.0, 472.0, 472.0, 475.0, 475.0, 475.0, 475.0, 472.0, 472.0, 472.0, 472.0, 472.0, 472.0, 472.0, 472.0, 472.0, 472.0, 472.0, 472.0, 472.0, 472.0, 472.0, 472.0, 472.0, 472.0, 472.0, 472.0, 472.0, 472.0, 471.0, 471.0, 471.0, 472.0],
      "WindowWidth": [981.0, 981.0, 980.0, 981.0, 980.0, 980.0, 981.0, 980.0, 980.0, 980.0, 980.0, 980.0, 983.0, 980.0, 980.0, 980.0, 980.0, 980.0, 980.0, 980.0, 980.0, 980.0, 980.0, 980.0, 980.0, 980.0, 980.0, 980.0, 982.0, 980.0, 980.0, 980.0, 980.0, 980.0, 980.0, 980.0, 980.0, 981.0, 980.0, 980.0, 980.0, 980.0, 980.0, 980.0, 981.0, 980.0, 980.0, 980.0, 980.0, 980.0, 980.0, 980.0, 980.0, 981.0, 980.0, 980.0, 980.0, 980.0, 980.0, 980.0, 980.0, 980.0, 980.0, 980.0, 980.0, 980.0, 980.0, 980.0, 980.0, 980.0, 980.0, 980.0, 980.0, 980.0, 980.0, 980.0, 980.0, 980.0, 980.0, 980.0, 980.0, 980.0, 981.0, 980.0, 980.0, 980.0, 980.0, 980.0, 980.0, 980.0, 980.0, 980.0, 980.0, 981.0, 980.0, 980.0, 980.0, 981.0, 980.0, 980.0, 980.0, 981.0, 980.0, 982.0, 980.0, 980.0, 980.0, 980.0, 980.0, 980.0, 980.0, 981.0, 980.0, 980.0, 980.0, 980.0, 980.0, 979.0, 980.0, 980.0, 981.0, 980.0, 980.0, 980.0, 980.0, 979.0, 980.0, 980.0, 981.0, 980.0, 980.0, 983.0, 980.0, 981.0, 980.0, 979.0, 979.0, 980.0, 979.0, 979.0, 979.0, 980.0, 979.0, 980.0, 979.0, 980.0, 979.0, 980.0, 979.0, 979.0, 979.0, 979.0, 979.0, 979.0, 979.0, 979.0, 979.0, 979.0, 979.0, 980.0, 979.0, 979.0, 979.0, 979.0, 979.0, 979.0, 979.0, 979.0, 979.0, 980.0, 985.0, 985.0, 985.0, 985.0, 979.0, 978.0, 978.0, 979.0, 978.0, 978.0, 978.0, 979.0, 979.0, 978.0, 978.0, 978.0, 978.0, 978.0, 978.0, 978.0, 978.0, 978.0, 978.0, 978.0, 978.0, 978.0, 978.0, 978.0, 978.0, 980.0]
    },
    "slices": {}
  }
}