{
  "AcquisitionMatrixPE": 80,
  "AcquisitionNumber": 1,
  "AcquisitionTime": "08:23:32.602500",
  "BandwidthPerPixelPhaseEncode": 48.077,
  "BaseResolution": 80,
  "BodyPartExamined": "BRAIN",
  "CoilCombinationMethod": "Sum of Squares",
  "ConsistencyInfo": "N4_VE11C_LATEST_20160120",
  "ConversionSoftware": "dcm2niix",
  "ConversionSoftwareVersion": "v1.0.20220720",
  "DerivedVendorReportedEchoSpacing": 0.000519999,
  "DeviceSerialNumber": "66112",
  "DwellTime": 2.7e-06,
  "EchoTime": 0.035,
  "EchoTrainLength": 39,
  "EffectiveEchoSpacing": 0.00026,
  "FlipAngle": 90,
  "HeudiconvVersion": "0.13.1",
  "ImageOrientationPatientDICOM": [0.994994, -0.0999172, 0.00209003, 0.0942298, 0.944915, 0.31346],
  "ImageOrientationText": "Tra>Cor(18.2)>Sag(1.9)",
  "ImageType": [
    "ORIGINAL",
    "PRIMARY",
    "M",
    "ND",
    "NORM",
    "MOSAIC"
],
  "ImagingFrequency": 123.252,
  "InPlanePhaseEncodingDirectionDICOM": "COL",
  "InstitutionAddress": "Maynard 3,Hanover,NH,US,03755",
  "InstitutionName": "Dartmouth College - PBS",
  "InstitutionalDepartmentName": "Department",
  "MRAcquisitionType": "2D",
  "MagneticFieldStrength": 3,
  "Manufacturer": "Siemens",
  "ManufacturersModelName": "Prisma",
  "MatrixCoilMode": "GRAPPA",
  "Modality": "MR",
  "NonlinearGradientCorrection": false,
  "ParallelReductionFactorInPlane": 2,
  "PartialFourier": 1,
  "PatientPosition": "HFS",
  "PercentPhaseFOV": 100,
  "PercentSampling": 100,
  "PhaseEncodingDirection": "j-",
  "PhaseEncodingSteps": 79,
  "PhaseResolution": 1,
  "PixelBandwidth": 2315,
  "ProcedureStepDescription": "dbic^QA",
  "ProtocolName": "func-bold_task-rest_acq-p2",
  "PulseSequenceDetails": "%SiemensSeq%\\ep2d_bold",
  "ReceiveCoilActiveElements": "HC1-7;NC1,2",
  "ReceiveCoilName": "HeadNeck_64",
  "ReconMatrixPE": 80,
  "RefLinesPE": 24,
  "RepetitionTime": 2,
  "SAR": 0.0358875,
  "ScanOptions": "FS",
  "ScanningSequence": "EP",
  "SequenceName": "*epfid2d1_80",
  "SequenceVariant": "SK",
  "SeriesDescription": "func-bold_task-rest_acq-p2",
  "SeriesNumber": 5,
  "ShimSetting": [4139, -7697, -7529, 194, -42, -357, -78, 123],
  "SliceThickness": 3.5,
  "SliceTiming": [0.99, 0, 1.055, 0.0675, 1.1225, 0.1325, 1.1875, 0.1975, 1.255, 0.265, 1.32, 0.33, 1.385, 0.3975, 1.4525, 0.4625, 1.5175, 0.5275, 1.585, 0.595, 1.65, 0.66, 1.715, 0.7275, 1.7825, 0.7925, 1.8475, 0.8575, 1.915, 0.925],
  "SoftwareVersions": "syngo MR E11",
  "SpacingBetweenSlices": 3.99,
  "StationName": "AWP66112",
  "TaskName": "rest",
  "TotalReadoutTime": 0.02054,
  "TxRefAmp": 207.473,
  "dcmmeta_affine": [
    [-2.984980583190918, 0.2826893925666809, 0.13284683227539062, 107.52947998046875],
    [0.29975149035453796, 2.8347434997558594, 1.2436585426330566, -144.0565643310547],
    [0.006270083133131266, -0.9403803944587708, 3.788900136947632, -33.29022216796875],
    [0.0, 0.0, 0.0, 1.0]
],
  "dcmmeta_reorient_transform": [
    [0.0, -1.0, 0.0, 79.0],
    [1.0, 0.0, 0.0, 0.0],
    [0.0, 0.0, 1.0, 0.0],
    [0.0, 0.0, 0.0, 1.0]
],
  "dcmmeta_shape": [80, 80, 30, 200],
  "dcmmeta_slice_dim": 2,
  "dcmmeta_version": 0.6,
  "global": {
    "const": {
      "AccessionNumber": "qa64",
      "AcquisitionMatrix": [80, 0, 0, 80],
      "AngioFlag": "N",
      "BitsAllocated": 16,
      "BitsStored": 12,
      "BodyPartExamined": "BRAIN",
      "Columns": 480,
      "EchoNumbers": 1,
      "EchoTime": 35.0,
      "EchoTrainLength": 39,
      "FlipAngle": 90.0,
      "HighBit": 11,
      "ImageOrientationPatient": [0.9949935641664, -0.0999171609477, 0.00209002765797, 0.09422979318637, 0.94491453959028, 0.31346013932708],
      "ImagePositionPatient": [-783.39595197188, -586.88661512512, -296.91037651585],
      "ImageType": [
        "ORIGINAL",
        "PRIMARY",
        "M",
        "ND",
        "NORM",
        "MOSAIC"
],
      "ImagedNucleus": "1H",
      "ImagingFrequency": 123.252351,
      "InPlanePhaseEncodingDirection": "COL",
      "LargestImagePixelValue": 4095,
      "MRAcquisitionType": "2D",
      "MagneticFieldStrength": 3.0,
      "Manufacturer": "SIEMENS",
      "ManufacturerModelName": "Prisma",
      "Modality": "MR",
      "NumberOfAverages": 1.0,
      "NumberOfPhaseEncodingSteps": 79,
      "PercentPhaseFieldOfView": 100.0,
      "PercentSampling": 100.0,
      "PerformedProcedureStepStartTime": "080615.195000",
      "PhotometricInterpretation": "MONOCHROME2",
      "PixelBandwidth": 2315.0,
      "PixelRepresentation": 0,
      "PixelSpacing": [3.0, 3.0],
      "ProtocolName": "func-bold_task-rest_acq-p2",
      "RepetitionTime": 2000.0,
      "Rows": 480,
      "SAR": 0.03588749733432,
      "SamplesPerPixel": 1,
      "ScanOptions": "FS",
      "ScanningSequence": "EP",
      "SequenceName": "*epfid2d1_80",
      "SequenceVariant": "SK",
      "SeriesDescription": "func-bold_task-rest_acq-p2",
      "SeriesNumber": 5,
      "SeriesTime": "082430.180000",
      "SliceLocation": -72.933723997012,
      "SliceThickness": 3.5,
      "SmallestImagePixelValue": 0,
      "SoftwareVersions": "syngo MR E11",
      "SpacingBetweenSlices": 3.9899999213103,
      "SpecificCharacterSet": "ISO_IR 100",
      "StudyID": "39",
      "StudyTime": "080615.126000",
      "TransmitCoilName": "Body",
      "VariableFlipAngleFlag": "N",
      "WindowCenterWidthExplanation": "Algo1",
      "dBdt": 0.0},
    "slices": {}
  },
  "time": {
    "samples": {
      "AcquisitionNumber": [1, 2, 3, 4, 5, 6, 7, 8, 9, 10, 11, 12, 13, 14, 15, 16, 17, 18, 19, 20, 21, 22, 23, 24, 25, 26, 27, 28, 29, 30, 31, 32, 33, 34, 35, 36, 37, 38, 39, 40, 41, 42, 43, 44, 45, 46, 47, 48, 49, 50, 51, 52, 53, 54, 55, 56, 57, 58, 59, 60, 61, 62, 63, 64, 65, 66, 67, 68, 69, 70, 71, 72, 73, 74, 75, 76, 77, 78, 79, 80, 81, 82, 83, 84, 85, 86, 87, 88, 89, 90, 91, 92, 93, 94, 95, 96, 97, 98, 99, 100, 101, 102, 103, 104, 105, 106, 107, 108, 109, 110, 111, 112, 113, 114, 115, 116, 117, 118, 119, 120, 121, 122, 123, 124, 125, 126, 127, 128, 129, 130, 131, 132, 133, 134, 135, 136, 137, 138, 139, 140, 141, 142, 143, 144, 145, 146, 147, 148, 149, 150, 151, 152, 153, 154, 155, 156, 157, 158, 159, 160, 161, 162, 163, 164, 165, 166, 167, 168, 169, 170, 171, 172, 173, 174, 175, 176, 177, 178, 179, 180, 181, 182, 183, 184, 185, 186, 187, 188, 189, 190, 191, 192, 193, 194, 195, 196, 197, 198, 199, 200],
      "AcquisitionTime": ["082332.602500", "082334.602500", "082336.602500", "082338.602500", "082340.602500", "082342.602500", "082344.602500", "082346.602500", "082348.602500", "082350.602500", "082352.602500", "082354.602500", "082356.602500", "082358.602500", "082400.602500", "082402.602500", "082404.602500", "082406.602500", "082408.602500", "082410.602500", "082412.602500", "082414.602500", "082416.602500", "082418.602500", "082420.602500", "082422.602500", "082424.602500", "082426.602500", "082428.602500", "082430.602500", "082432.602500", "082434.602500", "082436.602500", "082438.602500", "082440.602500", "082442.602500", "082444.602500", "082446.602500", "082448.602500", "082450.602500", "082452.602500", "082454.602500", "082456.602500", "082458.602500", "082500.602500", "082502.602500", "082504.602500", "082506.602500", "082508.602500", "082510.602500", "082512.602500", "082514.602500", "082516.602500", "082518.602500", "082520.602500", "082522.602500", "082524.602500", "082526.602500", "082528.602500", "082530.602500", "082532.602500", "082534.602500", "082536.602500", "082538.602500", "082540.602500", "082542.602500", "082544.602500", "082546.602500", "082548.602500", "082550.602500", "082552.602500", "082554.602500", "082556.602500", "082558.602500", "082600.602500", "082602.602500", "082604.602500", "082606.602500", "082608.602500", "082610.602500", "082612.602500", "082614.602500", "082616.602500", "082618.602500", "082620.602500", "082622.602500", "082624.602500", "082626.602500", "082628.602500", "082630.602500", "082632.602500", "082634.602500", "082636.602500", "082638.602500", "082640.602500", "082642.602500", "082644.602500", "082646.602500", "082648.602500", "082650.602500", "082652.602500", "082654.602500", "082656.602500", "082658.602500", "082700.602500", "082702.602500", "082704.602500", "082706.602500", "082708.602500", "082710.602500", "082712.602500", "082714.602500", "082716.602500", "082718.602500", "082720.602500", "082722.602500", "082724.602500", "082726.602500", "082728.602500", "082730.602500", "082732.602500", "082734.602500", "082736.602500", "082738.602500", "082740.602500", "082742.602500", "082744.602500", "082746.602500", "082748.602500", "082750.602500", "082752.602500", "082754.602500", "082756.602500", "082758.602500", "082800.602500", "082802.602500", "082804.602500", "082806.602500", "082808.602500", "082810.602500", "082812.602500", "082814.602500", "082816.602500", "082818.602500", "082820.602500", "082822.602500", "082824.602500", "082826.602500", "082828.602500", "082830.602500", "082832.602500", "082834.602500", "082836.602500", "082838.602500", "082840.602500", "082842.602500", "082844.602500", "082846.602500", "082848.602500", "082850.602500", "082852.602500", "082854.602500", "082856.602500", "082858.602500", "082900.602500", "082902.602500", "082904.602500", "082906.602500", "082908.602500", "082910.602500", "082912.602500", "082914.602500", "082916.602500", "082918.602500", "082920.602500", "082922.602500", "082924.602500", "082926.602500", "082928.602500", "082930.602500", "082932.602500", "082934.602500", "082936.602500", "082938.602500", "082940.602500", "082942.602500", "082944.602500", "082946.602500", "082948.602500", "082950.602500", "082952.602500", "082954.602500", "082956.602500", "082958.602500", "083000.602500", "083002.602500", "083004.602500", "083006.602500", "083008.602500", "083010.602500"],
      "ContentTime": ["082430.184000", "082430.196000", "082430.199000", "082430.202000", "082430.204000", "082430.207000", "082430.210000", "082430.212000", "082430.215000", "082430.217000", "082430.220000", "082430.222000", "082430.225000", "082430.228000", "082430.230000", "082430.233000", "082430.236000", "082430.238000", "082430.241000", "082430.243000", "082430.246000", "082430.249000", "082430.251000", "082430.254000", "082430.257000", "082430.259000", "082430.268000", "082430.271000", "082510.179000", "082510.181000", "082510.184000", "082510.187000", "082510.189000", "082510.192000", "082510.194000", "082510.197000", "082510.200000", "082510.202000", "082510.205000", "082510.208000", "082510.218000", "082510.221000", "082510.228000", "082510.231000", "082510.234000", "082510.236000", "082510.239000", "082510.242000", "082550.179000", "082550.181000", "082550.184000", "082550.187000", "082550.189000", "082550.192000", "082550.195000", "082550.197000", "082550.200000", "082550.202000", "082550.205000", "082550.208000", "082550.210000", "082550.213000", "082550.216000", "082550.218000", "082550.231000", "082550.234000", "082550.236000", "082550.239000", "082630.180000", "082630.182000", "082630.185000", "082630.188000", "082630.190000", "082630.193000", "082630.195000", "082630.198000", "082630.200000", "082630.203000", "082630.206000", "082630.208000", "082630.211000", "082630.213000", "082630.222000", "082630.224000", "082630.227000", "082630.230000", "082630.232000", "082630.235000", "082710.179000", "082710.182000", "082710.184000", "082710.187000", "082710.189000", "082710.197000", "082710.200000", "082710.202000", "082710.205000", "082710.208000", "082710.210000", "082710.213000", "082710.216000", "082710.218000", "082710.221000", "082710.224000", "082710.226000", "082710.229000", "082710.232000", "082710.234000", "082750.179000", "082750.181000", "082750.184000", "082750.187000", "082750.189000", "082750.192000", "082750.194000", "082750.197000", "082750.199000", "082750.202000", "082750.205000", "082750.207000", "082750.210000", "082750.212000", "082750.215000", "082750.217000", "082750.220000", "082750.223000", "082750.230000", "082750.233000", "082830.178000", "082830.181000", "082830.184000", "082830.187000", "082830.189000", "082830.192000", "082830.194000", "082830.197000", "082830.200000", "082830.202000", "082830.205000", "082830.208000", "082830.210000", "082830.213000", "082830.215000", "082830.218000", "082830.221000", "082830.223000", "082830.226000", "082830.229000", "082910.179000", "082910.181000", "082910.184000", "082910.187000", "082910.189000", "082910.192000", "082910.194000", "082910.197000", "082910.200000", "082910.202000", "082910.205000", "082910.207000", "082910.210000", "082910.213000", "082910.215000", "082910.218000", "082910.220000", "082910.223000", "082910.225000", "082910.228000", "082950.179000", "082950.181000", "082950.184000", "082950.187000", "082950.189000", "082950.192000", "082950.194000", "082950.197000", "082950.200000", "082950.202000", "082950.205000", "082950.207000", "082950.210000", "082950.212000", "082950.215000", "082950.218000", "082950.220000", "082950.223000", "082950.225000", "082950.228000", "083012.518000", "083012.521000", "083012.523000", "083012.526000", "083012.528000", "083012.531000", "083012.534000", "083012.537000", "083012.539000", "083012.542000", "083012.545000", "083012.550000"],
      "InstanceCreationTime": ["082430.184000", "082430.196000", "082430.199000", "082430.202000", "082430.204000", "082430.207000", "082430.210000", "082430.212000", "082430.215000", "082430.217000", "082430.220000", "082430.222000", "082430.225000", "082430.228000", "082430.230000", "082430.233000", "082430.236000", "082430.238000", "082430.241000", "082430.243000", "082430.246000", "082430.249000", "082430.251000", "082430.254000", "082430.257000", "082430.259000", "082430.268000", "082430.271000", "082510.179000", "082510.181000", "082510.184000", "082510.187000", "082510.189000", "082510.192000", "082510.194000", "082510.197000", "082510.200000", "082510.202000", "082510.205000", "082510.208000", "082510.218000", "082510.221000", "082510.228000", "082510.231000", "082510.234000", "082510.236000", "082510.239000", "082510.242000", "082550.179000", "082550.181000", "082550.184000", "082550.187000", "082550.189000", "082550.192000", "082550.195000", "082550.197000", "082550.200000", "082550.202000", "082550.205000", "082550.208000", "082550.210000", "082550.213000", "082550.216000", "082550.218000", "082550.231000", "082550.234000", "082550.236000", "082550.239000", "082630.180000", "082630.182000", "082630.185000", "082630.188000", "082630.190000", "082630.193000", "082630.195000", "082630.198000", "082630.200000", "082630.203000", "082630.206000", "082630.208000", "082630.211000", "082630.213000", "082630.222000", "082630.224000", "082630.227000", "082630.230000", "082630.232000", "082630.235000", "082710.179000", "082710.182000", "082710.184000", "082710.187000", "082710.189000", "082710.197000", "082710.200000", "082710.202000", "082710.205000", "082710.208000", "082710.210000", "082710.213000", "082710.216000", "082710.218000", "082710.221000", "082710.224000", "082710.226000", "082710.229000", "082710.232000", "082710.234000", "082750.179000", "082750.181000", "082750.184000", "082750.187000", "082750.189000", "082750.192000", "082750.194000", "082750.197000", "082750.199000", "082750.202000", "082750.205000", "082750.207000", "082750.210000", "082750.212000", "082750.215000", "082750.217000", "082750.220000", "082750.223000", "082750.230000", "082750.233000", "082830.178000", "082830.181000", "082830.184000", "082830.187000", "082830.189000", "082830.192000", "082830.194000", "082830.197000", "082830.200000", "082830.202000", "082830.205000", "082830.208000", "082830.210000", "082830.213000", "082830.215000", "082830.218000", "082830.221000", "082830.223000", "082830.226000", "082830.229000", "082910.179000", "082910.181000", "082910.184000", "082910.187000", "082910.189000", "082910.192000", "082910.194000", "082910.197000", "082910.200000", "082910.202000", "082910.205000", "082910.207000", "082910.210000", "082910.213000", "082910.215000", "082910.218000", "082910.220000", "082910.223000", "082910.225000", "082910.228000", "082950.179000", "082950.181000", "082950.184000", "082950.187000", "082950.189000", "082950.192000", "082950.194000", "082950.197000", "082950.200000", "082950.202000", "082950.205000", "082950.207000", "082950.210000", "082950.212000", "082950.215000", "082950.218000", "082950.220000", "082950.223000", "082950.225000", "082950.228000", "083012.518000", "083012.521000", "083012.523000", "083012.526000", "083012.528000", "083012.531000", "083012.534000", "083012.537000", "083012.539000", "083012.542000", "083012.545000", "083012.550000"],
      "InstanceNumber": [1, 2, 3, 4, 5, 6, 7, 8, 9, 10, 11, 12, 13, 14, 15, 16, 17, 18, 19, 20, 21, 22, 23, 24, 25, 26, 27, 28, 29, 30, 31, 32, 33, 34, 35, 36, 37, 38, 39, 40, 41, 42, 43, 44, 45, 46, 47, 48, 49, 50, 51, 52, 53, 54, 55, 56, 57, 58, 59, 60, 61, 62, 63, 64, 65, 66, 67, 68, 69, 70, 71, 72, 73, 74, 75, 76, 77, 78, 79, 80, 81, 82, 83, 84, 85, 86, 87, 88, 89, 90, 91, 92, 93, 94, 95, 96, 97, 98, 99, 100, 101, 102, 103, 104, 105, 106, 107, 108, 109, 110, 111, 112, 113, 114, 115, 116, 117, 118, 119, 120, 121, 122, 123, 124, 125, 126, 127, 128, 129, 130, 131, 132, 133, 134, 135, 136, 137, 138, 139, 140, 141, 142, 143, 144, 145, 146, 147, 148, 149, 150, 151, 152, 153, 154, 155, 156, 157, 158, 159, 160, 161, 162, 163, 164, 165, 166, 167, 168, 169, 170, 171, 172, 173, 174, 175, 176, 177, 178, 179, 180, 181, 182, 183, 184, 185, 186, 187, 188, 189, 190, 191, 192, 193, 194, 195, 196, 197, 198, 199, 200],
      "WindowCenter": [1548.0, 1549.0, 1548.0, 1549.0, 1548.0, 1548.0, 1548.0, 1548.0, 1548.0, 1548.0, 1547.0, 1548.0, 1548.0, 1548.0, 1548.0, 1548.0, 1547.0, 1548.0, 1547.0, 1549.0, 1547.0, 1548.0, 1547.0, 1548.0, 1548.0, 1547.0, 1546.0, 1547.0, 1548.0, 1546.0, 1547.0, 1547.0, 1548.0, 1547.0, 1548.0, 1548.0, 1548.0, 1547.0, 1547.0, 1546.0, 1546.0, 1546.0, 1546.0, 1547.0, 1546.0, 1547.0, 1547.0, 1547.0, 1547.0, 1547.0, 1547.0, 1547.0, 1547.0, 1546.0, 1546.0, 1546.0, 1546.0, 1545.0, 1546.0, 1545.0, 1545.0, 1546.0, 1546.0, 1546.0, 1546.0, 1546.0, 1546.0, 1546.0, 1545.0, 1546.0, 1545.0, 1544.0, 1546.0, 1546.0, 1545.0, 1546.0, 1545.0, 1545.0, 1545.0, 1544.0, 1545.0, 1544.0, 1545.0, 1545.0, 1545.0, 1544.0, 1545.0, 1544.0, 1545.0, 1545.0, 1545.0, 1545.0, 1544.0, 1546.0, 1545.0, 1545.0, 1544.0, 1545.0, 1545.0, 1544.0, 1545.0, 1544.0, 1545.0, 1545.0, 1545.0, 1545.0, 1544.0, 1544.0, 1544.0, 1544.0, 1543.0, 1544.0, 1544.0, 1544.0, 1544.0, 1544.0, 1544.0, 1544.0, 1544.0, 1543.0, 1545.0, 1543.0, 1544.0, 1543.0, 1543.0, 1544.0, 1544.0, 1545.0, 1543.0, 1544.0, 1543.0, 1544.0, 1544.0, 1544.0, 1543.0, 1543.0, 1543.0, 1543.0, 1543.0, 1544.0, 1543.0, 1544.0, 1543.0, 1543.0, 1543.0, 1543.0, 1542.0, 1543.0, 1543.0, 1542.0, 1543.0, 1543.0, 1544.0, 1542.0, 1543.0, 1544.0, 1542.0, 1544.0, 1543.0, 1544.0, 1542.0, 1542.0, 1542.0, 1543.0, 1543.0, 1543.0, 1543.0, 1543.0, 1543.0, 1542.0, 1542.0, 1542.0, 1542.0, 1543.0, 1542.0, 1543.0, 1543.0, 1543.0, 1542.0, 1542.0, 1543.0, 1542.0, 1542.0, 1542.0, 1542.0, 1543.0, 1542.0, 1543.0, 1542.0, 1542.0, 1543.0, 1542.0, 1542.0, 1541.0, 1542.0, 1542.0, 1542.0, 1541.0, 1542.0, 1541.0],
      "WindowWidth": [3474.0, 3473.0, 3473.0, 3473.0, 3473.0, 3473.0, 3473.0, 3473.0, 3473.0, 3473.0, 3473.0, 3473.0, 3473.0, 3473.0, 3473.0, 3473.0, 3473.0, 3473.0, 3473.0, 3472.0, 3472.0, 3472.0, 3472.0, 3472.0, 3472.0, 3472.0, 3473.0, 3472.0, 3472.0, 3472.0, 3472.0, 3472.0, 3471.0, 3472.0, 3471.0, 3471.0, 3471.0, 3472.0, 3472.0, 3472.0, 3472.0, 3472.0, 3472.0, 3471.0, 3472.0, 3471.0, 3471.0, 3471.0, 3471.0, 3471.0, 3471.0, 3471.0, 3471.0, 3471.0, 3471.0, 3471.0, 3471.0, 3471.0, 3471.0, 3471.0, 3471.0, 3471.0, 3471.0, 3471.0, 3471.0, 3471.0, 3471.0, 3471.0, 3471.0, 3471.0, 3471.0, 3471.0, 3471.0, 3471.0, 3471.0, 3470.0, 3471.0, 3471.0, 3470.0, 3471.0, 3470.0, 3470.0, 3470.0, 3470.0, 3470.0, 3470.0, 3470.0, 3470.0, 3470.0, 3470.0, 3470.0, 3469.0, 3470.0, 3470.0, 3469.0, 3470.0, 3470.0, 3469.0, 3470.0, 3470.0, 3469.0, 3470.0, 3469.0, 3469.0, 3469.0, 3469.0, 3470.0, 3470.0, 3470.0, 3469.0, 3470.0, 3469.0, 3469.0, 3469.0, 3469.0, 3469.0, 3469.0, 3469.0, 3469.0, 3469.0, 3469.0, 3469.0, 3469.0, 3469.0, 3469.0, 3469.0, 3469.0, 3469.0, 3469.0, 3469.0, 3469.0, 3469.0, 3469.0, 3469.0, 3469.0, 3469.0, 3469.0, 3469.0, 3469.0, 3469.0, 3469.0, 3469.0, 3469.0, 3468.0, 3468.0, 3468.0, 3469.0, 3469.0, 3469.0, 3469.0, 3468.0, 3469.0, 3468.0, 3469.0, 3469.0, 3468.0, 3469.0, 3468.0, 3468.0, 3468.0, 3469.0, 3469.0, 3469.0, 3468.0, 3468.0, 3468.0, 3468.0, 3468.0, 3468.0, 3468.0, 3468.0, 3468.0, 3468.0, 3468.0, 3468.0, 3468.0, 3468.0, 3468.0, 3468.0, 3468.0, 3468.0, 3468.0, 3468.0, 3468.0, 3468.0, 3468.0, 3468.0, 3468.0, 3468.0, 3468.0, 3468.0, 3468.0, 3468.0, 3468.0, 3467.0, 3467.0, 3468.0, 3468.0, 3468.0, 3468.0]
    },
    "slices": {}
  }
}