{
  "AcquisitionMatrixPE": 80,
  "AcquisitionNumber": 1,
  "AcquisitionTime": "08:30:23.525000",
  "BandwidthPerPixelPhaseEncode": 25,
  "BaseResolution": 80,
  "BodyPartExamined": "BRAIN",
  "CoilCombinationMethod": "Sum of Squares",
  "ConsistencyInfo": "N4_VE11C_LATEST_20160120",
  "ConversionSoftware": "dcm2niix",
  "ConversionSoftwareVersion": "v1.0.20220720",
  "DerivedVendorReportedEchoSpacing": 0.0005,
  "DeviceSerialNumber": "66112",
  "DwellTime": 2.7e-06,
  "EchoTime": 0.03,
  "EchoTrainLength": 80,
  "EffectiveEchoSpacing": 0.0005,
  "FlipAngle": 77,
  "HeudiconvVersion": "0.13.1",
  "ImageOrientationPatientDICOM": [0.99501, -0.0997522, 0.00214475, 0.0940561, 0.944932, 0.31346],
  "ImageOrientationText": "Tra>Cor(18.2)>Sag(1.9)",
  "ImageType": [
    "ORIGINAL",
    "PRIMARY",
    "M",
    "ND",
    "NORM",
    "MOSAIC"
],
  "ImagingFrequency": 123.252,
  "InPlanePhaseEncodingDirectionDICOM": "COL",
  "InstitutionAddress": "Maynard 3,Hanover,NH,US,03755",
  "InstitutionName": "Dartmouth College - PBS",
  "InstitutionalDepartmentName": "Department",
  "MRAcquisitionType": "2D",
  "MagneticFieldStrength": 3,
  "Manufacturer": "Siemens",
  "ManufacturersModelName": "Prisma",
  "MatrixCoilMode": "SENSE",
  "Modality": "MR",
  "NonlinearGradientCorrection": false,
  "PartialFourier": 1,
  "PatientPosition": "HFS",
  "PercentPhaseFOV": 100,
  "PercentSampling": 100,
  "PhaseEncodingDirection": "j-",
  "PhaseEncodingSteps": 80,
  "PhaseResolution": 1,
  "PixelBandwidth": 2315,
  "ProcedureStepDescription": "dbic^QA",
  "ProtocolName": "func-bold_fa-77",
  "PulseSequenceDetails": "%SiemensSeq%\\ep2d_bold",
  "ReceiveCoilActiveElements": "HC1-7;NC1,2",
  "ReceiveCoilName": "HeadNeck_64",
  "ReconMatrixPE": 80,
  "RepetitionTime": 2,
  "SAR": 0.0282022,
  "ScanOptions": "FS",
  "ScanningSequence": "EP",
  "SequenceName": "*epfid2d1_80",
  "SequenceVariant": "SK",
  "SeriesDescription": "func-bold_fa-77",
  "SeriesNumber": 7,
  "ShimSetting": [4139, -7698, -7529, 196, -42, -355, -76, 123],
  "SliceThickness": 3.5,
  "SliceTiming": [0.99, 0, 1.0575, 0.0675, 1.1225, 0.1325, 1.1875, 0.2, 1.255, 0.265, 1.32, 0.33, 1.3875, 0.3975, 1.4525, 0.4625, 1.5175, 0.53, 1.585, 0.595, 1.65, 0.66, 1.7175, 0.7275, 1.7825, 0.7925, 1.8475, 0.8575, 1.915, 0.925],
  "SoftwareVersions": "syngo MR E11",
  "SpacingBetweenSlices": 3.99,
  "StationName": "AWP66112",
  "TotalReadoutTime": 0.0395,
  "TxRefAmp": 207.473,
  "dcmmeta_affine": [
    [-2.985029935836792, 0.28216832876205444, 0.13284684717655182, 105.8648452758789],
    [0.29925665259361267, 2.8347959518432617, 1.2436585426330566, -141.63331604003906],
    [0.006434241309762001, -0.9403793215751648, 3.788900136947632, -32.6810188293457],
    [0.0, 0.0, 0.0, 1.0]
],
  "dcmmeta_reorient_transform": [
    [0.0, -1.0, 0.0, 79.0],
    [1.0, 0.0, 0.0, 0.0],
    [0.0, 0.0, 1.0, 0.0],
    [0.0, 0.0, 0.0, 1.0]
],
  "dcmmeta_shape": [80, 80, 30, 200],
  "dcmmeta_slice_dim": 2,
  "dcmmeta_version": 0.6,
  "global": {
    "const": {
      "AccessionNumber": "qa64",
      "AcquisitionMatrix": [80, 0, 0, 80],
      "AngioFlag": "N",
      "BitsAllocated": 16,
      "BitsStored": 12,
      "BodyPartExamined": "BRAIN",
      "Columns": 480,
      "EchoNumbers": 1,
      "EchoTime": 30.0,
      "EchoTrainLength": 80,
      "FlipAngle": 77.0,
      "HighBit": 11,
      "ImageOrientationPatient": [0.99500999730781, -0.0997522196115, 0.00214474709197, 0.09405610914887, 0.94493196461292, 0.31345977506619],
      "ImagePositionPatient": [-781.59580353129, -589.42340214929, -296.33369803151],
      "ImageType": [
        "ORIGINAL",
        "PRIMARY",
        "M",
        "ND",
        "NORM",
        "MOSAIC"
],
      "ImagedNucleus": "1H",
      "ImagingFrequency": 123.252347,
      "InPlanePhaseEncodingDirection": "COL",
      "LargestImagePixelValue": 4095,
      "MRAcquisitionType": "2D",
      "MagneticFieldStrength": 3.0,
      "Manufacturer": "SIEMENS",
      "ManufacturerModelName": "Prisma",
      "Modality": "MR",
      "NumberOfAverages": 1.0,
      "NumberOfPhaseEncodingSteps": 80,
      "PercentPhaseFieldOfView": 100.0,
      "PercentSampling": 100.0,
      "PerformedProcedureStepStartTime": "080615.195000",
      "PhotometricInterpretation": "MONOCHROME2",
      "PixelBandwidth": 2315.0,
      "PixelRepresentation": 0,
      "PixelSpacing": [3.0, 3.0],
      "ProtocolName": "func-bold_fa-77",
      "RepetitionTime": 2000.0,
      "Rows": 480,
      "SAR": 0.02820218770073,
      "SamplesPerPixel": 1,
      "ScanOptions": "FS",
      "ScanningSequence": "EP",
      "SequenceName": "*epfid2d1_80",
      "SequenceVariant": "SK",
      "SeriesDescription": "func-bold_fa-77",
      "SeriesNumber": 7,
      "SeriesTime": "083110.260000",
      "SliceLocation": -71.65533915159,
      "SliceThickness": 3.5,
      "SmallestImagePixelValue": 0,
      "SoftwareVersions": "syngo MR E11",
      "SpacingBetweenSlices": 3.9899999214471,
      "SpecificCharacterSet": "ISO_IR 100",
      "StudyID": "39",
      "StudyTime": "080615.126000",
      "TransmitCoilName": "Body",
      "VariableFlipAngleFlag": "N",
      "WindowCenterWidthExplanation": "Algo1",
      "dBdt": 0.0},
    "slices": {}
  },
  "time": {
    "samples": {
      "AcquisitionNumber": [1, 2, 3, 4, 5, 6, 7, 8, 9, 10, 11, 12, 13, 14, 15, 16, 17, 18, 19, 20, 21, 22, 23, 24, 25, 26, 27, 28, 29, 30, 31, 32, 33, 34, 35, 36, 37, 38, 39, 40, 41, 42, 43, 44, 45, 46, 47, 48, 49, 50, 51, 52, 53, 54, 55, 56, 57, 58, 59, 60, 61, 62, 63, 64, 65, 66, 67, 68, 69, 70, 71, 72, 73, 74, 75, 76, 77, 78, 79, 80, 81, 82, 83, 84, 85, 86, 87, 88, 89, 90, 91, 92, 93, 94, 95, 96, 97, 98, 99, 100, 101, 102, 103, 104, 105, 106, 107, 108, 109, 110, 111, 112, 113, 114, 115, 116, 117, 118, 119, 120, 121, 122, 123, 124, 125, 126, 127, 128, 129, 130, 131, 132, 133, 134, 135, 136, 137, 138, 139, 140, 141, 142, 143, 144, 145, 146, 147, 148, 149, 150, 151, 152, 153, 154, 155, 156, 157, 158, 159, 160, 161, 162, 163, 164, 165, 166, 167, 168, 169, 170, 171, 172, 173, 174, 175, 176, 177, 178, 179, 180, 181, 182, 183, 184, 185, 186, 187, 188, 189, 190, 191, 192, 193, 194, 195, 196, 197, 198, 199, 200],
      "AcquisitionTime": ["083023.525000", "083025.525000", "083027.525000", "083029.525000", "083031.525000", "083033.525000", "083035.525000", "083037.525000", "083039.525000", "083041.525000", "083043.525000", "083045.525000", "083047.525000", "083049.525000", "083051.525000", "083053.525000", "083055.525000", "083057.525000", "083059.525000", "083101.525000", "083103.525000", "083105.525000", "083107.525000", "083109.525000", "083111.525000", "083113.525000", "083115.525000", "083117.525000", "083119.525000", "083121.525000", "083123.525000", "083125.525000", "083127.525000", "083129.525000", "083131.525000", "083133.525000", "083135.525000", "083137.525000", "083139.525000", "083141.525000", "083143.525000", "083145.525000", "083147.525000", "083149.525000", "083151.525000", "083153.525000", "083155.525000", "083157.525000", "083159.525000", "083201.525000", "083203.525000", "083205.525000", "083207.525000", "083209.525000", "083211.525000", "083213.525000", "083215.525000", "083217.525000", "083219.525000", "083221.525000", "083223.525000", "083225.525000", "083227.525000", "083229.525000", "083231.525000", "083233.525000", "083235.525000", "083237.525000", "083239.525000", "083241.525000", "083243.525000", "083245.525000", "083247.525000", "083249.525000", "083251.525000", "083253.525000", "083255.525000", "083257.525000", "083259.525000", "083301.525000", "083303.525000", "083305.525000", "083307.525000", "083309.525000", "083311.525000", "083313.525000", "083315.525000", "083317.525000", "083319.525000", "083321.525000", "083323.525000", "083325.525000", "083327.525000", "083329.525000", "083331.525000", "083333.525000", "083335.525000", "083337.525000", "083339.525000", "083341.525000", "083343.525000", "083345.525000", "083347.525000", "083349.525000", "083351.525000", "083353.525000", "083355.525000", "083357.525000", "083359.525000", "083401.525000", "083403.525000", "083405.525000", "083407.525000", "083409.525000", "083411.525000", "083413.525000", "083415.525000", "083417.525000", "083419.525000", "083421.525000", "083423.525000", "083425.525000", "083427.525000", "083429.525000", "083431.525000", "083433.525000", "083435.525000", "083437.525000", "083439.525000", "083441.525000", "083443.525000", "083445.525000", "083447.525000", "083449.525000", "083451.525000", "083453.525000", "083455.525000", "083457.525000", "083459.525000", "083501.525000", "083503.525000", "083505.525000", "083507.525000", "083509.525000", "083511.525000", "083513.525000", "083515.525000", "083517.525000", "083519.525000", "083521.525000", "083523.525000", "083525.525000", "083527.525000", "083529.525000", "083531.525000", "083533.525000", "083535.525000", "083537.525000", "083539.525000", "083541.525000", "083543.525000", "083545.525000", "083547.525000", "083549.525000", "083551.525000", "083553.525000", "083555.525000", "083557.525000", "083559.525000", "083601.525000", "083603.525000", "083605.525000", "083607.525000", "083609.525000", "083611.525000", "083613.525000", "083615.525000", "083617.525000", "083619.525000", "083621.525000", "083623.525000", "083625.525000", "083627.525000", "083629.525000", "083631.525000", "083633.525000", "083635.525000", "083637.525000", "083639.525000", "083641.525000", "083643.525000", "083645.525000", "083647.525000", "083649.525000", "083651.525000", "083653.525000", "083655.525000", "083657.525000", "083659.525000", "083701.525000"],
      "ContentTime": ["083110.269000", "083110.272000", "083110.275000", "083110.278000", "083110.291000", "083110.293000", "083110.296000", "083110.298000", "083110.301000", "083110.303000", "083110.306000", "083110.308000", "083110.311000", "083110.313000", "083110.316000", "083110.319000", "083110.321000", "083110.324000", "083110.326000", "083110.329000", "083110.331000", "083110.334000", "083110.336000", "083150.249000", "083150.252000", "083150.254000", "083150.257000", "083150.259000", "083150.262000", "083150.264000", "083150.267000", "083150.269000", "083150.272000", "083150.274000", "083150.277000", "083150.279000", "083150.282000", "083150.284000", "083150.287000", "083150.289000", "083150.292000", "083150.295000", "083150.297000", "083230.248000", "083230.251000", "083230.254000", "083230.257000", "083230.259000", "083230.262000", "083230.272000", "083230.275000", "083230.278000", "083230.280000", "083230.289000", "083230.291000", "083230.294000", "083230.296000", "083230.306000", "083230.308000", "083230.311000", "083230.314000", "083230.316000", "083230.319000", "083310.248000", "083310.251000", "083310.254000", "083310.257000", "083310.259000", "083310.262000", "083310.264000", "083310.267000", "083310.269000", "083310.272000", "083310.274000", "083310.277000", "083310.279000", "083310.282000", "083310.284000", "083310.287000", "083310.289000", "083310.292000", "083310.295000", "083310.297000", "083350.249000", "083350.251000", "083350.254000", "083350.257000", "083350.259000", "083350.262000", "083350.264000", "083350.267000", "083350.269000", "083350.272000", "083350.274000", "083350.277000", "083350.279000", "083350.282000", "083350.284000", "083350.287000", "083350.289000", "083350.292000", "083350.295000", "083350.297000", "083430.248000", "083430.251000", "083430.254000", "083430.256000", "083430.259000", "083430.262000", "083430.264000", "083430.267000", "083430.269000", "083430.272000", "083430.274000", "083430.277000", "083430.279000", "083430.282000", "083430.284000", "083430.287000", "083430.289000", "083430.292000", "083430.295000", "083430.297000", "083510.248000", "083510.251000", "083510.254000", "083510.256000", "083510.259000", "083510.262000", "083510.264000", "083510.267000", "083510.269000", "083510.272000", "083510.274000", "083510.277000", "083510.279000", "083510.282000", "083510.284000", "083510.287000", "083510.290000", "083510.292000", "083510.295000", "083510.297000", "083550.250000", "083550.252000", "083550.255000", "083550.258000", "083550.260000", "083550.263000", "083550.265000", "083550.279000", "083550.281000", "083550.284000", "083550.286000", "083550.289000", "083550.292000", "083550.297000", "083550.299000", "083550.302000", "083550.304000", "083550.307000", "083550.310000", "083550.312000", "083630.248000", "083630.251000", "083630.254000", "083630.256000", "083630.259000", "083630.262000", "083630.264000", "083630.267000", "083630.269000", "083630.272000", "083630.274000", "083630.277000", "083630.279000", "083630.282000", "083630.284000", "083630.287000", "083630.290000", "083630.292000", "083630.295000", "083630.297000", "083650.249000", "083650.251000", "083650.254000", "083650.256000", "083650.259000", "083650.262000", "083650.264000", "083650.267000", "083650.269000", "083650.272000", "083703.552000", "083703.555000", "083703.557000", "083703.560000", "083703.562000", "083703.565000", "083703.568000"],
      "InstanceCreationTime": ["083110.269000", "083110.272000", "083110.275000", "083110.278000", "083110.291000", "083110.293000", "083110.296000", "083110.298000", "083110.301000", "083110.303000", "083110.306000", "083110.308000", "083110.311000", "083110.313000", "083110.316000", "083110.319000", "083110.321000", "083110.324000", "083110.326000", "083110.329000", "083110.331000", "083110.334000", "083110.336000", "083150.249000", "083150.252000", "083150.254000", "083150.257000", "083150.259000", "083150.262000", "083150.264000", "083150.267000", "083150.269000", "083150.272000", "083150.274000", "083150.277000", "083150.279000", "083150.282000", "083150.284000", "083150.287000", "083150.289000", "083150.292000", "083150.295000", "083150.297000", "083230.248000", "083230.251000", "083230.254000", "083230.257000", "083230.259000", "083230.262000", "083230.272000", "083230.275000", "083230.278000", "083230.280000", "083230.289000", "083230.291000", "083230.294000", "083230.296000", "083230.306000", "083230.308000", "083230.311000", "083230.314000", "083230.316000", "083230.319000", "083310.248000", "083310.251000", "083310.254000", "083310.257000", "083310.259000", "083310.262000", "083310.264000", "083310.267000", "083310.269000", "083310.272000", "083310.274000", "083310.277000", "083310.279000", "083310.282000", "083310.284000", "083310.287000", "083310.289000", "083310.292000", "083310.295000", "083310.297000", "083350.249000", "083350.251000", "083350.254000", "083350.257000", "083350.259000", "083350.262000", "083350.264000", "083350.267000", "083350.269000", "083350.272000", "083350.274000", "083350.277000", "083350.279000", "083350.282000", "083350.284000", "083350.287000", "083350.289000", "083350.292000", "083350.295000", "083350.297000", "083430.248000", "083430.251000", "083430.254000", "083430.256000", "083430.259000", "083430.262000", "083430.264000", "083430.267000", "083430.269000", "083430.272000", "083430.274000", "083430.277000", "083430.279000", "083430.282000", "083430.284000", "083430.287000", "083430.289000", "083430.292000", "083430.295000", "083430.297000", "083510.248000", "083510.251000", "083510.254000", "083510.256000", "083510.259000", "083510.262000", "083510.264000", "083510.267000", "083510.269000", "083510.272000", "083510.274000", "083510.277000", "083510.279000", "083510.282000", "083510.284000", "083510.287000", "083510.290000", "083510.292000", "083510.295000", "083510.297000", "083550.250000", "083550.252000", "083550.255000", "083550.258000", "083550.260000", "083550.263000", "083550.265000", "083550.279000", "083550.281000", "083550.284000", "083550.286000", "083550.289000", "083550.292000", "083550.297000", "083550.299000", "083550.302000", "083550.304000", "083550.307000", "083550.310000", "083550.312000", "083630.248000", "083630.251000", "083630.254000", "083630.256000", "083630.259000", "083630.262000", "083630.264000", "083630.267000", "083630.269000", "083630.272000", "083630.274000", "083630.277000", "083630.279000", "083630.282000", "083630.284000", "083630.287000", "083630.290000", "083630.292000", "083630.295000", "083630.297000", "083650.249000", "083650.251000", "083650.254000", "083650.256000", "083650.259000", "083650.262000", "083650.264000", "083650.267000", "083650.269000", "083650.272000", "083703.552000", "083703.555000", "083703.557000", "083703.560000", "083703.562000", "083703.565000", "083703.568000"],
      "InstanceNumber": [1, 2, 3, 4, 5, 6, 7, 8, 9, 10, 11, 12, 13, 14, 15, 16, 17, 18, 19, 20, 21, 22, 23, 24, 25, 26, 27, 28, 29, 30, 31, 32, 33, 34, 35, 36, 37, 38, 39, 40, 41, 42, 43, 44, 45, 46, 47, 48, 49, 50, 51, 52, 53, 54, 55, 56, 57, 58, 59, 60, 61, 62, 63, 64, 65, 66, 67, 68, 69, 70, 71, 72, 73, 74, 75, 76, 77, 78, 79, 80, 81, 82, 83, 84, 85, 86, 87, 88, 89, 90, 91, 92, 93, 94, 95, 96, 97, 98, 99, 100, 101, 102, 103, 104, 105, 106, 107, 108, 109, 110, 111, 112, 113, 114, 115, 116, 117, 118, 119, 120, 121, 122, 123, 124, 125, 126, 127, 128, 129, 130, 131, 132, 133, 134, 135, 136, 137, 138, 139, 140, 141, 142, 143, 144, 145, 146, 147, 148, 149, 150, 151, 152, 153, 154, 155, 156, 157, 158, 159, 160, 161, 162, 163, 164, 165, 166, 167, 168, 169, 170, 171, 172, 173, 174, 175, 176, 177, 178, 179, 180, 181, 182, 183, 184, 185, 186, 187, 188, 189, 190, 191, 192, 193, 194, 195, 196, 197, 198, 199, 200],
      "WindowCenter": [1460.0, 1459.0, 1459.0, 1459.0, 1459.0, 1460.0, 1460.0, 1459.0, 1459.0, 1459.0, 1459.0, 1458.0, 1460.0, 1459.0, 1459.0, 1459.0, 1458.0, 1458.0, 1459.0, 1459.0, 1458.0, 1458.0, 1457.0, 1458.0, 1458.0, 1457.0, 1457.0, 1459.0, 1459.0, 1458.0, 1457.0, 1458.0, 1458.0, 1458.0, 1458.0, 1458.0, 1457.0, 1458.0, 1457.0, 1458.0, 1457.0, 1457.0, 1457.0, 1457.0, 1457.0, 1457.0, 1459.0, 1457.0, 1457.0, 1457.0, 1458.0, 1457.0, 1457.0, 1457.0, 1457.0, 1456.0, 1457.0, 1456.0, 1456.0, 1456.0, 1456.0, 1457.0, 1457.0, 1457.0, 1456.0, 1457.0, 1457.0, 1456.0, 1457.0, 1457.0, 1456.0, 1456.0, 1456.0, 1456.0, 1456.0, 1456.0, 1456.0, 1456.0, 1456.0, 1455.0, 1457.0, 1456.0, 1456.0, 1456.0, 1456.0, 1456.0, 1456.0, 1456.0, 1456.0, 1456.0, 1456.0, 1456.0, 1455.0, 1455.0, 1456.0, 1456.0, 1456.0, 1456.0, 1456.0, 1456.0, 1455.0, 1456.0, 1454.0, 1455.0, 1456.0, 1456.0, 1455.0, 1455.0, 1456.0, 1455.0, 1455.0, 1456.0, 1455.0, 1455.0, 1455.0, 1455.0, 1455.0, 1455.0, 1455.0, 1455.0, 1455.0, 1454.0, 1454.0, 1455.0, 1454.0, 1454.0, 1455.0, 1455.0, 1454.0, 1455.0, 1454.0, 1455.0, 1454.0, 1455.0, 1455.0, 1455.0, 1454.0, 1455.0, 1454.0, 1453.0, 1451.0, 1451.0, 1452.0, 1452.0, 1453.0, 1452.0, 1454.0, 1454.0, 1453.0, 1453.0, 1452.0, 1452.0, 1452.0, 1452.0, 1452.0, 1453.0, 1452.0, 1452.0, 1452.0, 1453.0, 1452.0, 1452.0, 1452.0, 1452.0, 1452.0, 1452.0, 1452.0, 1452.0, 1452.0, 1452.0, 1452.0, 1452.0, 1451.0, 1451.0, 1452.0, 1451.0, 1451.0, 1452.0, 1452.0, 1451.0, 1452.0, 1451.0, 1450.0, 1452.0, 1451.0, 1451.0, 1451.0, 1451.0, 1451.0, 1451.0, 1451.0, 1451.0, 1451.0, 1451.0, 1452.0, 1451.0, 1451.0, 1452.0, 1452.0, 1452.0],
      "WindowWidth": [3430.0, 3430.0, 3430.0, 3430.0, 3430.0, 3430.0, 3430.0, 3430.0, 3430.0, 3430.0, 3430.0, 3430.0, 3430.0, 3430.0, 3430.0, 3430.0, 3430.0, 3429.0, 3429.0, 3429.0, 3429.0, 3429.0, 3429.0, 3429.0, 3430.0, 3429.0, 3429.0, 3430.0, 3430.0, 3430.0, 3429.0, 3429.0, 3429.0, 3429.0, 3429.0, 3429.0, 3429.0, 3429.0, 3429.0, 3429.0, 3429.0, 3429.0, 3429.0, 3429.0, 3429.0, 3429.0, 3428.0, 3429.0, 3429.0, 3429.0, 3428.0, 3429.0, 3428.0, 3429.0, 3429.0, 3428.0, 3428.0, 3428.0, 3428.0, 3428.0, 3428.0, 3428.0, 3428.0, 3428.0, 3428.0, 3429.0, 3429.0, 3428.0, 3428.0, 3428.0, 3428.0, 3428.0, 3428.0, 3428.0, 3428.0, 3428.0, 3428.0, 3428.0, 3428.0, 3427.0, 3427.0, 3428.0, 3428.0, 3428.0, 3428.0, 3428.0, 3428.0, 3428.0, 3428.0, 3427.0, 3427.0, 3427.0, 3427.0, 3427.0, 3427.0, 3427.0, 3427.0, 3427.0, 3427.0, 3427.0, 3427.0, 3427.0, 3427.0, 3427.0, 3427.0, 3427.0, 3427.0, 3427.0, 3427.0, 3427.0, 3427.0, 3426.0, 3427.0, 3427.0, 3427.0, 3427.0, 3427.0, 3427.0, 3427.0, 3427.0, 3427.0, 3427.0, 3427.0, 3427.0, 3427.0, 3427.0, 3426.0, 3426.0, 3426.0, 3426.0, 3426.0, 3426.0, 3427.0, 3426.0, 3426.0, 3426.0, 3427.0, 3426.0, 3426.0, 3425.0, 3423.0, 3423.0, 3422.0, 3422.0, 3424.0, 3424.0, 3426.0, 3426.0, 3426.0, 3426.0, 3424.0, 3423.0, 3424.0, 3424.0, 3424.0, 3424.0, 3425.0, 3424.0, 3424.0, 3424.0, 3424.0, 3424.0, 3424.0, 3424.0, 3424.0, 3424.0, 3424.0, 3424.0, 3424.0, 3424.0, 3424.0, 3424.0, 3424.0, 3424.0, 3424.0, 3424.0, 3424.0, 3423.0, 3424.0, 3424.0, 3424.0, 3424.0, 3424.0, 3423.0, 3423.0, 3423.0, 3423.0, 3423.0, 3423.0, 3423.0, 3423.0, 3423.0, 3423.0, 3423.0, 3424.0, 3425.0, 3425.0, 3425.0, 3425.0, 3424.0]
    },
    "slices": {}
  }
}