{
  "AcquisitionMatrixPE": 122,
  "AcquisitionNumber": 1,
  "AcquisitionTime": "12:51:40.587500",
  "BandwidthPerPixelPhaseEncode": 28.76,
  "BaseResolution": 122,
  "BodyPartExamined": "BRAIN",
  "CoilCombinationMethod": "Adaptive Combine",
  "ConsistencyInfo": "N4_VE11C_LATEST_20160120",
  "ConversionSoftware": "dcm2niix",
  "ConversionSoftwareVersion": "v1.0.20220720",
  "DerivedVendorReportedEchoSpacing": 0.000570008,
  "DeviceSerialNumber": "66112",
  "DiffusionScheme": "Monopolar",
  "DwellTime": 2e-06,
  "EchoTime": 0.075,
  "EchoTrainLength": 61,
  "EffectiveEchoSpacing": 0.000285004,
  "FlipAngle": 90,
  "HeudiconvVersion": "0.13.1",
  "ImageOrientationPatientDICOM": [0.984864, 0.173009, 0.0104995, -0.167815, 0.936637, 0.307489],
  "ImageOrientationText": "Tra>Cor(17.8)>Sag(-2.5)",
  "ImageType": [
    "ORIGINAL",
    "PRIMARY",
    "DIFFUSION",
    "NONE",
    "ND",
    "NORM"
],
  "ImagingFrequency": 123.252,
  "InPlanePhaseEncodingDirectionDICOM": "COL",
  "InstitutionAddress": "Maynard 3,Hanover,NH,US,03755",
  "InstitutionName": "Dartmouth College - PBS",
  "InstitutionalDepartmentName": "Department",
  "MRAcquisitionType": "2D",
  "MagneticFieldStrength": 3,
  "Manufacturer": "Siemens",
  "ManufacturersModelName": "Prisma",
  "MatrixCoilMode": "GRAPPA",
  "Modality": "MR",
  "NonlinearGradientCorrection": false,
  "ParallelReductionFactorInPlane": 2,
  "PartialFourier": 1,
  "PatientPosition": "HFS",
  "PercentPhaseFOV": 100,
  "PercentSampling": 100,
  "PhaseEncodingDirection": "j-",
  "PhaseEncodingSteps": 122,
  "PhaseResolution": 1,
  "PixelBandwidth": 2050,
  "ProcedureStepDescription": "dbic^QA",
  "ProtocolName": "dwi_acq-DTI-30-p2",
  "PulseSequenceDetails": "%SiemensSeq%\\ep2d_diff",
  "ReceiveCoilActiveElements": "HEA;HEP",
  "ReceiveCoilName": "Head_32",
  "ReconMatrixPE": 122,
  "RefLinesPE": 38,
  "RepetitionTime": 7.7,
  "SAR": 0.101368,
  "ScanOptions": "FS",
  "ScanningSequence": "EP",
  "SequenceName": "*ep_b0",
  "SequenceVariant": "SK\\SP",
  "SeriesDescription": "dwi_acq-DTI-30-p2",
  "SeriesNumber": 8,
  "ShimSetting": [4144, -7693, -7509, 277, -44, -143, -70, 59],
  "SliceThickness": 2,
  "SliceTiming": [3.83594, 0, 3.94531, 0.10938, 4.05469, 0.21875, 4.16406, 0.32812, 4.28125, 0.4375, 4.39062, 0.54688, 4.5, 0.65625, 4.60938, 0.76562, 4.71875, 0.875, 4.82812, 0.98438, 4.9375, 1.09375, 5.04688, 1.20312, 5.15625, 1.3125, 5.26562, 1.42188, 5.375, 1.53125, 5.48438, 1.64844, 5.59375, 1.75781, 5.70312, 1.85938, 5.8125, 1.96875, 5.92188, 2.08594, 6.03125, 2.19531, 6.14062, 2.30469, 6.25, 2.41406, 6.35938, 2.52344, 6.46875, 2.63281, 6.57812, 2.74219, 6.6875, 2.85156, 6.79688, 2.96094, 6.90625, 3.07031, 7.02344, 3.17969, 7.13281, 3.28906, 7.24219, 3.39844, 7.35156, 3.50781, 7.46094, 3.61719, 7.57031, 3.72656],
  "SoftwareVersions": "syngo MR E11",
  "SpacingBetweenSlices": 2,
  "SpoilingState": true,
  "StationName": "AWP66112",
  "TotalReadoutTime": 0.0344855,
  "TxRefAmp": 230.167,
  "dcmmeta_affine": [
    [-1.937437891960144, -0.3301283121109009, -0.08672841638326645, 143.90814208984375],
    [-0.3403458595275879, 1.842564344406128, 0.6091938018798828, -105.79277038574219],
    [0.02065468207001686, -0.6048961281776428, 1.9029884338378906, -33.41109848022461],
    [0.0, 0.0, 0.0, 1.0]
],
  "dcmmeta_reorient_transform": [
    [0.0, -1.0, 0.0, 121.0],
    [1.0, 0.0, 0.0, 0.0],
    [0.0, 0.0, -1.0, 69.0],
    [0.0, 0.0, 0.0, 1.0]
],
  "dcmmeta_shape": [122, 122, 70, 31],
  "dcmmeta_slice_dim": 2,
  "dcmmeta_version": 0.6,
  "global": {
    "const": {
      "AccessionNumber": "qa",
      "AcquisitionMatrix": [122, 0, 0, 122],
      "AngioFlag": "N",
      "BitsAllocated": 16,
      "BitsStored": 12,
      "BodyPartExamined": "BRAIN",
      "Columns": 122,
      "EchoNumbers": 1,
      "EchoTime": 75.0,
      "EchoTrainLength": 61,
      "FlipAngle": 90.0,
      "HighBit": 11,
      "ImageOrientationPatient": [0.98486425430311, 0.17300913811831, 0.01049946301191, -0.1678152161091, 0.93663688188241, 0.30748886929425],
      "ImageType": [
        "ORIGINAL",
        "PRIMARY",
        "DIFFUSION",
        "NONE",
        "ND",
        "NORM"
],
      "ImagedNucleus": "1H",
      "ImagingFrequency": 123.252474,
      "InPlanePhaseEncodingDirection": "COL",
      "MRAcquisitionType": "2D",
      "MagneticFieldStrength": 3.0,
      "Manufacturer": "SIEMENS",
      "ManufacturerModelName": "Prisma",
      "Modality": "MR",
      "NumberOfAverages": 1.0,
      "NumberOfPhaseEncodingSteps": 122,
      "PercentPhaseFieldOfView": 100.0,
      "PercentSampling": 100.0,
      "PerformedProcedureStepStartTime": "115301.562000",
      "PhotometricInterpretation": "MONOCHROME2",
      "PixelBandwidth": 2050.0,
      "PixelRepresentation": 0,
      "PixelSpacing": [1.9672131538391, 1.9672131538391],
      "ProtocolName": "dwi_acq-DTI-30-p2",
      "RepetitionTime": 7700.0,
      "Rows": 122,
      "SAR": 0.10136797214301,
      "SamplesPerPixel": 1,
      "ScanOptions": "FS",
      "ScanningSequence": "EP",
      "SequenceVariant": [
        "SK",
        "SP"
],
      "SeriesDescription": "dwi_acq-DTI-30-p2",
      "SeriesNumber": 8,
      "SeriesTime": "125146.540000",
      "SliceThickness": 2.0,
      "SmallestImagePixelValue": 0,
      "SoftwareVersions": "syngo MR E11",
      "SpacingBetweenSlices": 2.0,
      "SpecificCharacterSet": "ISO_IR 100",
      "StudyID": "96",
      "StudyTime": "115301.470000",
      "TransmitCoilName": "Body",
      "VariableFlipAngleFlag": "N",
      "WindowCenterWidthExplanation": "Algo1",
      "dBdt": 0.0},
    "slices": {
      "AcquisitionTime": ["125140.587500", "125136.747500", "125140.697500", "125136.857500", "125140.807500", "125136.967500", "125140.917500", "125137.077500", "125141.027500", "125137.187500", "125141.137500", "125137.297500", "125141.247500", "125137.407500", "125141.357500", "125137.517500", "125141.465000", "125137.625000", "125141.575000", "125137.735000", "125141.685000", "125137.845000", "125141.795000", "125137.955000", "125141.905000", "125138.065000", "125142.015000", "125138.175000", "125142.125000", "125138.285000", "125142.235000", "125138.395000", "125142.345000", "125138.505000", "125142.452500", "125138.612500", "125142.562500", "125138.722500", "125142.672500", "125138.832500", "125142.782500", "125138.942500", "125142.892500", "125139.052500", "125143.002500", "125139.162500", "125143.112500", "125139.272500", "125143.222500", "125139.382500", "125143.330000", "125139.492500", "125143.440000", "125139.600000", "125143.550000", "125139.710000", "125143.660000", "125139.820000", "125143.770000", "125139.930000", "125143.880000", "125140.040000", "125143.990000", "125140.150000", "125144.100000", "125140.260000", "125144.210000", "125140.370000", "125144.317500", "125140.477500", "125148.287500", "125144.447500", "125148.397500", "125144.557500", "125148.507500", "125144.667500", "125148.617500", "125144.777500", "125148.727500", "125144.887500", "125148.837500", "125144.997500", "125148.947500", "125145.107500", "125149.057500", "125145.217500", "125149.165000", "125145.325000", "125149.275000", "125145.435000", "125149.385000", "125145.545000", "125149.495000", "125145.655000", "125149.605000", "125145.765000", "125149.715000", "125145.875000", "125149.825000", "125145.985000", "125149.935000", "125146.095000", "125150.045000", "125146.205000", "125150.152500", "125146.312500", "125150.262500", "125146.422500", "125150.372500", "125146.532500", "125150.482500", "125146.642500", "125150.592500", "125146.752500", "125150.702500", "125146.862500", "125150.812500", "125146.972500", "125150.922500", "125147.082500", "125151.030000", "125147.192500", "125151.140000", "125147.300000", "125151.250000", "125147.410000", "125151.360000", "125147.520000", "125151.470000", "125147.630000", "125151.580000", "125147.740000", "125151.690000", "125147.850000", "125151.800000", "125147.960000", "125151.910000", "125148.070000", "125152.017500", "125148.177500", "125155.987500", "125152.147500", "125156.097500", "125152.257500", "125156.207500", "125152.367500", "125156.317500", "125152.477500", "125156.427500", "125152.587500", "125156.537500", "125152.697500", "125156.647500", "125152.807500", "125156.757500", "125152.917500", "125156.865000", "125153.025000", "125156.975000", "125153.135000", "125157.085000", "125153.245000", "125157.195000", "125153.355000", "125157.305000", "125153.465000", "125157.415000", "125153.575000", "125157.525000", "125153.685000", "125157.635000", "125153.795000", "125157.745000", "125153.905000", "125157.852500", "125154.012500", "125157.962500", "125154.122500", "125158.072500", "125154.232500", "125158.182500", "125154.342500", "125158.292500", "125154.452500", "125158.402500", "125154.562500", "125158.512500", "125154.672500", "125158.622500", "125154.782500", "125158.730000", "125154.892500", "125158.840000", "125155.000000", "125158.950000", "125155.110000", "125159.060000", "125155.220000", "125159.170000", "125155.330000", "125159.280000", "125155.440000", "125159.390000", "125155.550000", "125159.500000", "125155.660000", "125159.610000", "125155.770000", "125159.717500", "125155.877500", "125203.687500", "125159.847500", "125203.797500", "125159.957500", "125203.907500", "125200.067500", "125204.017500", "125200.177500", "125204.127500", "125200.287500", "125204.237500", "125200.397500", "125204.347500", "125200.507500", "125204.457500", "125200.617500", "125204.565000", "125200.725000", "125204.675000", "125200.835000", "125204.785000", "125200.945000", "125204.895000", "125201.055000", "125205.005000", "125201.165000", "125205.115000", "125201.275000", "125205.225000", "125201.385000", "125205.335000", "125201.495000", "125205.445000", "125201.605000", "125205.552500", "125201.712500", "125205.662500", "125201.822500", "125205.772500", "125201.932500", "125205.882500", "125202.042500", "125205.992500", "125202.152500", "125206.102500", "125202.262500", "125206.212500", "125202.372500", "125206.322500", "125202.482500", "125206.430000", "125202.592500", "125206.540000", "125202.700000", "125206.650000", "125202.810000", "125206.760000", "125202.920000", "125206.870000", "125203.030000", "125206.980000", "125203.140000", "125207.090000", "125203.250000", "125207.200000", "125203.360000", "125207.310000", "125203.470000", "125207.417500", "125203.577500", "125211.387500", "125207.547500", "125211.497500", "125207.657500", "125211.607500", "125207.767500", "125211.717500", "125207.877500", "125211.827500", "125207.987500", "125211.937500", "125208.097500", "125212.047500", "125208.207500", "125212.157500", "125208.317500", "125212.265000", "125208.425000", "125212.375000", "125208.535000", "125212.485000", "125208.645000", "125212.595000", "125208.755000", "125212.705000", "125208.865000", "125212.815000", "125208.975000", "125212.925000", "125209.085000", "125213.035000", "125209.195000", "125213.145000", "125209.305000", "125213.252500", "125209.412500", "125213.362500", "125209.522500", "125213.472500", "125209.632500", "125213.582500", "125209.742500", "125213.692500", "125209.852500", "125213.802500", "125209.962500", "125213.912500", "125210.072500", "125214.022500", "125210.182500", "125214.130000", "125210.292500", "125214.240000", "125210.400000", "125214.350000", "125210.510000", "125214.460000", "125210.620000", "125214.570000", "125210.730000", "125214.680000", "125210.840000", "125214.790000", "125210.950000", "125214.900000", "125211.060000", "125215.010000", "125211.170000", "125215.117500", "125211.277500", "125219.087500", "125215.247500", "125219.197500", "125215.357500", "125219.307500", "125215.467500", "125219.417500", "125215.577500", "125219.527500", "125215.687500", "125219.637500", "125215.797500", "125219.747500", "125215.907500", "125219.857500", "125216.017500", "125219.965000", "125216.125000", "125220.075000", "125216.235000", "125220.185000", "125216.345000", "125220.295000", "125216.455000", "125220.405000", "125216.565000", "125220.515000", "125216.675000", "125220.625000", "125216.785000", "125220.735000", "125216.895000", "125220.845000", "125217.005000", "125220.952500", "125217.112500", "125221.062500", "125217.222500", "125221.172500", "125217.332500", "125221.282500", "125217.442500", "125221.392500", "125217.552500", "125221.502500", "125217.662500", "125221.612500", "125217.772500", "125221.722500", "125217.882500", "125221.830000", "125217.992500", "125221.940000", "125218.100000", "125222.050000", "125218.210000", "125222.160000", "125218.320000", "125222.270000", "125218.430000", "125222.380000", "125218.540000", "125222.490000", "125218.650000", "125222.600000", "125218.760000", "125222.710000", "125218.870000", "125222.817500", "125218.977500", "125226.787500", "125222.947500", "125226.897500", "125223.057500", "125227.007500", "125223.167500", "125227.117500", "125223.277500", "125227.227500", "125223.387500", "125227.337500", "125223.497500", "125227.447500", "125223.607500", "125227.557500", "125223.717500", "125227.665000", "125223.825000", "125227.775000", "125223.935000", "125227.885000", "125224.045000", "125227.995000", "125224.155000", "125228.105000", "125224.265000", "125228.215000", "125224.375000", "125228.325000", "125224.485000", "125228.435000", "125224.595000", "125228.545000", "125224.705000", "125228.652500", "125224.812500", "125228.762500", "125224.922500", "125228.872500", "125225.032500", "125228.982500", "125225.142500", "125229.092500", "125225.252500", "125229.202500", "125225.362500", "125229.312500", "125225.472500", "125229.422500", "125225.582500", "125229.530000", "125225.692500", "125229.640000", "125225.800000", "125229.750000", "125225.910000", "125229.860000", "125226.020000", "125229.970000", "125226.130000", "125230.080000", "125226.240000", "125230.190000", "125226.350000", "125230.300000", "125226.460000", "125230.410000", "125226.570000", "125230.517500", "125226.677500", "125234.487500", "125230.647500", "125234.597500", "125230.757500", "125234.707500", "125230.867500", "125234.817500", "125230.977500", "125234.927500", "125231.087500", "125235.037500", "125231.197500", "125235.147500", "125231.307500", "125235.257500", "125231.417500", "125235.365000", "125231.525000", "125235.475000", "125231.635000", "125235.585000", "125231.745000", "125235.695000", "125231.855000", "125235.805000", "125231.965000", "125235.915000", "125232.075000", "125236.025000", "125232.185000", "125236.135000", "125232.295000", "125236.245000", "125232.405000", "125236.352500", "125232.512500", "125236.462500", "125232.622500", "125236.572500", "125232.732500", "125236.682500", "125232.842500", "125236.792500", "125232.952500", "125236.902500", "125233.062500", "125237.012500", "125233.172500", "125237.122500", "125233.282500", "125237.230000", "125233.392500", "125237.340000", "125233.500000", "125237.450000", "125233.610000", "125237.560000", "125233.720000", "125237.670000", "125233.830000", "125237.780000", "125233.940000", "125237.890000", "125234.050000", "125238.000000", "125234.160000", "125238.110000", "125234.270000", "125238.217500", "125234.377500", "125242.187500", "125238.347500", "125242.297500", "125238.457500", "125242.407500", "125238.567500", "125242.517500", "125238.677500", "125242.627500", "125238.787500", "125242.737500", "125238.897500", "125242.847500", "125239.007500", "125242.957500", "125239.117500", "125243.065000", "125239.225000", "125243.175000", "125239.335000", "125243.285000", "125239.445000", "125243.395000", "125239.555000", "125243.505000", "125239.665000", "125243.615000", "125239.775000", "125243.725000", "125239.885000", "125243.835000", "125239.995000", "125243.945000", "125240.105000", "125244.052500", "125240.212500", "125244.162500", "125240.322500", "125244.272500", "125240.432500", "125244.382500", "125240.542500", "125244.492500", "125240.652500", "125244.602500", "125240.762500", "125244.712500", "125240.872500", "125244.822500", "125240.982500", "125244.930000", "125241.092500", "125245.040000", "125241.200000", "125245.150000", "125241.310000", "125245.260000", "125241.420000", "125245.370000", "125241.530000", "125245.480000", "125241.640000", "125245.590000", "125241.750000", "125245.700000", "125241.860000", "125245.810000", "125241.970000", "125245.917500", "125242.077500", "125249.887500", "125246.047500", "125249.997500", "125246.157500", "125250.107500", "125246.267500", "125250.217500", "125246.377500", "125250.327500", "125246.487500", "125250.437500", "125246.597500", "125250.547500", "125246.707500", "125250.657500", "125246.817500", "125250.765000", "125246.925000", "125250.875000", "125247.035000", "125250.985000", "125247.145000", "125251.095000", "125247.255000", "125251.205000", "125247.365000", "125251.315000", "125247.475000", "125251.425000", "125247.585000", "125251.535000", "125247.695000", "125251.645000", "125247.805000", "125251.752500", "125247.912500", "125251.862500", "125248.022500", "125251.972500", "125248.132500", "125252.082500", "125248.242500", "125252.192500", "125248.352500", "125252.302500", "125248.462500", "125252.412500", "125248.572500", "125252.522500", "125248.682500", "125252.630000", "125248.792500", "125252.740000", "125248.900000", "125252.850000", "125249.010000", "125252.960000", "125249.120000", "125253.070000", "125249.230000", "125253.180000", "125249.340000", "125253.290000", "125249.450000", "125253.400000", "125249.560000", "125253.510000", "125249.670000", "125253.617500", "125249.777500", "125257.587500", "125253.747500", "125257.697500", "125253.857500", "125257.807500", "125253.967500", "125257.917500", "125254.077500", "125258.027500", "125254.187500", "125258.137500", "125254.297500", "125258.247500", "125254.407500", "125258.357500", "125254.517500", "125258.465000", "125254.625000", "125258.575000", "125254.735000", "125258.685000", "125254.845000", "125258.795000", "125254.955000", "125258.905000", "125255.065000", "125259.015000", "125255.175000", "125259.125000", "125255.285000", "125259.235000", "125255.395000", "125259.345000", "125255.505000", "125259.452500", "125255.612500", "125259.562500", "125255.722500", "125259.672500", "125255.832500", "125259.782500", "125255.942500", "125259.892500", "125256.052500", "125300.002500", "125256.162500", "125300.112500", "125256.272500", "125300.222500", "125256.382500", "125300.330000", "125256.492500", "125300.440000", "125256.600000", "125300.550000", "125256.710000", "125300.660000", "125256.820000", "125300.770000", "125256.930000", "125300.880000", "125257.040000", "125300.990000", "125257.150000", "125301.100000", "125257.260000", "125301.210000", "125257.370000", "125301.317500", "125257.477500", "125305.287500", "125301.447500", "125305.397500", "125301.557500", "125305.507500", "125301.667500", "125305.617500", "125301.777500", "125305.727500", "125301.887500", "125305.837500", "125301.997500", "125305.947500", "125302.107500", "125306.057500", "125302.217500", "125306.165000", "125302.325000", "125306.275000", "125302.435000", "125306.385000", "125302.545000", "125306.495000", "125302.655000", "125306.605000", "125302.765000", "125306.715000", "125302.875000", "125306.825000", "125302.985000", "125306.935000", "125303.095000", "125307.045000", "125303.205000", "125307.152500", "125303.312500", "125307.262500", "125303.422500", "125307.372500", "125303.532500", "125307.482500", "125303.642500", "125307.592500", "125303.752500", "125307.702500", "125303.862500", "125307.812500", "125303.972500", "125307.922500", "125304.082500", "125308.030000", "125304.192500", "125308.140000", "125304.300000", "125308.250000", "125304.410000", "125308.360000", "125304.520000", "125308.470000", "125304.630000", "125308.580000", "125304.740000", "125308.690000", "125304.850000", "125308.800000", "125304.960000", "125308.910000", "125305.070000", "125309.017500", "125305.177500", "125312.987500", "125309.147500", "125313.097500", "125309.257500", "125313.207500", "125309.367500", "125313.317500", "125309.477500", "125313.427500", "125309.587500", "125313.537500", "125309.697500", "125313.647500", "125309.807500", "125313.757500", "125309.917500", "125313.865000", "125310.025000", "125313.975000", "125310.135000", "125314.085000", "125310.245000", "125314.195000", "125310.355000", "125314.305000", "125310.465000", "125314.415000", "125310.575000", "125314.525000", "125310.685000", "125314.635000", "125310.795000", "125314.745000", "125310.905000", "125314.852500", "125311.012500", "125314.962500", "125311.122500", "125315.072500", "125311.232500", "125315.182500", "125311.342500", "125315.292500", "125311.452500", "125315.402500", "125311.562500", "125315.512500", "125311.672500", "125315.622500", "125311.782500", "125315.730000", "125311.892500", "125315.840000", "125312.000000", "125315.950000", "125312.110000", "125316.060000", "125312.220000", "125316.170000", "125312.330000", "125316.280000", "125312.440000", "125316.390000", "125312.550000", "125316.500000", "125312.660000", "125316.610000", "125312.770000", "125316.717500", "125312.877500", "125320.687500", "125316.847500", "125320.797500", "125316.957500", "125320.907500", "125317.067500", "125321.017500", "125317.177500", "125321.127500", "125317.287500", "125321.237500", "125317.397500", "125321.347500", "125317.507500", "125321.457500", "125317.617500", "125321.565000", "125317.725000", "125321.675000", "125317.835000", "125321.785000", "125317.945000", "125321.895000", "125318.055000", "125322.005000", "125318.165000", "125322.115000", "125318.275000", "125322.225000", "125318.385000", "125322.335000", "125318.495000", "125322.445000", "125318.605000", "125322.552500", "125318.712500", "125322.662500", "125318.822500", "125322.772500", "125318.932500", "125322.882500", "125319.042500", "125322.992500", "125319.152500", "125323.102500", "125319.262500", "125323.212500", "125319.372500", "125323.322500", "125319.482500", "125323.430000", "125319.592500", "125323.540000", "125319.700000", "125323.650000", "125319.810000", "125323.760000", "125319.920000", "125323.870000", "125320.030000", "125323.980000", "125320.140000", "125324.090000", "125320.250000", "125324.200000", "125320.360000", "125324.310000", "125320.470000", "125324.417500", "125320.577500", "125328.387500", "125324.547500", "125328.497500", "125324.657500", "125328.607500", "125324.767500", "125328.717500", "125324.877500", "125328.827500", "125324.987500", "125328.937500", "125325.097500", "125329.047500", "125325.207500", "125329.157500", "125325.317500", "125329.265000", "125325.425000", "125329.375000", "125325.535000", "125329.485000", "125325.645000", "125329.595000", "125325.755000", "125329.705000", "125325.865000", "125329.815000", "125325.975000", "125329.925000", "125326.085000", "125330.035000", "125326.195000", "125330.145000", "125326.305000", "125330.252500", "125326.412500", "125330.362500", "125326.522500", "125330.472500", "125326.632500", "125330.582500", "125326.742500", "125330.692500", "125326.852500", "125330.802500", "125326.962500", "125330.912500", "125327.072500", "125331.022500", "125327.182500", "125331.130000", "125327.292500", "125331.240000", "125327.400000", "125331.350000", "125327.510000", "125331.460000", "125327.620000", "125331.570000", "125327.730000", "125331.680000", "125327.840000", "125331.790000", "125327.950000", "125331.900000", "125328.060000", "125332.010000", "125328.170000", "125332.117500", "125328.277500", "125336.087500", "125332.247500", "125336.197500", "125332.357500", "125336.307500", "125332.467500", "125336.417500", "125332.577500", "125336.527500", "125332.687500", "125336.637500", "125332.797500", "125336.747500", "125332.907500", "125336.857500", "125333.017500", "125336.965000", "125333.125000", "125337.075000", "125333.235000", "125337.185000", "125333.345000", "125337.295000", "125333.455000", "125337.405000", "125333.565000", "125337.515000", "125333.675000", "125337.625000", "125333.785000", "125337.735000", "125333.895000", "125337.845000", "125334.005000", "125337.952500", "125334.112500", "125338.062500", "125334.222500", "125338.172500", "125334.332500", "125338.282500", "125334.442500", "125338.392500", "125334.552500", "125338.502500", "125334.662500", "125338.612500", "125334.772500", "125338.722500", "125334.882500", "125338.830000", "125334.992500", "125338.940000", "125335.100000", "125339.050000", "125335.210000", "125339.160000", "125335.320000", "125339.270000", "125335.430000", "125339.380000", "125335.540000", "125339.490000", "125335.650000", "125339.600000", "125335.760000", "125339.710000", "125335.870000", "125339.817500", "125335.977500", "125343.787500", "125339.947500", "125343.897500", "125340.057500", "125344.007500", "125340.167500", "125344.117500", "125340.277500", "125344.227500", "125340.387500", "125344.337500", "125340.497500", "125344.447500", "125340.607500", "125344.557500", "125340.717500", "125344.665000", "125340.825000", "125344.775000", "125340.935000", "125344.885000", "125341.045000", "125344.995000", "125341.155000", "125345.105000", "125341.265000", "125345.215000", "125341.375000", "125345.325000", "125341.485000", "125345.435000", "125341.595000", "125345.545000", "125341.705000", "125345.652500", "125341.812500", "125345.762500", "125341.922500", "125345.872500", "125342.032500", "125345.982500", "125342.142500", "125346.092500", "125342.252500", "125346.202500", "125342.362500", "125346.312500", "125342.472500", "125346.422500", "125342.582500", "125346.530000", "125342.692500", "125346.640000", "125342.800000", "125346.750000", "125342.910000", "125346.860000", "125343.020000", "125346.970000", "125343.130000", "125347.080000", "125343.240000", "125347.190000", "125343.350000", "125347.300000", "125343.460000", "125347.410000", "125343.570000", "125347.517500", "125343.677500", "125351.487500", "125347.647500", "125351.597500", "125347.757500", "125351.707500", "125347.867500", "125351.817500", "125347.977500", "125351.927500", "125348.087500", "125352.037500", "125348.197500", "125352.147500", "125348.307500", "125352.257500", "125348.417500", "125352.365000", "125348.525000", "125352.475000", "125348.635000", "125352.585000", "125348.745000", "125352.695000", "125348.855000", "125352.805000", "125348.965000", "125352.915000", "125349.075000", "125353.025000", "125349.185000", "125353.135000", "125349.295000", "125353.245000", "125349.405000", "125353.352500", "125349.512500", "125353.462500", "125349.622500", "125353.572500", "125349.732500", "125353.682500", "125349.842500", "125353.792500", "125349.952500", "125353.902500", "125350.062500", "125354.012500", "125350.172500", "125354.122500", "125350.282500", "125354.230000", "125350.392500", "125354.340000", "125350.500000", "125354.450000", "125350.610000", "125354.560000", "125350.720000", "125354.670000", "125350.830000", "125354.780000", "125350.940000", "125354.890000", "125351.050000", "125355.000000", "125351.160000", "125355.110000", "125351.270000", "125355.217500", "125351.377500", "125359.187500", "125355.347500", "125359.297500", "125355.457500", "125359.407500", "125355.567500", "125359.517500", "125355.677500", "125359.627500", "125355.787500", "125359.737500", "125355.897500", "125359.847500", "125356.007500", "125359.957500", "125356.117500", "125400.065000", "125356.225000", "125400.175000", "125356.335000", "125400.285000", "125356.445000", "125400.395000", "125356.555000", "125400.505000", "125356.665000", "125400.615000", "125356.775000", "125400.725000", "125356.885000", "125400.835000", "125356.995000", "125400.945000", "125357.105000", "125401.052500", "125357.212500", "125401.162500", "125357.322500", "125401.272500", "125357.432500", "125401.382500", "125357.542500", "125401.492500", "125357.652500", "125401.602500", "125357.762500", "125401.712500", "125357.872500", "125401.822500", "125357.982500", "125401.930000", "125358.092500", "125402.040000", "125358.200000", "125402.150000", "125358.310000", "125402.260000", "125358.420000", "125402.370000", "125358.530000", "125402.480000", "125358.640000", "125402.590000", "125358.750000", "125402.700000", "125358.860000", "125402.810000", "125358.970000", "125402.917500", "125359.077500", "125406.887500", "125403.047500", "125406.997500", "125403.157500", "125407.107500", "125403.267500", "125407.217500", "125403.377500", "125407.327500", "125403.487500", "125407.437500", "125403.597500", "125407.547500", "125403.707500", "125407.657500", "125403.817500", "125407.765000", "125403.925000", "125407.875000", "125404.035000", "125407.985000", "125404.145000", "125408.095000", "125404.255000", "125408.205000", "125404.365000", "125408.315000", "125404.475000", "125408.425000", "125404.585000", "125408.535000", "125404.695000", "125408.645000", "125404.805000", "125408.752500", "125404.912500", "125408.862500", "125405.022500", "125408.972500", "125405.132500", "125409.082500", "125405.242500", "125409.192500", "125405.352500", "125409.302500", "125405.462500", "125409.412500", "125405.572500", "125409.522500", "125405.682500", "125409.630000", "125405.792500", "125409.740000", "125405.900000", "125409.850000", "125406.010000", "125409.960000", "125406.120000", "125410.070000", "125406.230000", "125410.180000", "125406.340000", "125410.290000", "125406.450000", "125410.400000", "125406.560000", "125410.510000", "125406.670000", "125410.617500", "125406.777500", "125414.587500", "125410.747500", "125414.697500", "125410.857500", "125414.807500", "125410.967500", "125414.917500", "125411.077500", "125415.027500", "125411.187500", "125415.137500", "125411.297500", "125415.247500", "125411.407500", "125415.357500", "125411.517500", "125415.465000", "125411.625000", "125415.575000", "125411.735000", "125415.685000", "125411.845000", "125415.795000", "125411.955000", "125415.905000", "125412.065000", "125416.015000", "125412.175000", "125416.125000", "125412.285000", "125416.235000", "125412.395000", "125416.345000", "125412.505000", "125416.452500", "