{
  "AcquisitionMatrixPE": 80,
  "AcquisitionNumber": 1,
  "AcquisitionTime": "10:00:14.080000",
  "BandwidthPerPixelPhaseEncode": 46.296,
  "BaseResolution": 80,
  "BodyPartExamined": "BRAIN",
  "CoilCombinationMethod": "Sum of Squares",
  "ConsistencyInfo": "N4_VE11E_LATEST_20181129",
  "ConversionSoftware": "dcm2niix",
  "ConversionSoftwareVersion": "v1.0.20220720",
  "DerivedVendorReportedEchoSpacing": 0.000540003,
  "DeviceSerialNumber": "66112",
  "DwellTime": 2.7e-06,
  "EchoTime": 0.035,
  "EchoTrainLength": 39,
  "EffectiveEchoSpacing": 0.000270002,
  "FlipAngle": 90,
  "HeudiconvVersion": "0.13.1",
  "ImageOrientationPatientDICOM": [0.986523, 0.163375, 0.00897027, -0.158369, 0.939636, 0.303322],
  "ImageOrientationText": "Tra>Cor(17.5)>Sag(-2.4)",
  "ImageType": [
    "ORIGINAL",
    "PRIMARY",
    "M",
    "ND",
    "NORM",
    "MOSAIC"
],
  "ImagingFrequency": 123.259,
  "InPlanePhaseEncodingDirectionDICOM": "COL",
  "InstitutionAddress": "Maynard 3,Hanover,NH,US,03755",
  "InstitutionName": "Dartmouth College - PBS",
  "InstitutionalDepartmentName": "Department",
  "MRAcquisitionType": "2D",
  "MagneticFieldStrength": 3,
  "Manufacturer": "Siemens",
  "ManufacturersModelName": "Prisma",
  "Modality": "MR",
  "MultibandAccelerationFactor": 4,
  "NonlinearGradientCorrection": false,
  "ParallelReductionFactorInPlane": 2,
  "PartialFourier": 1,
  "PatientPosition": "HFS",
  "PercentPhaseFOV": 100,
  "PercentSampling": 100,
  "PhaseEncodingDirection": "j-",
  "PhaseEncodingSteps": 79,
  "PhaseResolution": 1,
  "PixelBandwidth": 2315,
  "ProcedureStepDescription": "dbic^QA",
  "ProtocolName": "func-bold_task-rest_acq-p2-s4-3.5mm",
  "PulseSequenceDetails": "%SiemensSeq%\\ep2d_bold",
  "ReceiveCoilActiveElements": "HEA;HEP",
  "ReceiveCoilName": "Head_32",
  "ReconMatrixPE": 80,
  "RefLinesPE": 24,
  "RepetitionTime": 2,
  "SAR": 0.0176481,
  "ScanOptions": "FS",
  "ScanningSequence": "EP",
  "SequenceName": "*epfid2d1_80",
  "SequenceVariant": "SK",
  "SeriesDescription": "func-bold_task-rest_acq-p2-s4-3.5mm",
  "SeriesNumber": 6,
  "ShimSetting": [4220, -7736, -7505, -35, -161, -106, 14, 79],
  "SliceThickness": 3.5,
  "SliceTiming": [1.485, 0, 0.99, 0.2475, 1.2375, 0.7425, 1.7325, 0.495, 1.485, 0, 0.99, 0.2475, 1.2375, 0.7425, 1.7325, 0.495, 1.485, 0, 0.99, 0.2475, 1.2375, 0.7425, 1.7325, 0.495, 1.485, 0, 0.99, 0.2475, 1.2375, 0.7425, 1.7325, 0.495],
  "SoftwareVersions": "syngo MR E11",
  "SpacingBetweenSlices": 3.99,
  "StationName": "AWP66112",
  "TaskName": "rest",
  "TotalReadoutTime": 0.0213301,
  "TxRefAmp": 222.989,
  "dcmmeta_affine": [
    [-2.9595694541931152, -0.475105881690979, -0.164094939827919, 140.55816650390625],
    [-0.49012646079063416, 2.8189072608947754, 1.1996116638183594, -109.7353744506836],
    [0.02691081166267395, -0.9099652767181396, 3.8018553256988525, -35.01059341430664],
    [0.0, 0.0, 0.0, 1.0]
],
  "dcmmeta_reorient_transform": [
    [0.0, -1.0, 0.0, 79.0],
    [1.0, 0.0, 0.0, 0.0],
    [0.0, 0.0, 1.0, 0.0],
    [0.0, 0.0, 0.0, 1.0]
],
  "dcmmeta_shape": [80, 80, 32, 200],
  "dcmmeta_slice_dim": 2,
  "dcmmeta_version": 0.6,
  "global": {
    "const": {
      "AccessionNumber": "qa",
      "AcquisitionMatrix": [80, 0, 0, 80],
      "AngioFlag": "N",
      "BitsAllocated": 16,
      "BitsStored": 12,
      "BodyPartExamined": "BRAIN",
      "Columns": 480,
      "EchoNumbers": 1,
      "EchoTime": 35.0,
      "EchoTrainLength": 39,
      "FlipAngle": 90.0,
      "HighBit": 11,
      "ImageOrientationPatient": [0.98652318020901, 0.16337548519068, 0.00897027028703, -0.158368625724, 0.93963572321833, 0.30332175332192],
      "ImagePositionPatient": [-599.91753782185, -774.76502058549, -294.27306278458],
      "ImageType": [
        "ORIGINAL",
        "PRIMARY",
        "M",
        "ND",
        "NORM",
        "MOSAIC"
],
      "ImagedNucleus": "1H",
      "ImagingFrequency": 123.259134,
      "InPlanePhaseEncodingDirection": "COL",
      "MRAcquisitionType": "2D",
      "MagneticFieldStrength": 3.0,
      "Manufacturer": "SIEMENS",
      "ManufacturerModelName": "Prisma",
      "Modality": "MR",
      "NumberOfAverages": 1.0,
      "NumberOfPhaseEncodingSteps": 79,
      "PercentPhaseFieldOfView": 100.0,
      "PercentSampling": 100.0,
      "PerformedProcedureStepStartTime": "094501.012000",
      "PhotometricInterpretation": "MONOCHROME2",
      "PixelBandwidth": 2315.0,
      "PixelRepresentation": 0,
      "PixelSpacing": [3.0, 3.0],
      "ProtocolName": "func-bold_task-rest_acq-p2-s4-3.5mm",
      "RepetitionTime": 2000.0,
      "Rows": 480,
      "SAR": 0.01764806589878,
      "SamplesPerPixel": 1,
      "ScanOptions": "FS",
      "ScanningSequence": "EP",
      "SequenceName": "*epfid2d1_80",
      "SequenceVariant": "SK",
      "SeriesDescription": "func-bold_task-rest_acq-p2-s4-3.5mm",
      "SeriesNumber": 6,
      "SeriesTime": "100058.669000",
      "SliceLocation": -72.13281407875,
      "SliceThickness": 3.5,
      "SmallestImagePixelValue": 0,
      "SoftwareVersions": "syngo MR E11",
      "SpacingBetweenSlices": 3.9899999659687,
      "SpecificCharacterSet": "ISO_IR 100",
      "StudyID": "8",
      "StudyTime": "094500.921000",
      "TransmitCoilName": "Body",
      "VariableFlipAngleFlag": "N",
      "WindowCenterWidthExplanation": "Algo1"
    },
    "slices": {}
  },
  "time": {
    "samples": {
      "AcquisitionNumber": [1, 2, 3, 4, 5, 6, 7, 8, 9, 10, 11, 12, 13, 14, 15, 16, 17, 18, 19, 20, 21, 22, 23, 24, 25, 26, 27, 28, 29, 30, 31, 32, 33, 34, 35, 36, 37, 38, 39, 40, 41, 42, 43, 44, 45, 46, 47, 48, 49, 50, 51, 52, 53, 54, 55, 56, 57, 58, 59, 60, 61, 62, 63, 64, 65, 66, 67, 68, 69, 70, 71, 72, 73, 74, 75, 76, 77, 78, 79, 80, 81, 82, 83, 84, 85, 86, 87, 88, 89, 90, 91, 92, 93, 94, 95, 96, 97, 98, 99, 100, 101, 102, 103, 104, 105, 106, 107, 108, 109, 110, 111, 112, 113, 114, 115, 116, 117, 118, 119, 120, 121, 122, 123, 124, 125, 126, 127, 128, 129, 130, 131, 132, 133, 134, 135, 136, 137, 138, 139, 140, 141, 142, 143, 144, 145, 146, 147, 148, 149, 150, 151, 152, 153, 154, 155, 156, 157, 158, 159, 160, 161, 162, 163, 164, 165, 166, 167, 168, 169, 170, 171, 172, 173, 174, 175, 176, 177, 178, 179, 180, 181, 182, 183, 184, 185, 186, 187, 188, 189, 190, 191, 192, 193, 194, 195, 196, 197, 198, 199, 200],
      "AcquisitionTime": ["100014.080000", "100016.080000", "100018.080000", "100020.080000", "100022.080000", "100024.080000", "100026.080000", "100028.080000", "100030.080000", "100032.080000", "100034.080000", "100036.080000", "100038.080000", "100040.080000", "100042.080000", "100044.080000", "100046.080000", "100048.080000", "100050.080000", "100052.080000", "100054.080000", "100056.080000", "100058.080000", "100100.080000", "100102.080000", "100104.080000", "100106.080000", "100108.080000", "100110.080000", "100112.080000", "100114.080000", "100116.080000", "100118.080000", "100120.080000", "100122.080000", "100124.080000", "100126.080000", "100128.080000", "100130.080000", "100132.080000", "100134.080000", "100136.080000", "100138.080000", "100140.080000", "100142.080000", "100144.080000", "100146.080000", "100148.080000", "100150.080000", "100152.080000", "100154.080000", "100156.080000", "100158.080000", "100200.080000", "100202.080000", "100204.080000", "100206.080000", "100208.080000", "100210.080000", "100212.080000", "100214.080000", "100216.080000", "100218.080000", "100220.080000", "100222.080000", "100224.080000", "100226.080000", "100228.080000", "100230.080000", "100232.080000", "100234.080000", "100236.080000", "100238.080000", "100240.080000", "100242.080000", "100244.080000", "100246.080000", "100248.080000", "100250.080000", "100252.080000", "100254.080000", "100256.080000", "100258.080000", "100300.080000", "100302.080000", "100304.080000", "100306.080000", "100308.080000", "100310.080000", "100312.080000", "100314.080000", "100316.080000", "100318.080000", "100320.080000", "100322.080000", "100324.080000", "100326.080000", "100328.080000", "100330.080000", "100332.080000", "100334.080000", "100336.080000", "100338.080000", "100340.080000", "100342.080000", "100344.080000", "100346.080000", "100348.080000", "100350.080000", "100352.080000", "100354.080000", "100356.080000", "100358.080000", "100400.080000", "100402.080000", "100404.080000", "100406.080000", "100408.080000", "100410.080000", "100412.080000", "100414.080000", "100416.080000", "100418.080000", "100420.080000", "100422.080000", "100424.080000", "100426.080000", "100428.080000", "100430.080000", "100432.080000", "100434.080000", "100436.080000", "100438.080000", "100440.080000", "100442.080000", "100444.080000", "100446.080000", "100448.080000", "100450.080000", "100452.080000", "100454.080000", "100456.080000", "100458.080000", "100500.080000", "100502.080000", "100504.080000", "100506.080000", "100508.080000", "100510.080000", "100512.080000", "100514.080000", "100516.080000", "100518.080000", "100520.080000", "100522.080000", "100524.080000", "100526.080000", "100528.080000", "100530.080000", "100532.080000", "100534.080000", "100536.080000", "100538.080000", "100540.080000", "100542.080000", "100544.080000", "100546.080000", "100548.080000", "100550.080000", "100552.080000", "100554.080000", "100556.080000", "100558.080000", "100600.080000", "100602.080000", "100604.080000", "100606.080000", "100608.080000", "100610.080000", "100612.080000", "100614.080000", "100616.080000", "100618.080000", "100620.080000", "100622.080000", "100624.080000", "100626.080000", "100628.080000", "100630.080000", "100632.080000", "100634.080000", "100636.080000", "100638.080000", "100640.080000", "100642.080000", "100644.080000", "100646.080000", "100648.080000", "100650.080000", "100652.080000"],
      "ContentTime": ["100058.672000", "100058.675000", "100058.677000", "100058.680000", "100058.682000", "100058.684000", "100058.687000", "100058.689000", "100058.691000", "100058.694000", "100058.696000", "100058.705000", "100058.711000", "100058.714000", "100058.716000", "100058.723000", "100058.725000", "100058.727000", "100058.730000", "100058.732000", "100058.734000", "100058.737000", "100138.666000", "100138.669000", "100138.671000", "100138.674000", "100138.676000", "100138.678000", "100138.681000", "100138.683000", "100138.685000", "100138.687000", "100138.690000", "100138.692000", "100138.694000", "100138.697000", "100138.699000", "100138.701000", "100138.710000", "100138.712000", "100138.715000", "100138.717000", "100218.666000", "100218.669000", "100218.671000", "100218.673000", "100218.676000", "100218.678000", "100218.680000", "100218.683000", "100218.685000", "100218.687000", "100218.690000", "100218.692000", "100218.694000", "100218.697000", "100218.699000", "100218.701000", "100218.704000", "100218.706000", "100218.708000", "100218.710000", "100258.667000", "100258.670000", "100258.672000", "100258.674000", "100258.677000", "100258.679000", "100258.681000", "100258.684000", "100258.686000", "100258.688000", "100258.691000", "100258.693000", "100258.695000", "100258.698000", "100258.700000", "100258.702000", "100258.704000", "100258.707000", "100258.709000", "100258.711000", "100338.666000", "100338.669000", "100338.671000", "100338.673000", "100338.676000", "100338.678000", "100338.681000", "100338.683000", "100338.685000", "100338.687000", "100338.690000", "100338.692000", "100338.694000", "100338.697000", "100338.699000", "100338.701000", "100338.704000", "100338.706000", "100338.708000", "100338.711000", "100418.666000", "100418.669000", "100418.671000", "100418.673000", "100418.676000", "100418.678000", "100418.680000", "100418.683000", "100418.685000", "100418.688000", "100418.690000", "100418.692000", "100418.695000", "100418.697000", "100418.699000", "100418.701000", "100418.704000", "100418.706000", "100418.708000", "100418.711000", "100458.666000", "100458.669000", "100458.671000", "100458.673000", "100458.676000", "100458.699000", "100458.701000", "100458.704000", "100458.706000", "100458.708000", "100458.710000", "100458.713000", "100458.715000", "100458.717000", "100458.720000", "100458.722000", "100458.724000", "100458.727000", "100458.729000", "100458.731000", "100538.667000", "100538.670000", "100538.672000", "100538.675000", "100538.677000", "100538.679000", "100538.682000", "100538.684000", "100538.686000", "100538.689000", "100538.691000", "100538.693000", "100538.696000", "100538.698000", "100538.700000", "100538.703000", "100538.705000", "100538.707000", "100538.710000", "100538.712000", "100618.666000", "100618.669000", "100618.671000", "100618.673000", "100618.676000", "100618.678000", "100618.680000", "100618.690000", "100618.692000", "100618.695000", "100618.697000", "100618.699000", "100618.702000", "100618.704000", "100618.706000", "100618.709000", "100618.711000", "100618.713000", "100618.716000", "100618.718000", "100653.335000", "100653.339000", "100653.341000", "100653.344000", "100653.346000", "100653.348000", "100653.351000", "100653.353000", "100653.355000", "100653.358000", "100653.360000", "100653.363000", "100653.365000", "100653.367000", "100653.370000", "100653.372000", "100653.374000", "100653.377000"],
      "InstanceCreationTime": ["100058.672000", "100058.675000", "100058.677000", "100058.680000", "100058.682000", "100058.684000", "100058.687000", "100058.689000", "100058.691000", "100058.694000", "100058.696000", "100058.705000", "100058.711000", "100058.714000", "100058.716000", "100058.723000", "100058.725000", "100058.727000", "100058.730000", "100058.732000", "100058.734000", "100058.737000", "100138.666000", "100138.669000", "100138.671000", "100138.674000", "100138.676000", "100138.678000", "100138.681000", "100138.683000", "100138.685000", "100138.687000", "100138.690000", "100138.692000", "100138.694000", "100138.697000", "100138.699000", "100138.701000", "100138.710000", "100138.712000", "100138.715000", "100138.717000", "100218.666000", "100218.669000", "100218.671000", "100218.673000", "100218.676000", "100218.678000", "100218.680000", "100218.683000", "100218.685000", "100218.687000", "100218.690000", "100218.692000", "100218.694000", "100218.697000", "100218.699000", "100218.701000", "100218.704000", "100218.706000", "100218.708000", "100218.710000", "100258.667000", "100258.670000", "100258.672000", "100258.674000", "100258.677000", "100258.679000", "100258.681000", "100258.684000", "100258.686000", "100258.688000", "100258.691000", "100258.693000", "100258.695000", "100258.698000", "100258.700000", "100258.702000", "100258.704000", "100258.707000", "100258.709000", "100258.711000", "100338.666000", "100338.669000", "100338.671000", "100338.673000", "100338.676000", "100338.678000", "100338.681000", "100338.683000", "100338.685000", "100338.687000", "100338.690000", "100338.692000", "100338.694000", "100338.697000", "100338.699000", "100338.701000", "100338.704000", "100338.706000", "100338.708000", "100338.711000", "100418.666000", "100418.669000", "100418.671000", "100418.673000", "100418.676000", "100418.678000", "100418.680000", "100418.683000", "100418.685000", "100418.688000", "100418.690000", "100418.692000", "100418.695000", "100418.697000", "100418.699000", "100418.701000", "100418.704000", "100418.706000", "100418.708000", "100418.711000", "100458.666000", "100458.669000", "100458.671000", "100458.673000", "100458.676000", "100458.699000", "100458.701000", "100458.704000", "100458.706000", "100458.708000", "100458.710000", "100458.713000", "100458.715000", "100458.717000", "100458.720000", "100458.722000", "100458.724000", "100458.727000", "100458.729000", "100458.731000", "100538.667000", "100538.670000", "100538.672000", "100538.675000", "100538.677000", "100538.679000", "100538.682000", "100538.684000", "100538.686000", "100538.689000", "100538.691000", "100538.693000", "100538.696000", "100538.698000", "100538.700000", "100538.703000", "100538.705000", "100538.707000", "100538.710000", "100538.712000", "100618.666000", "100618.669000", "100618.671000", "100618.673000", "100618.676000", "100618.678000", "100618.680000", "100618.690000", "100618.692000", "100618.695000", "100618.697000", "100618.699000", "100618.702000", "100618.704000", "100618.706000", "100618.709000", "100618.711000", "100618.713000", "100618.716000", "100618.718000", "100653.335000", "100653.339000", "100653.341000", "100653.344000", "100653.346000", "100653.348000", "100653.351000", "100653.353000", "100653.355000", "100653.358000", "100653.360000", "100653.363000", "100653.365000", "100653.367000", "100653.370000", "100653.372000", "100653.374000", "100653.377000"],
      "InstanceNumber": [1, 2, 3, 4, 5, 6, 7, 8, 9, 10, 11, 12, 13, 14, 15, 16, 17, 18, 19, 20, 21, 22, 23, 24, 25, 26, 27, 28, 29, 30, 31, 32, 33, 34, 35, 36, 37, 38, 39, 40, 41, 42, 43, 44, 45, 46, 47, 48, 49, 50, 51, 52, 53, 54, 55, 56, 57, 58, 59, 60, 61, 62, 63, 64, 65, 66, 67, 68, 69, 70, 71, 72, 73, 74, 75, 76, 77, 78, 79, 80, 81, 82, 83, 84, 85, 86, 87, 88, 89, 90, 91, 92, 93, 94, 95, 96, 97, 98, 99, 100, 101, 102, 103, 104, 105, 106, 107, 108, 109, 110, 111, 112, 113, 114, 115, 116, 117, 118, 119, 120, 121, 122, 123, 124, 125, 126, 127, 128, 129, 130, 131, 132, 133, 134, 135, 136, 137, 138, 139, 140, 141, 142, 143, 144, 145, 146, 147, 148, 149, 150, 151, 152, 153, 154, 155, 156, 157, 158, 159, 160, 161, 162, 163, 164, 165, 166, 167, 168, 169, 170, 171, 172, 173, 174, 175, 176, 177, 178, 179, 180, 181, 182, 183, 184, 185, 186, 187, 188, 189, 190, 191, 192, 193, 194, 195, 196, 197, 198, 199, 200],
      "LargestImagePixelValue": [2342, 2344, 2343, 2342, 2342, 2342, 2346, 2342, 2341, 2344, 2346, 2342, 2347, 2343, 2341, 2344, 2343, 2339, 2342, 2338, 2339, 2344, 2342, 2340, 2335, 2342, 2342, 2345, 2341, 2346, 2342, 2338, 2342, 2346, 2342, 2347, 2341, 2338, 2340, 2343, 2335, 2340, 2338, 2344, 2343, 2345, 2346, 2340, 2342, 2339, 2340, 2336, 2342, 2343, 2341, 2343, 2340, 2345, 2341, 2341, 2345, 2340, 2339, 2341, 2343, 2342, 2341, 2338, 2338, 2338, 2333, 2338, 2344, 2339, 2340, 2338, 2341, 2341, 2340, 2340, 2340, 2345, 2338, 2340, 2337, 2338, 2337, 2339, 2336, 2342, 2342, 2340, 2344, 2345, 2346, 2342, 2340, 2342, 2338, 2336, 2344, 2339, 2342, 2338, 2339, 2343, 2340, 2339, 2337, 2343, 2343, 2338, 2341, 2336, 2339, 2342, 2340, 2340, 2339, 2336, 2336, 2338, 2339, 2339, 2337, 2339, 2344, 2344, 2338, 2343, 2340, 2340, 2344, 2340, 2334, 2337, 2336, 2339, 2343, 2342, 2343, 2340, 2342, 2344, 2342, 2342, 2341, 2342, 2339, 2341, 2342, 2338, 2338, 2337, 2340, 2336, 2341, 2342, 2342, 2344, 2341, 2341, 2334, 2338, 2337, 2339, 2337, 2335, 2337, 2339, 2340, 2337, 2340, 2338, 2344, 2342, 2343, 2337, 2336, 2343, 2342, 2337, 2336, 2340, 2339, 2334, 2338, 2339, 2338, 2342, 2334, 2340, 2343, 2337, 2340, 2337, 2338, 2339, 2337, 2338],
      "WindowCenter": [965.0, 965.0, 965.0, 966.0, 963.0, 963.0, 965.0, 965.0, 965.0, 965.0, 965.0, 965.0, 964.0, 966.0, 963.0, 965.0, 965.0, 963.0, 965.0, 963.0, 966.0, 965.0, 965.0, 965.0, 965.0, 965.0, 965.0, 965.0, 966.0, 965.0, 965.0, 965.0, 963.0, 963.0, 965.0, 965.0, 965.0, 965.0, 965.0, 965.0, 965.0, 965.0, 963.0, 965.0, 965.0, 965.0, 965.0, 965.0, 963.0, 966.0, 966.0, 965.0, 965.0, 966.0, 965.0, 965.0, 965.0, 965.0, 965.0, 965.0, 965.0, 965.0, 966.0, 965.0, 963.0, 963.0, 966.0, 964.0, 966.0, 963.0, 965.0, 965.0, 965.0, 965.0, 965.0, 964.0, 966.0, 965.0, 965.0, 965.0, 965.0, 966.0, 965.0, 965.0, 965.0, 965.0, 965.0, 965.0, 965.0, 963.0, 963.0, 965.0, 966.0, 965.0, 965.0, 965.0, 965.0, 963.0, 966.0, 966.0, 965.0, 965.0, 965.0, 966.0, 964.0, 965.0, 965.0, 965.0, 963.0, 965.0, 965.0, 965.0, 963.0, 966.0, 965.0, 965.0, 965.0, 965.0, 965.0, 965.0, 965.0, 965.0, 963.0, 965.0, 965.0, 965.0, 965.0, 965.0, 965.0, 965.0, 965.0, 965.0, 965.0, 965.0, 965.0, 965.0, 966.0, 965.0, 963.0, 965.0, 965.0, 963.0, 966.0, 963.0, 965.0, 965.0, 965.0, 965.0, 965.0, 965.0, 965.0, 966.0, 965.0, 963.0, 965.0, 965.0, 966.0, 965.0, 965.0, 966.0, 965.0, 965.0, 966.0, 965.0, 965.0, 965.0, 966.0, 965.0, 964.0, 965.0, 966.0, 966.0, 965.0, 965.0, 965.0, 965.0, 965.0, 965.0, 965.0, 965.0, 963.0, 965.0, 965.0, 965.0, 964.0, 966.0, 966.0, 965.0, 966.0, 966.0, 963.0, 965.0, 965.0, 965.0, 965.0, 965.0, 966.0, 965.0, 965.0, 965.0],
      "WindowWidth": [2284.0, 2284.0, 2283.0, 2284.0, 2282.0, 2282.0, 2284.0, 2284.0, 2283.0, 2284.0, 2283.0, 2284.0, 2283.0, 2284.0, 2282.0, 2284.0, 2283.0, 2282.0, 2284.0, 2282.0, 2285.0, 2284.0, 2283.0, 2284.0, 2284.0, 2283.0, 2284.0, 2284.0, 2285.0, 2283.0, 2284.0, 2284.0, 2282.0, 2282.0, 2284.0, 2284.0, 2284.0, 2284.0, 2284.0, 2284.0, 2284.0, 2284.0, 2281.0, 2284.0, 2284.0, 2284.0, 2284.0, 2284.0, 2282.0, 2284.0, 2285.0, 2284.0, 2284.0, 2285.0, 2284.0, 2284.0, 2284.0, 2284.0, 2283.0, 2284.0, 2284.0, 2284.0, 2285.0, 2284.0, 2282.0, 2282.0, 2285.0, 2283.0, 2285.0, 2282.0, 2284.0, 2284.0, 2284.0, 2284.0, 2284.0, 2283.0, 2285.0, 2284.0, 2284.0, 2284.0, 2284.0, 2285.0, 2284.0, 2284.0, 2284.0, 2284.0, 2284.0, 2284.0, 2284.0, 2282.0, 2282.0, 2284.0, 2285.0, 2284.0, 2284.0, 2284.0, 2284.0, 2282.0, 2285.0, 2285.0, 2284.0, 2284.0, 2284.0, 2285.0, 2283.0, 2284.0, 2284.0, 2284.0, 2282.0, 2284.0, 2284.0, 2284.0, 2282.0, 2285.0, 2284.0, 2284.0, 2284.0, 2284.0, 2284.0, 2284.0, 2284.0, 2284.0, 2282.0, 2284.0, 2284.0, 2284.0, 2284.0, 2284.0, 2284.0, 2284.0, 2284.0, 2284.0, 2284.0, 2284.0, 2284.0, 2284.0, 2285.0, 2284.0, 2282.0, 2284.0, 2284.0, 2282.0, 2285.0, 2282.0, 2284.0, 2284.0, 2284.0, 2284.0, 2284.0, 2284.0, 2284.0, 2285.0, 2284.0, 2282.0, 2284.0, 2284.0, 2285.0, 2284.0, 2284.0, 2285.0, 2284.0, 2284.0, 2285.0, 2284.0, 2284.0, 2284.0, 2285.0, 2284.0, 2282.0, 2284.0, 2285.0, 2285.0, 2284.0, 2284.0, 2284.0, 2284.0, 2284.0, 2284.0, 2284.0, 2284.0, 2282.0, 2284.0, 2285.0, 2284.0, 2283.0, 2285.0, 2285.0, 2284.0, 2285.0, 2285.0, 2282.0, 2284.0, 2284.0, 2284.0, 2284.0, 2284.0, 2285.0, 2284.0, 2284.0, 2284.0]
    },
    "slices": {}
  }
}