{
  "AcquisitionMatrixPE": 80,
  "AcquisitionNumber": 1,
  "AcquisitionTime": "09:53:19.732500",
  "BandwidthPerPixelPhaseEncode": 48.077,
  "BaseResolution": 80,
  "BodyPartExamined": "BRAIN",
  "CoilCombinationMethod": "Sum of Squares",
  "ConsistencyInfo": "N4_VE11E_LATEST_20181129",
  "ConversionSoftware": "dcm2niix",
  "ConversionSoftwareVersion": "v1.0.20220720",
  "DerivedVendorReportedEchoSpacing": 0.000519999,
  "DeviceSerialNumber": "66112",
  "DwellTime": 2.7e-06,
  "EchoTime": 0.035,
  "EchoTrainLength": 39,
  "EffectiveEchoSpacing": 0.00026,
  "FlipAngle": 90,
  "HeudiconvVersion": "0.13.1",
  "ImageOrientationPatientDICOM": [0.986523, 0.163375, 0.00897027, -0.158369, 0.939636, 0.303322],
  "ImageOrientationText": "Tra>Cor(17.5)>Sag(-2.4)",
  "ImageType": [
    "ORIGINAL",
    "PRIMARY",
    "M",
    "ND",
    "NORM",
    "MOSAIC"
],
  "ImagingFrequency": 123.259,
  "InPlanePhaseEncodingDirectionDICOM": "COL",
  "InstitutionAddress": "Maynard 3,Hanover,NH,US,03755",
  "InstitutionName": "Dartmouth College - PBS",
  "InstitutionalDepartmentName": "Department",
  "MRAcquisitionType": "2D",
  "MagneticFieldStrength": 3,
  "Manufacturer": "Siemens",
  "ManufacturersModelName": "Prisma",
  "MatrixCoilMode": "GRAPPA",
  "Modality": "MR",
  "NonlinearGradientCorrection": false,
  "ParallelReductionFactorInPlane": 2,
  "PartialFourier": 1,
  "PatientPosition": "HFS",
  "PercentPhaseFOV": 100,
  "PercentSampling": 100,
  "PhaseEncodingDirection": "j-",
  "PhaseEncodingSteps": 79,
  "PhaseResolution": 1,
  "PixelBandwidth": 2315,
  "ProcedureStepDescription": "dbic^QA",
  "ProtocolName": "func-bold_task-rest_acq-p2",
  "PulseSequenceDetails": "%SiemensSeq%\\ep2d_bold",
  "ReceiveCoilActiveElements": "HEA;HEP",
  "ReceiveCoilName": "Head_32",
  "ReconMatrixPE": 80,
  "RefLinesPE": 24,
  "RepetitionTime": 2,
  "SAR": 0.0469297,
  "ScanOptions": "FS",
  "ScanningSequence": "EP",
  "SequenceName": "*epfid2d1_80",
  "SequenceVariant": "SK",
  "SeriesDescription": "func-bold_task-rest_acq-p2",
  "SeriesNumber": 5,
  "ShimSetting": [4220, -7735, -7506, -35, -164, -106, 13, 80],
  "SliceThickness": 3.5,
  "SliceTiming": [0.99, 0, 1.055, 0.0675, 1.1225, 0.1325, 1.1875, 0.1975, 1.255, 0.265, 1.32, 0.33, 1.385, 0.3975, 1.4525, 0.4625, 1.5175, 0.5275, 1.585, 0.595, 1.65, 0.66, 1.715, 0.7275, 1.7825, 0.7925, 1.8475, 0.8575, 1.915, 0.925],
  "SoftwareVersions": "syngo MR E11",
  "SpacingBetweenSlices": 3.99,
  "StationName": "AWP66112",
  "TaskName": "rest",
  "TotalReadoutTime": 0.02054,
  "TxRefAmp": 222.989,
  "dcmmeta_affine": [
    [-2.9595694541931152, -0.475105881690979, -0.164094939827919, 140.39407348632812],
    [-0.49012646079063416, 2.8189072608947754, 1.1996116638183594, -108.53575897216797],
    [0.02691081166267395, -0.9099652767181396, 3.8018553256988525, -31.208736419677734],
    [0.0, 0.0, 0.0, 1.0]
],
  "dcmmeta_reorient_transform": [
    [0.0, -1.0, 0.0, 79.0],
    [1.0, 0.0, 0.0, 0.0],
    [0.0, 0.0, 1.0, 0.0],
    [0.0, 0.0, 0.0, 1.0]
],
  "dcmmeta_shape": [80, 80, 30, 200],
  "dcmmeta_slice_dim": 2,
  "dcmmeta_version": 0.6,
  "global": {
    "const": {
      "AccessionNumber": "qa",
      "AcquisitionMatrix": [80, 0, 0, 80],
      "AngioFlag": "N",
      "BitsAllocated": 16,
      "BitsStored": 12,
      "BodyPartExamined": "BRAIN",
      "Columns": 480,
      "EchoNumbers": 1,
      "EchoTime": 35.0,
      "EchoTrainLength": 39,
      "FlipAngle": 90.0,
      "HighBit": 11,
      "ImageOrientationPatient": [0.98652318020901, 0.16337548519068, 0.00897027028703, -0.158368625724, 0.93963572321833, 0.30332175332192],
      "ImagePositionPatient": [-599.75344289692, -775.96463224931, -290.47120578995],
      "ImageType": [
        "ORIGINAL",
        "PRIMARY",
        "M",
        "ND",
        "NORM",
        "MOSAIC"
],
      "ImagedNucleus": "1H",
      "ImagingFrequency": 123.259134,
      "InPlanePhaseEncodingDirection": "COL",
      "MRAcquisitionType": "2D",
      "MagneticFieldStrength": 3.0,
      "Manufacturer": "SIEMENS",
      "ManufacturerModelName": "Prisma",
      "Modality": "MR",
      "NumberOfAverages": 1.0,
      "NumberOfPhaseEncodingSteps": 79,
      "PercentPhaseFieldOfView": 100.0,
      "PercentSampling": 100.0,
      "PerformedProcedureStepStartTime": "094501.012000",
      "PhotometricInterpretation": "MONOCHROME2",
      "PixelBandwidth": 2315.0,
      "PixelRepresentation": 0,
      "PixelSpacing": [3.0, 3.0],
      "ProtocolName": "func-bold_task-rest_acq-p2",
      "RepetitionTime": 2000.0,
      "Rows": 480,
      "SAR": 0.04692969225398,
      "SamplesPerPixel": 1,
      "ScanOptions": "FS",
      "ScanningSequence": "EP",
      "SequenceName": "*epfid2d1_80",
      "SequenceVariant": "SK",
      "SeriesDescription": "func-bold_task-rest_acq-p2",
      "SeriesNumber": 5,
      "SeriesTime": "095418.583000",
      "SliceLocation": -68.142812588028,
      "SliceThickness": 3.5,
      "SmallestImagePixelValue": 0,
      "SoftwareVersions": "syngo MR E11",
      "SpacingBetweenSlices": 3.9899998608133,
      "SpecificCharacterSet": "ISO_IR 100",
      "StudyID": "8",
      "StudyTime": "094500.921000",
      "TransmitCoilName": "Body",
      "VariableFlipAngleFlag": "N",
      "WindowCenterWidthExplanation": "Algo1"
    },
    "slices": {}
  },
  "time": {
    "samples": {
      "AcquisitionNumber": [1, 2, 3, 4, 5, 6, 7, 8, 9, 10, 11, 12, 13, 14, 15, 16, 17, 18, 19, 20, 21, 22, 23, 24, 25, 26, 27, 28, 29, 30, 31, 32, 33, 34, 35, 36, 37, 38, 39, 40, 41, 42, 43, 44, 45, 46, 47, 48, 49, 50, 51, 52, 53, 54, 55, 56, 57, 58, 59, 60, 61, 62, 63, 64, 65, 66, 67, 68, 69, 70, 71, 72, 73, 74, 75, 76, 77, 78, 79, 80, 81, 82, 83, 84, 85, 86, 87, 88, 89, 90, 91, 92, 93, 94, 95, 96, 97, 98, 99, 100, 101, 102, 103, 104, 105, 106, 107, 108, 109, 110, 111, 112, 113, 114, 115, 116, 117, 118, 119, 120, 121, 122, 123, 124, 125, 126, 127, 128, 129, 130, 131, 132, 133, 134, 135, 136, 137, 138, 139, 140, 141, 142, 143, 144, 145, 146, 147, 148, 149, 150, 151, 152, 153, 154, 155, 156, 157, 158, 159, 160, 161, 162, 163, 164, 165, 166, 167, 168, 169, 170, 171, 172, 173, 174, 175, 176, 177, 178, 179, 180, 181, 182, 183, 184, 185, 186, 187, 188, 189, 190, 191, 192, 193, 194, 195, 196, 197, 198, 199, 200],
      "AcquisitionTime": ["095319.732500", "095321.732500", "095323.732500", "095325.732500", "095327.732500", "095329.732500", "095331.732500", "095333.732500", "095335.732500", "095337.732500", "095339.732500", "095341.732500", "095343.732500", "095345.732500", "095347.732500", "095349.732500", "095351.732500", "095353.732500", "095355.732500", "095357.732500", "095359.732500", "095401.732500", "095403.732500", "095405.732500", "095407.732500", "095409.732500", "095411.732500", "095413.732500", "095415.732500", "095417.732500", "095419.732500", "095421.732500", "095423.732500", "095425.732500", "095427.732500", "095429.732500", "095431.732500", "095433.732500", "095435.732500", "095437.732500", "095439.732500", "095441.732500", "095443.732500", "095445.732500", "095447.732500", "095449.732500", "095451.732500", "095453.732500", "095455.732500", "095457.732500", "095459.732500", "095501.732500", "095503.732500", "095505.732500", "095507.732500", "095509.732500", "095511.732500", "095513.732500", "095515.732500", "095517.732500", "095519.732500", "095521.732500", "095523.732500", "095525.732500", "095527.732500", "095529.732500", "095531.732500", "095533.732500", "095535.732500", "095537.732500", "095539.732500", "095541.732500", "095543.732500", "095545.732500", "095547.732500", "095549.732500", "095551.732500", "095553.732500", "095555.732500", "095557.732500", "095559.732500", "095601.732500", "095603.732500", "095605.732500", "095607.732500", "095609.732500", "095611.732500", "095613.732500", "095615.732500", "095617.732500", "095619.732500", "095621.732500", "095623.732500", "095625.732500", "095627.732500", "095629.732500", "095631.732500", "095633.732500", "095635.732500", "095637.732500", "095639.732500", "095641.732500", "095643.732500", "095645.732500", "095647.732500", "095649.732500", "095651.732500", "095653.732500", "095655.732500", "095657.732500", "095659.732500", "095701.732500", "095703.732500", "095705.732500", "095707.732500", "095709.732500", "095711.732500", "095713.732500", "095715.732500", "095717.732500", "095719.732500", "095721.732500", "095723.732500", "095725.732500", "095727.732500", "095729.732500", "095731.732500", "095733.732500", "095735.732500", "095737.732500", "095739.732500", "095741.732500", "095743.732500", "095745.732500", "095747.732500", "095749.732500", "095751.732500", "095753.732500", "095755.732500", "095757.732500", "095759.732500", "095801.732500", "095803.732500", "095805.732500", "095807.732500", "095809.732500", "095811.732500", "095813.732500", "095815.732500", "095817.732500", "095819.732500", "095821.732500", "095823.732500", "095825.732500", "095827.732500", "095829.732500", "095831.732500", "095833.732500", "095835.732500", "095837.732500", "095839.732500", "095841.732500", "095843.732500", "095845.732500", "095847.732500", "095849.732500", "095851.732500", "095853.732500", "095855.732500", "095857.732500", "095859.732500", "095901.732500", "095903.732500", "095905.732500", "095907.732500", "095909.732500", "095911.732500", "095913.732500", "095915.732500", "095917.732500", "095919.732500", "095921.732500", "095923.732500", "095925.732500", "095927.732500", "095929.732500", "095931.732500", "095933.732500", "095935.732500", "095937.732500", "095939.732500", "095941.732500", "095943.732500", "095945.732500", "095947.732500", "095949.732500", "095951.732500", "095953.732500", "095955.732500", "095957.732500"],
      "ContentTime": ["095418.587000", "095418.642000", "095418.657000", "095418.660000", "095418.662000", "095418.664000", "095418.667000", "095418.669000", "095418.671000", "095418.674000", "095418.680000", "095418.683000", "095418.687000", "095418.690000", "095418.692000", "095418.694000", "095418.697000", "095418.699000", "095418.706000", "095418.708000", "095418.710000", "095418.713000", "095418.715000", "095418.717000", "095418.720000", "095418.722000", "095418.724000", "095418.727000", "095418.729000", "095458.581000", "095458.584000", "095458.586000", "095458.589000", "095458.591000", "095458.593000", "095458.596000", "095458.598000", "095458.600000", "095458.602000", "095458.605000", "095458.607000", "095458.609000", "095458.612000", "095458.614000", "095458.616000", "095458.618000", "095458.621000", "095458.623000", "095458.625000", "095538.597000", "095538.599000", "095538.601000", "095538.604000", "095538.606000", "095538.608000", "095538.611000", "095538.613000", "095538.615000", "095538.617000", "095538.620000", "095538.622000", "095538.624000", "095538.631000", "095538.634000", "095538.636000", "095538.638000", "095538.641000", "095538.643000", "095538.645000", "095618.582000", "095618.584000", "095618.587000", "095618.589000", "095618.591000", "095618.594000", "095618.596000", "095618.598000", "095618.601000", "095618.603000", "095618.605000", "095618.607000", "095618.610000", "095618.612000", "095618.614000", "095618.617000", "095618.619000", "095618.621000", "095618.624000", "095618.626000", "095658.581000", "095658.584000", "095658.586000", "095658.589000", "095658.591000", "095658.593000", "095658.596000", "095658.598000", "095658.600000", "095658.602000", "095658.605000", "095658.607000", "095658.609000", "095658.612000", "095658.614000", "095658.616000", "095658.619000", "095658.629000", "095658.631000", "095658.634000", "095738.581000", "095738.584000", "095738.586000", "095738.589000", "095738.591000", "095738.593000", "095738.607000", "095738.609000", "095738.611000", "095738.614000", "095738.616000", "095738.618000", "095738.621000", "095738.623000", "095738.625000", "095738.627000", "095738.630000", "095738.632000", "095738.634000", "095738.637000", "095818.582000", "095818.585000", "095818.587000", "095818.590000", "095818.592000", "095818.594000", "095818.596000", "095818.599000", "095818.601000", "095818.603000", "095818.606000", "095818.608000", "095818.610000", "095818.612000", "095818.615000", "095818.617000", "095818.619000", "095818.621000", "095818.624000", "095818.626000", "095858.581000", "095858.584000", "095858.586000", "095858.589000", "095858.591000", "095858.593000", "095858.596000", "095858.598000", "095858.600000", "095858.602000", "095858.605000", "095858.607000", "095858.609000", "095858.612000", "095858.614000", "095858.616000", "095858.619000", "095858.621000", "095858.623000", "095858.625000", "095938.581000", "095938.584000", "095938.586000", "095938.588000", "095938.591000", "095938.593000", "095938.595000", "095938.598000", "095938.600000", "095938.602000", "095938.604000", "095938.607000", "095938.609000", "095938.611000", "095938.614000", "095938.621000", "095938.623000", "095938.625000", "095938.627000", "095938.630000", "095959.485000", "095959.487000", "095959.490000", "095959.492000", "095959.495000", "095959.497000", "095959.499000", "095959.502000", "095959.504000", "095959.506000", "095959.509000"],
      "InstanceCreationTime": ["095418.587000", "095418.642000", "095418.657000", "095418.660000", "095418.662000", "095418.664000", "095418.667000", "095418.669000", "095418.671000", "095418.674000", "095418.680000", "095418.683000", "095418.687000", "095418.690000", "095418.692000", "095418.694000", "095418.697000", "095418.699000", "095418.706000", "095418.708000", "095418.710000", "095418.713000", "095418.715000", "095418.717000", "095418.720000", "095418.722000", "095418.724000", "095418.727000", "095418.729000", "095458.581000", "095458.584000", "095458.586000", "095458.589000", "095458.591000", "095458.593000", "095458.596000", "095458.598000", "095458.600000", "095458.602000", "095458.605000", "095458.607000", "095458.609000", "095458.612000", "095458.614000", "095458.616000", "095458.618000", "095458.621000", "095458.623000", "095458.625000", "095538.597000", "095538.599000", "095538.601000", "095538.604000", "095538.606000", "095538.608000", "095538.611000", "095538.613000", "095538.615000", "095538.617000", "095538.620000", "095538.622000", "095538.624000", "095538.631000", "095538.634000", "095538.636000", "095538.638000", "095538.641000", "095538.643000", "095538.645000", "095618.582000", "095618.584000", "095618.587000", "095618.589000", "095618.591000", "095618.594000", "095618.596000", "095618.598000", "095618.601000", "095618.603000", "095618.605000", "095618.607000", "095618.610000", "095618.612000", "095618.614000", "095618.617000", "095618.619000", "095618.621000", "095618.624000", "095618.626000", "095658.581000", "095658.584000", "095658.586000", "095658.589000", "095658.591000", "095658.593000", "095658.596000", "095658.598000", "095658.600000", "095658.602000", "095658.605000", "095658.607000", "095658.609000", "095658.612000", "095658.614000", "095658.616000", "095658.619000", "095658.629000", "095658.631000", "095658.634000", "095738.581000", "095738.584000", "095738.586000", "095738.589000", "095738.591000", "095738.593000", "095738.607000", "095738.609000", "095738.611000", "095738.614000", "095738.616000", "095738.618000", "095738.621000", "095738.623000", "095738.625000", "095738.627000", "095738.630000", "095738.632000", "095738.634000", "095738.637000", "095818.582000", "095818.585000", "095818.587000", "095818.590000", "095818.592000", "095818.594000", "095818.596000", "095818.599000", "095818.601000", "095818.603000", "095818.606000", "095818.608000", "095818.610000", "095818.612000", "095818.615000", "095818.617000", "095818.619000", "095818.621000", "095818.624000", "095818.626000", "095858.581000", "095858.584000", "095858.586000", "095858.589000", "095858.591000", "095858.593000", "095858.596000", "095858.598000", "095858.600000", "095858.602000", "095858.605000", "095858.607000", "095858.609000", "095858.612000", "095858.614000", "095858.616000", "095858.619000", "095858.621000", "095858.623000", "095858.625000", "095938.581000", "095938.584000", "095938.586000", "095938.588000", "095938.591000", "095938.593000", "095938.595000", "095938.598000", "095938.600000", "095938.602000", "095938.604000", "095938.607000", "095938.609000", "095938.611000", "095938.614000", "095938.621000", "095938.623000", "095938.625000", "095938.627000", "095938.630000", "095959.485000", "095959.487000", "095959.490000", "095959.492000", "095959.495000", "095959.497000", "095959.499000", "095959.502000", "095959.504000", "095959.506000", "095959.509000"],
      "InstanceNumber": [1, 2, 3, 4, 5, 6, 7, 8, 9, 10, 11, 12, 13, 14, 15, 16, 17, 18, 19, 20, 21, 22, 23, 24, 25, 26, 27, 28, 29, 30, 31, 32, 33, 34, 35, 36, 37, 38, 39, 40, 41, 42, 43, 44, 45, 46, 47, 48, 49, 50, 51, 52, 53, 54, 55, 56, 57, 58, 59, 60, 61, 62, 63, 64, 65, 66, 67, 68, 69, 70, 71, 72, 73, 74, 75, 76, 77, 78, 79, 80, 81, 82, 83, 84, 85, 86, 87, 88, 89, 90, 91, 92, 93, 94, 95, 96, 97, 98, 99, 100, 101, 102, 103, 104, 105, 106, 107, 108, 109, 110, 111, 112, 113, 114, 115, 116, 117, 118, 119, 120, 121, 122, 123, 124, 125, 126, 127, 128, 129, 130, 131, 132, 133, 134, 135, 136, 137, 138, 139, 140, 141, 142, 143, 144, 145, 146, 147, 148, 149, 150, 151, 152, 153, 154, 155, 156, 157, 158, 159, 160, 161, 162, 163, 164, 165, 166, 167, 168, 169, 170, 171, 172, 173, 174, 175, 176, 177, 178, 179, 180, 181, 182, 183, 184, 185, 186, 187, 188, 189, 190, 191, 192, 193, 194, 195, 196, 197, 198, 199, 200],
      "LargestImagePixelValue": [2322, 2319, 2327, 2323, 2320, 2327, 2323, 2324, 2326, 2317, 2326, 2327, 2325, 2321, 2327, 2335, 2327, 2322, 2332, 2325, 2320, 2332, 2325, 2315, 2325, 2326, 2329, 2320, 2326, 2320, 2320, 2324, 2325, 2317, 2316, 2322, 2320, 2323, 2323, 2325, 2329, 2319, 2318, 2326, 2315, 2319, 2315, 2335, 2318, 2324, 2325, 2323, 2318, 2320, 2323, 2330, 2326, 2327, 2320, 2324, 2324, 2314, 2319, 2320, 2324, 2325, 2323, 2332, 2321, 2325, 2315, 2318, 2319, 2318, 2321, 2314, 2322, 2321, 2324, 2316, 2321, 2314, 2320, 2321, 2321, 2321, 2323, 2318, 2316, 2322, 2321, 2314, 2313, 2322, 2319, 2317, 2317, 2317, 2318, 2318, 2327, 2320, 2316, 2326, 2322, 2319, 2323, 2318, 2321, 2317, 2314, 2317, 2321, 2315, 2314, 2322, 2320, 2311, 2315, 2318, 2316, 2322, 2316, 2313, 2325, 2319, 2320, 2327, 2321, 2326, 2319, 2318, 2329, 2323, 2330, 2316, 2323, 2318, 2318, 2316, 2313, 2315, 2316, 2321, 2322, 2325, 2313, 2305, 2322, 2319, 2320, 2319, 2317, 2318, 2312, 2317, 2323, 2320, 2314, 2318, 2327, 2324, 2314, 2313, 2317, 2321, 2322, 2324, 2316, 2314, 2328, 2324, 2323, 2316, 2320, 2317, 2312, 2325, 2314, 2310, 2316, 2318, 2322, 2318, 2307, 2316, 2327, 2315, 2308, 2311, 2311, 2317, 2317, 2314, 2317, 2317, 2322, 2319, 2313, 2320],
      "WindowCenter": [1034.0, 1034.0, 1034.0, 1034.0, 1034.0, 1034.0, 1034.0, 1034.0, 1034.0, 1034.0, 1034.0, 1034.0, 1034.0, 1034.0, 1033.0, 1034.0, 1035.0, 1034.0, 1034.0, 1034.0, 1034.0, 1034.0, 1034.0, 1033.0, 1034.0, 1034.0, 1034.0, 1034.0, 1034.0, 1034.0, 1033.0, 1034.0, 1034.0, 1034.0, 1034.0, 1033.0, 1033.0, 1033.0, 1033.0, 1033.0, 1033.0, 1034.0, 1033.0, 1033.0, 1033.0, 1033.0, 1033.0, 1033.0, 1034.0, 1033.0, 1033.0, 1033.0, 1033.0, 1033.0, 1033.0, 1033.0, 1033.0, 1034.0, 1033.0, 1033.0, 1033.0, 1033.0, 1033.0, 1033.0, 1034.0, 1033.0, 1033.0, 1033.0, 1033.0, 1033.0, 1033.0, 1033.0, 1033.0, 1034.0, 1033.0, 1033.0, 1033.0, 1033.0, 1033.0, 1033.0, 1034.0, 1033.0, 1033.0, 1033.0, 1033.0, 1033.0, 1033.0, 1033.0, 1033.0, 1033.0, 1033.0, 1033.0, 1033.0, 1033.0, 1034.0, 1033.0, 1033.0, 1033.0, 1033.0, 1033.0, 1033.0, 1033.0, 1033.0, 1033.0, 1033.0, 1033.0, 1034.0, 1033.0, 1034.0, 1033.0, 1033.0, 1034.0, 1033.0, 1033.0, 1033.0, 1033.0, 1033.0, 1033.0, 1033.0, 1033.0, 1033.0, 1033.0, 1033.0, 1033.0, 1033.0, 1033.0, 1033.0, 1033.0, 1033.0, 1033.0, 1033.0, 1033.0, 1033.0, 1033.0, 1033.0, 1033.0, 1033.0, 1033.0, 1033.0, 1033.0, 1033.0, 1033.0, 1033.0, 1033.0, 1033.0, 1033.0, 1033.0, 1033.0, 1033.0, 1033.0, 1033.0, 1033.0, 1034.0, 1033.0, 1033.0, 1033.0, 1033.0, 1033.0, 1033.0, 1034.0, 1033.0, 1033.0, 1033.0, 1033.0, 1033.0, 1033.0, 1033.0, 1033.0, 1033.0, 1033.0, 1033.0, 1033.0, 1033.0, 1033.0, 1033.0, 1033.0, 1033.0, 1033.0, 1033.0, 1033.0, 1034.0, 1033.0, 1033.0, 1033.0, 1033.0, 1033.0, 1033.0, 1033.0, 1033.0, 1033.0, 1033.0, 1033.0, 1033.0, 1033.0, 1033.0, 1033.0, 1033.0, 1033.0, 1033.0, 1033.0],
      "WindowWidth": [2315.0, 2314.0, 2314.0, 2314.0, 2314.0, 2314.0, 2313.0, 2314.0, 2314.0, 2314.0, 2313.0, 2313.0, 2314.0, 2314.0, 2313.0, 2313.0, 2314.0, 2313.0, 2313.0, 2313.0, 2313.0, 2313.0, 2313.0, 2313.0, 2313.0, 2313.0, 2313.0, 2313.0, 2313.0, 2313.0, 2313.0, 2313.0, 2313.0, 2313.0, 2313.0, 2313.0, 2313.0, 2313.0, 2313.0, 2313.0, 2313.0, 2313.0, 2313.0, 2313.0, 2313.0, 2313.0, 2313.0, 2313.0, 2313.0, 2313.0, 2313.0, 2313.0, 2313.0, 2313.0, 2313.0, 2313.0, 2313.0, 2313.0, 2313.0, 2313.0, 2313.0, 2313.0, 2312.0, 2312.0, 2313.0, 2312.0, 2312.0, 2312.0, 2312.0, 2312.0, 2312.0, 2312.0, 2312.0, 2313.0, 2312.0, 2312.0, 2312.0, 2312.0, 2312.0, 2312.0, 2313.0, 2312.0, 2312.0, 2312.0, 2312.0, 2312.0, 2312.0, 2312.0, 2312.0, 2312.0, 2312.0, 2312.0, 2312.0, 2312.0, 2313.0, 2312.0, 2312.0, 2312.0, 2312.0, 2312.0, 2312.0, 2312.0, 2312.0, 2312.0, 2311.0, 2312.0, 2313.0, 2312.0, 2312.0, 2312.0, 2312.0, 2312.0, 2311.0, 2312.0, 2312.0, 2312.0, 2312.0, 2312.0, 2312.0, 2312.0, 2312.0, 2311.0, 2311.0, 2312.0, 2312.0, 2311.0, 2311.0, 2311.0, 2311.0, 2311.0, 2312.0, 2311.0, 2311.0, 2311.0, 2311.0, 2311.0, 2311.0, 2311.0, 2311.0, 2311.0, 2311.0, 2311.0, 2311.0, 2311.0, 2311.0, 2311.0, 2311.0, 2311.0, 2311.0, 2312.0, 2311.0, 2311.0, 2312.0, 2311.0, 2311.0, 2311.0, 2311.0, 2311.0, 2311.0, 2312.0, 2311.0, 2311.0, 2311.0, 2311.0, 2311.0, 2311.0, 2311.0, 2311.0, 2311.0, 2311.0, 2311.0, 2311.0, 2311.0, 2311.0, 2311.0, 2311.0, 2311.0, 2311.0, 2311.0, 2311.0, 2312.0, 2311.0, 2311.0, 2311.0, 2311.0, 2311.0, 2311.0, 2311.0, 2310.0, 2311.0, 2311.0, 2311.0, 2311.0, 2311.0, 2311.0, 2311.0, 2311.0, 2311.0, 2311.0, 2311.0]
    },
    "slices": {}
  }
}