{
  "AcquisitionMatrixPE": 80,
  "AcquisitionNumber": 1,
  "AcquisitionTime": "10:07:3.450000",
  "BandwidthPerPixelPhaseEncode": 25,
  "BaseResolution": 80,
  "BodyPartExamined": "BRAIN",
  "CoilCombinationMethod": "Sum of Squares",
  "ConsistencyInfo": "N4_VE11E_LATEST_20181129",
  "ConversionSoftware": "dcm2niix",
  "ConversionSoftwareVersion": "v1.0.20220720",
  "DerivedVendorReportedEchoSpacing": 0.0005,
  "DeviceSerialNumber": "66112",
  "DwellTime": 2.7e-06,
  "EchoTime": 0.03,
  "EchoTrainLength": 80,
  "EffectiveEchoSpacing": 0.0005,
  "FlipAngle": 77,
  "HeudiconvVersion": "0.13.1",
  "ImageOrientationPatientDICOM": [0.986523, 0.163375, 0.00897027, -0.158369, 0.939636, 0.303322],
  "ImageOrientationText": "Tra>Cor(17.5)>Sag(-2.4)",
  "ImageType": [
    "ORIGINAL",
    "PRIMARY",
    "M",
    "ND",
    "NORM",
    "MOSAIC"
],
  "ImagingFrequency": 123.259,
  "InPlanePhaseEncodingDirectionDICOM": "COL",
  "InstitutionAddress": "Maynard 3,Hanover,NH,US,03755",
  "InstitutionName": "Dartmouth College - PBS",
  "InstitutionalDepartmentName": "Department",
  "MRAcquisitionType": "2D",
  "MagneticFieldStrength": 3,
  "Manufacturer": "Siemens",
  "ManufacturersModelName": "Prisma",
  "MatrixCoilMode": "SENSE",
  "Modality": "MR",
  "NonlinearGradientCorrection": false,
  "PartialFourier": 1,
  "PatientPosition": "HFS",
  "PercentPhaseFOV": 100,
  "PercentSampling": 100,
  "PhaseEncodingDirection": "j-",
  "PhaseEncodingSteps": 80,
  "PhaseResolution": 1,
  "PixelBandwidth": 2315,
  "ProcedureStepDescription": "dbic^QA",
  "ProtocolName": "func-bold_fa-77",
  "PulseSequenceDetails": "%SiemensSeq%\\ep2d_bold",
  "ReceiveCoilActiveElements": "HEA;HEP",
  "ReceiveCoilName": "Head_32",
  "ReconMatrixPE": 80,
  "RepetitionTime": 2,
  "SAR": 0.0368797,
  "ScanOptions": "FS",
  "ScanningSequence": "EP",
  "SequenceName": "*epfid2d1_80",
  "SequenceVariant": "SK",
  "SeriesDescription": "func-bold_fa-77",
  "SeriesNumber": 7,
  "ShimSetting": [4220, -7735, -7506, -36, -163, -101, 15, 79],
  "SliceThickness": 3.5,
  "SliceTiming": [0.99, 0, 1.0575, 0.0675, 1.1225, 0.1325, 1.19, 0.2, 1.255, 0.265, 1.32, 0.33, 1.3875, 0.3975, 1.4525, 0.4625, 1.5175, 0.53, 1.585, 0.595, 1.65, 0.66, 1.7175, 0.7275, 1.7825, 0.7925, 1.8475, 0.86, 1.915, 0.925],
  "SoftwareVersions": "syngo MR E11",
  "SpacingBetweenSlices": 3.99,
  "StationName": "AWP66112",
  "TotalReadoutTime": 0.0395,
  "TxRefAmp": 222.989,
  "dcmmeta_affine": [
    [-2.9595694541931152, -0.475105881690979, -0.164094939827919, 140.0598602294922],
    [-0.49012646079063416, 2.8189072608947754, 1.1996116638183594, -106.37108612060547],
    [0.02691081166267395, -0.9099652767181396, 3.8018553256988525, -28.546344757080078],
    [0.0, 0.0, 0.0, 1.0]
],
  "dcmmeta_reorient_transform": [
    [0.0, -1.0, 0.0, 79.0],
    [1.0, 0.0, 0.0, 0.0],
    [0.0, 0.0, 1.0, 0.0],
    [0.0, 0.0, 0.0, 1.0]
],
  "dcmmeta_shape": [80, 80, 30, 200],
  "dcmmeta_slice_dim": 2,
  "dcmmeta_version": 0.6,
  "global": {
    "const": {
      "AccessionNumber": "qa",
      "AcquisitionMatrix": [80, 0, 0, 80],
      "AngioFlag": "N",
      "BitsAllocated": 16,
      "BitsStored": 12,
      "BodyPartExamined": "BRAIN",
      "Columns": 480,
      "EchoNumbers": 1,
      "EchoTime": 30.0,
      "EchoTrainLength": 80,
      "FlipAngle": 77.0,
      "HighBit": 11,
      "ImageOrientationPatient": [0.98652318020901, 0.16337548519068, 0.00897027028703, -0.158368625724, 0.93963572321833, 0.30332175332192],
      "ImagePositionPatient": [-599.41923488529, -778.12930700822, -287.80881412735],
      "ImageType": [
        "ORIGINAL",
        "PRIMARY",
        "M",
        "ND",
        "NORM",
        "MOSAIC"
],
      "ImagedNucleus": "1H",
      "ImagingFrequency": 123.259132,
      "InPlanePhaseEncodingDirection": "COL",
      "MRAcquisitionType": "2D",
      "MagneticFieldStrength": 3.0,
      "Manufacturer": "SIEMENS",
      "ManufacturerModelName": "Prisma",
      "Modality": "MR",
      "NumberOfAverages": 1.0,
      "NumberOfPhaseEncodingSteps": 80,
      "PercentPhaseFieldOfView": 100.0,
      "PercentSampling": 100.0,
      "PerformedProcedureStepStartTime": "094501.012000",
      "PhotometricInterpretation": "MONOCHROME2",
      "PixelBandwidth": 2315.0,
      "PixelRepresentation": 0,
      "PixelSpacing": [3.0, 3.0],
      "ProtocolName": "func-bold_fa-77",
      "RepetitionTime": 2000.0,
      "Rows": 480,
      "SAR": 0.03687969069258,
      "SamplesPerPixel": 1,
      "ScanOptions": "FS",
      "ScanningSequence": "EP",
      "SequenceName": "*epfid2d1_80",
      "SequenceVariant": "SK",
      "SeriesDescription": "func-bold_fa-77",
      "SeriesNumber": 7,
      "SeriesTime": "100758.498000",
      "SliceLocation": -64.941399274868,
      "SliceThickness": 3.5,
      "SmallestImagePixelValue": 0,
      "SoftwareVersions": "syngo MR E11",
      "SpacingBetweenSlices": 3.9899999861519,
      "SpecificCharacterSet": "ISO_IR 100",
      "StudyID": "8",
      "StudyTime": "094500.921000",
      "TransmitCoilName": "Body",
      "VariableFlipAngleFlag": "N",
      "WindowCenterWidthExplanation": "Algo1"
    },
    "slices": {}
  },
  "time": {
    "samples": {
      "AcquisitionNumber": [1, 2, 3, 4, 5, 6, 7, 8, 9, 10, 11, 12, 13, 14, 15, 16, 17, 18, 19, 20, 21, 22, 23, 24, 25, 26, 27, 28, 29, 30, 31, 32, 33, 34, 35, 36, 37, 38, 39, 40, 41, 42, 43, 44, 45, 46, 47, 48, 49, 50, 51, 52, 53, 54, 55, 56, 57, 58, 59, 60, 61, 62, 63, 64, 65, 66, 67, 68, 69, 70, 71, 72, 73, 74, 75, 76, 77, 78, 79, 80, 81, 82, 83, 84, 85, 86, 87, 88, 89, 90, 91, 92, 93, 94, 95, 96, 97, 98, 99, 100, 101, 102, 103, 104, 105, 106, 107, 108, 109, 110, 111, 112, 113, 114, 115, 116, 117, 118, 119, 120, 121, 122, 123, 124, 125, 126, 127, 128, 129, 130, 131, 132, 133, 134, 135, 136, 137, 138, 139, 140, 141, 142, 143, 144, 145, 146, 147, 148, 149, 150, 151, 152, 153, 154, 155, 156, 157, 158, 159, 160, 161, 162, 163, 164, 165, 166, 167, 168, 169, 170, 171, 172, 173, 174, 175, 176, 177, 178, 179, 180, 181, 182, 183, 184, 185, 186, 187, 188, 189, 190, 191, 192, 193, 194, 195, 196, 197, 198, 199, 200],
      "AcquisitionTime": ["100703.450000", "100705.450000", "100707.450000", "100709.450000", "100711.450000", "100713.450000", "100715.450000", "100717.450000", "100719.450000", "100721.450000", "100723.450000", "100725.450000", "100727.450000", "100729.450000", "100731.450000", "100733.450000", "100735.450000", "100737.450000", "100739.450000", "100741.450000", "100743.450000", "100745.450000", "100747.450000", "100749.450000", "100751.450000", "100753.450000", "100755.450000", "100757.450000", "100759.450000", "100801.450000", "100803.450000", "100805.450000", "100807.450000", "100809.450000", "100811.450000", "100813.450000", "100815.450000", "100817.450000", "100819.450000", "100821.450000", "100823.450000", "100825.450000", "100827.450000", "100829.450000", "100831.450000", "100833.450000", "100835.450000", "100837.450000", "100839.450000", "100841.450000", "100843.450000", "100845.450000", "100847.450000", "100849.450000", "100851.450000", "100853.450000", "100855.450000", "100857.450000", "100859.450000", "100901.450000", "100903.450000", "100905.450000", "100907.450000", "100909.450000", "100911.450000", "100913.450000", "100915.450000", "100917.450000", "100919.450000", "100921.450000", "100923.450000", "100925.450000", "100927.450000", "100929.450000", "100931.450000", "100933.450000", "100935.450000", "100937.450000", "100939.450000", "100941.450000", "100943.450000", "100945.450000", "100947.450000", "100949.450000", "100951.450000", "100953.450000", "100955.450000", "100957.450000", "100959.450000", "101001.450000", "101003.450000", "101005.450000", "101007.450000", "101009.450000", "101011.450000", "101013.450000", "101015.450000", "101017.450000", "101019.450000", "101021.450000", "101023.450000", "101025.450000", "101027.450000", "101029.450000", "101031.450000", "101033.450000", "101035.450000", "101037.450000", "101039.450000", "101041.450000", "101043.450000", "101045.450000", "101047.450000", "101049.450000", "101051.450000", "101053.450000", "101055.450000", "101057.450000", "101059.450000", "101101.450000", "101103.450000", "101105.450000", "101107.450000", "101109.450000", "101111.450000", "101113.450000", "101115.450000", "101117.450000", "101119.450000", "101121.450000", "101123.450000", "101125.450000", "101127.450000", "101129.450000", "101131.450000", "101133.450000", "101135.450000", "101137.450000", "101139.450000", "101141.450000", "101143.450000", "101145.450000", "101147.450000", "101149.450000", "101151.450000", "101153.450000", "101155.450000", "101157.450000", "101159.450000", "101201.450000", "101203.450000", "101205.450000", "101207.450000", "101209.450000", "101211.450000", "101213.450000", "101215.450000", "101217.450000", "101219.450000", "101221.450000", "101223.450000", "101225.450000", "101227.450000", "101229.450000", "101231.450000", "101233.450000", "101235.450000", "101237.450000", "101239.450000", "101241.450000", "101243.450000", "101245.450000", "101247.450000", "101249.450000", "101251.450000", "101253.450000", "101255.450000", "101257.450000", "101259.450000", "101301.450000", "101303.450000", "101305.450000", "101307.450000", "101309.450000", "101311.450000", "101313.450000", "101315.450000", "101317.450000", "101319.450000", "101321.450000", "101323.450000", "101325.450000", "101327.450000", "101329.450000", "101331.450000", "101333.450000", "101335.450000", "101337.450000", "101339.450000", "101341.450000"],
      "ContentTime": ["100758.501000", "100758.504000", "100758.506000", "100758.509000", "100758.511000", "100758.523000", "100758.525000", "100758.527000", "100758.530000", "100758.532000", "100758.534000", "100758.536000", "100758.539000", "100758.541000", "100758.543000", "100758.546000", "100758.548000", "100758.550000", "100758.552000", "100758.565000", "100758.567000", "100758.570000", "100758.572000", "100758.574000", "100758.577000", "100758.579000", "100758.581000", "100838.495000", "100838.498000", "100838.500000", "100838.502000", "100838.505000", "100838.507000", "100838.509000", "100838.512000", "100838.514000", "100838.516000", "100838.518000", "100838.521000", "100838.523000", "100838.525000", "100838.528000", "100838.530000", "100838.532000", "100838.534000", "100838.537000", "100838.539000", "100918.495000", "100918.498000", "100918.500000", "100918.502000", "100918.505000", "100918.514000", "100918.516000", "100918.518000", "100918.521000", "100918.523000", "100918.525000", "100918.528000", "100918.530000", "100918.532000", "100918.534000", "100918.537000", "100918.539000", "100918.541000", "100918.544000", "100918.552000", "100958.496000", "100958.499000", "100958.501000", "100958.503000", "100958.506000", "100958.508000", "100958.510000", "100958.512000", "100958.515000", "100958.517000", "100958.519000", "100958.522000", "100958.524000", "100958.526000", "100958.528000", "100958.531000", "100958.533000", "100958.535000", "100958.538000", "100958.540000", "101038.495000", "101038.498000", "101038.500000", "101038.502000", "101038.505000", "101038.507000", "101038.509000", "101038.511000", "101038.514000", "101038.516000", "101038.518000", "101038.521000", "101038.523000", "101038.525000", "101038.528000", "101038.530000", "101038.532000", "101038.535000", "101038.537000", "101038.539000", "101118.495000", "101118.498000", "101118.500000", "101118.502000", "101118.504000", "101118.507000", "101118.509000", "101118.511000", "101118.514000", "101118.516000", "101118.518000", "101118.521000", "101118.523000", "101118.525000", "101118.528000", "101118.530000", "101118.532000", "101118.535000", "101118.537000", "101118.539000", "101158.495000", "101158.498000", "101158.500000", "101158.502000", "101158.505000", "101158.507000", "101158.509000", "101158.511000", "101158.514000", "101158.516000", "101158.518000", "101158.521000", "101158.523000", "101158.525000", "101158.528000", "101158.530000", "101158.532000", "101158.534000", "101158.537000", "101158.539000", "101238.495000", "101238.509000", "101238.511000", "101238.514000", "101238.516000", "101238.518000", "101238.521000", "101238.523000", "101238.525000", "101238.528000", "101238.530000", "101238.532000", "101238.534000", "101238.537000", "101238.539000", "101238.541000", "101238.543000", "101238.546000", "101238.548000", "101238.550000", "101318.495000", "101318.498000", "101318.500000", "101318.502000", "101318.505000", "101318.507000", "101318.509000", "101318.511000", "101318.514000", "101318.516000", "101318.518000", "101318.521000", "101318.523000", "101318.525000", "101318.527000", "101318.530000", "101318.532000", "101318.534000", "101318.537000", "101318.539000", "101343.348000", "101343.351000", "101343.353000", "101343.356000", "101343.358000", "101343.360000", "101343.363000", "101343.365000", "101343.368000", "101343.370000", "101343.372000", "101343.375000", "101343.377000"],
      "InstanceCreationTime": ["100758.501000", "100758.504000", "100758.506000", "100758.509000", "100758.511000", "100758.523000", "100758.525000", "100758.527000", "100758.530000", "100758.532000", "100758.534000", "100758.536000", "100758.539000", "100758.541000", "100758.543000", "100758.546000", "100758.548000", "100758.550000", "100758.552000", "100758.565000", "100758.567000", "100758.570000", "100758.572000", "100758.574000", "100758.577000", "100758.579000", "100758.581000", "100838.495000", "100838.498000", "100838.500000", "100838.502000", "100838.505000", "100838.507000", "100838.509000", "100838.512000", "100838.514000", "100838.516000", "100838.518000", "100838.521000", "100838.523000", "100838.525000", "100838.528000", "100838.530000", "100838.532000", "100838.534000", "100838.537000", "100838.539000", "100918.495000", "100918.498000", "100918.500000", "100918.502000", "100918.505000", "100918.514000", "100918.516000", "100918.518000", "100918.521000", "100918.523000", "100918.525000", "100918.528000", "100918.530000", "100918.532000", "100918.534000", "100918.537000", "100918.539000", "100918.541000", "100918.544000", "100918.552000", "100958.496000", "100958.499000", "100958.501000", "100958.503000", "100958.506000", "100958.508000", "100958.510000", "100958.512000", "100958.515000", "100958.517000", "100958.519000", "100958.522000", "100958.524000", "100958.526000", "100958.528000", "100958.531000", "100958.533000", "100958.535000", "100958.538000", "100958.540000", "101038.495000", "101038.498000", "101038.500000", "101038.502000", "101038.505000", "101038.507000", "101038.509000", "101038.511000", "101038.514000", "101038.516000", "101038.518000", "101038.521000", "101038.523000", "101038.525000", "101038.528000", "101038.530000", "101038.532000", "101038.535000", "101038.537000", "101038.539000", "101118.495000", "101118.498000", "101118.500000", "101118.502000", "101118.504000", "101118.507000", "101118.509000", "101118.511000", "101118.514000", "101118.516000", "101118.518000", "101118.521000", "101118.523000", "101118.525000", "101118.528000", "101118.530000", "101118.532000", "101118.535000", "101118.537000", "101118.539000", "101158.495000", "101158.498000", "101158.500000", "101158.502000", "101158.505000", "101158.507000", "101158.509000", "101158.511000", "101158.514000", "101158.516000", "101158.518000", "101158.521000", "101158.523000", "101158.525000", "101158.528000", "101158.530000", "101158.532000", "101158.534000", "101158.537000", "101158.539000", "101238.495000", "101238.509000", "101238.511000", "101238.514000", "101238.516000", "101238.518000", "101238.521000", "101238.523000", "101238.525000", "101238.528000", "101238.530000", "101238.532000", "101238.534000", "101238.537000", "101238.539000", "101238.541000", "101238.543000", "101238.546000", "101238.548000", "101238.550000", "101318.495000", "101318.498000", "101318.500000", "101318.502000", "101318.505000", "101318.507000", "101318.509000", "101318.511000", "101318.514000", "101318.516000", "101318.518000", "101318.521000", "101318.523000", "101318.525000", "101318.527000", "101318.530000", "101318.532000", "101318.534000", "101318.537000", "101318.539000", "101343.348000", "101343.351000", "101343.353000", "101343.356000", "101343.358000", "101343.360000", "101343.363000", "101343.365000", "101343.368000", "101343.370000", "101343.372000", "101343.375000", "101343.377000"],
      "InstanceNumber": [1, 2, 3, 4, 5, 6, 7, 8, 9, 10, 11, 12, 13, 14, 15, 16, 17, 18, 19, 20, 21, 22, 23, 24, 25, 26, 27, 28, 29, 30, 31, 32, 33, 34, 35, 36, 37, 38, 39, 40, 41, 42, 43, 44, 45, 46, 47, 48, 49, 50, 51, 52, 53, 54, 55, 56, 57, 58, 59, 60, 61, 62, 63, 64, 65, 66, 67, 68, 69, 70, 71, 72, 73, 74, 75, 76, 77, 78, 79, 80, 81, 82, 83, 84, 85, 86, 87, 88, 89, 90, 91, 92, 93, 94, 95, 96, 97, 98, 99, 100, 101, 102, 103, 104, 105, 106, 107, 108, 109, 110, 111, 112, 113, 114, 115, 116, 117, 118, 119, 120, 121, 122, 123, 124, 125, 126, 127, 128, 129, 130, 131, 132, 133, 134, 135, 136, 137, 138, 139, 140, 141, 142, 143, 144, 145, 146, 147, 148, 149, 150, 151, 152, 153, 154, 155, 156, 157, 158, 159, 160, 161, 162, 163, 164, 165, 166, 167, 168, 169, 170, 171, 172, 173, 174, 175, 176, 177, 178, 179, 180, 181, 182, 183, 184, 185, 186, 187, 188, 189, 190, 191, 192, 193, 194, 195, 196, 197, 198, 199, 200],
      "LargestImagePixelValue": [2287, 2290, 2289, 2288, 2290, 2290, 2287, 2287, 2288, 2288, 2289, 2288, 2289, 2289, 2290, 2289, 2288, 2289, 2288, 2289, 2288, 2288, 2288, 2289, 2288, 2289, 2287, 2288, 2288, 2288, 2288, 2288, 2287, 2287, 2289, 2288, 2287, 2289, 2287, 2286, 2288, 2286, 2287, 2286, 2288, 2288, 2288, 2287, 2288, 2286, 2290, 2286, 2287, 2288, 2287, 2286, 2286, 2286, 2288, 2284, 2286, 2287, 2288, 2286, 2286, 2286, 2286, 2288, 2286, 2286, 2287, 2288, 2286, 2286, 2287, 2286, 2286, 2284, 2285, 2285, 2286, 2286, 2286, 2285, 2287, 2286, 2286, 2287, 2286, 2287, 2286, 2286, 2285, 2285, 2284, 2286, 2286, 2285, 2285, 2285, 2285, 2286, 2285, 2284, 2285, 2286, 2285, 2286, 2285, 2286, 2284, 2286, 2287, 2284, 2285, 2285, 2284, 2284, 2284, 2284, 2286, 2284, 2285, 2286, 2284, 2286, 2285, 2285, 2284, 2285, 2284, 2284, 2285, 2286, 2283, 2284, 2284, 2284, 2286, 2283, 2284, 2285, 2285, 2287, 2283, 2284, 2285, 2284, 2284, 2285, 2284, 2285, 2283, 2283, 2284, 2283, 2282, 2284, 2283, 2284, 2283, 2282, 2284, 2284, 2282, 2283, 2284, 2284, 2283, 2281, 2283, 2284, 2282, 2283, 2284, 2283, 2287, 2285, 2282, 2282, 2282, 2284, 2283, 2283, 2282, 2284, 2282, 2282, 2282, 2284, 2280, 2284, 2282, 2283, 2283, 2283, 2282, 2283, 2282, 2282],
      "WindowCenter": [1018.0, 1018.0, 1017.0, 1018.0, 1018.0, 1019.0, 1018.0, 1019.0, 1018.0, 1019.0, 1019.0, 1019.0, 1018.0, 1019.0, 1018.0, 1018.0, 1019.0, 1018.0, 1019.0, 1018.0, 1020.0, 1019.0, 1019.0, 1020.0, 1017.0, 1018.0, 1020.0, 1020.0, 1019.0, 1020.0, 1020.0, 1019.0, 1019.0, 1018.0, 1019.0, 1017.0, 1019.0, 1019.0, 1019.0, 1020.0, 1020.0, 1020.0, 1019.0, 1019.0, 1020.0, 1019.0, 1020.0, 1019.0, 1018.0, 1017.0, 1019.0, 1018.0, 1020.0, 1019.0, 1019.0, 1019.0, 1019.0, 1019.0, 1018.0, 1019.0, 1019.0, 1018.0, 1018.0, 1018.0, 1017.0, 1018.0, 1019.0, 1018.0, 1018.0, 1019.0, 1017.0, 1019.0, 1019.0, 1019.0, 1017.0, 1017.0, 1019.0, 1018.0, 1018.0, 1018.0, 1018.0, 1018.0, 1016.0, 1017.0, 1017.0, 1019.0, 1016.0, 1017.0, 1017.0, 1017.0, 1018.0, 1018.0, 1019.0, 1017.0, 1018.0, 1017.0, 1017.0, 1019.0, 1018.0, 1019.0, 1017.0, 1018.0, 1017.0, 1019.0, 1018.0, 1018.0, 1017.0, 1018.0, 1017.0, 1019.0, 1019.0, 1019.0, 1018.0, 1017.0, 1018.0, 1018.0, 1018.0, 1018.0, 1017.0, 1017.0, 1018.0, 1017.0, 1018.0, 1017.0, 1017.0, 1019.0, 1018.0, 1017.0, 1017.0, 1018.0, 1017.0, 1017.0, 1017.0, 1017.0, 1017.0, 1017.0, 1018.0, 1018.0, 1018.0, 1018.0, 1016.0, 1019.0, 1017.0, 1016.0, 1019.0, 1016.0, 1019.0, 1019.0, 1017.0, 1018.0, 1017.0, 1019.0, 1018.0, 1018.0, 1016.0, 1019.0, 1017.0, 1017.0, 1018.0, 1017.0, 1017.0, 1017.0, 1017.0, 1018.0, 1018.0, 1018.0, 1016.0, 1019.0, 1018.0, 1018.0, 1018.0, 1017.0, 1018.0, 1018.0, 1018.0, 1018.0, 1016.0, 1017.0, 1017.0, 1017.0, 1018.0, 1018.0, 1018.0, 1018.0, 1017.0, 1017.0, 1017.0, 1017.0, 1017.0, 1016.0, 1017.0, 1017.0, 1016.0, 1016.0, 1017.0, 1017.0, 1017.0, 1018.0, 1017.0, 1016.0],
      "WindowWidth": [2283.0, 2283.0, 2282.0, 2283.0, 2283.0, 2284.0, 2283.0, 2284.0, 2283.0, 2284.0, 2284.0, 2284.0, 2283.0, 2284.0, 2283.0, 2283.0, 2284.0, 2283.0, 2284.0, 2283.0, 2284.0, 2283.0, 2283.0, 2284.0, 2282.0, 2283.0, 2284.0, 2285.0, 2284.0, 2284.0, 2284.0, 2283.0, 2283.0, 2283.0, 2283.0, 2282.0, 2283.0, 2283.0, 2283.0, 2284.0, 2284.0, 2284.0, 2283.0, 2283.0, 2284.0, 2283.0, 2284.0, 2283.0, 2282.0, 2281.0, 2283.0, 2282.0, 2284.0, 2283.0, 2283.0, 2283.0, 2283.0, 2284.0, 2282.0, 2282.0, 2282.0, 2282.0, 2282.0, 2283.0, 2282.0, 2283.0, 2283.0, 2283.0, 2283.0, 2283.0, 2281.0, 2283.0, 2283.0, 2283.0, 2282.0, 2282.0, 2283.0, 2283.0, 2282.0, 2283.0, 2281.0, 2283.0, 2281.0, 2282.0, 2282.0, 2283.0, 2281.0, 2281.0, 2281.0, 2281.0, 2282.0, 2282.0, 2283.0, 2282.0, 2282.0, 2281.0, 2281.0, 2283.0, 2282.0, 2283.0, 2281.0, 2282.0, 2281.0, 2283.0, 2282.0, 2282.0, 2281.0, 2282.0, 2281.0, 2282.0, 2282.0, 2282.0, 2282.0, 2281.0, 2282.0, 2282.0, 2282.0, 2282.0, 2281.0, 2281.0, 2282.0, 2281.0, 2282.0, 2281.0, 2281.0, 2282.0, 2281.0, 2281.0, 2281.0, 2281.0, 2280.0, 2281.0, 2281.0, 2281.0, 2281.0, 2281.0, 2281.0, 2281.0, 2281.0, 2281.0, 2280.0, 2282.0, 2281.0, 2280.0, 2282.0, 2279.0, 2282.0, 2282.0, 2281.0, 2281.0, 2281.0, 2282.0, 2281.0, 2281.0, 2280.0, 2282.0, 2280.0, 2280.0, 2281.0, 2281.0, 2280.0, 2280.0, 2280.0, 2281.0, 2281.0, 2281.0, 2279.0, 2281.0, 2281.0, 2281.0, 2281.0, 2280.0, 2281.0, 2281.0, 2281.0, 2281.0, 2279.0, 2280.0, 2280.0, 2280.0, 2280.0, 2281.0, 2281.0, 2281.0, 2280.0, 2280.0, 2280.0, 2280.0, 2280.0, 2279.0, 2280.0, 2280.0, 2279.0, 2280.0, 2280.0, 2280.0, 2280.0, 2281.0, 2280.0, 2280.0]
    },
    "slices": {}
  }
}