{
  "AcquisitionMatrixPE": 80,
  "AcquisitionNumber": 1,
  "AcquisitionTime": "10:13:50.435000",
  "BandwidthPerPixelPhaseEncode": 25,
  "BaseResolution": 80,
  "BodyPartExamined": "BRAIN",
  "CoilCombinationMethod": "Sum of Squares",
  "ConsistencyInfo": "N4_VE11E_LATEST_20181129",
  "ConversionSoftware": "dcm2niix",
  "ConversionSoftwareVersion": "v1.0.20220720",
  "DerivedVendorReportedEchoSpacing": 0.0005,
  "DeviceSerialNumber": "66112",
  "DwellTime": 2.7e-06,
  "EchoTime": 0.03,
  "EchoTrainLength": 80,
  "EffectiveEchoSpacing": 0.0005,
  "FlipAngle": 10,
  "HeudiconvVersion": "0.13.1",
  "ImageOrientationPatientDICOM": [0.986523, 0.163375, 0.00897027, -0.158369, 0.939636, 0.303322],
  "ImageOrientationText": "Tra>Cor(17.5)>Sag(-2.4)",
  "ImageType": [
    "ORIGINAL",
    "PRIMARY",
    "M",
    "ND",
    "NORM",
    "MOSAIC"
],
  "ImagingFrequency": 123.259,
  "InPlanePhaseEncodingDirectionDICOM": "COL",
  "InstitutionAddress": "Maynard 3,Hanover,NH,US,03755",
  "InstitutionName": "Dartmouth College - PBS",
  "InstitutionalDepartmentName": "Department",
  "MRAcquisitionType": "2D",
  "MagneticFieldStrength": 3,
  "Manufacturer": "Siemens",
  "ManufacturersModelName": "Prisma",
  "MatrixCoilMode": "SENSE",
  "Modality": "MR",
  "NonlinearGradientCorrection": false,
  "PartialFourier": 1,
  "PatientPosition": "HFS",
  "PercentPhaseFOV": 100,
  "PercentSampling": 100,
  "PhaseEncodingDirection": "j-",
  "PhaseEncodingSteps": 80,
  "PhaseResolution": 1,
  "PixelBandwidth": 2315,
  "ProcedureStepDescription": "dbic^QA",
  "ProtocolName": "func-bold_fa-10",
  "PulseSequenceDetails": "%SiemensSeq%\\ep2d_bold",
  "ReceiveCoilActiveElements": "HEA;HEP",
  "ReceiveCoilName": "Head_32",
  "ReconMatrixPE": 80,
  "RepetitionTime": 2,
  "SAR": 0.00989295,
  "ScanOptions": "FS",
  "ScanningSequence": "EP",
  "SequenceName": "*epfid2d1_80",
  "SequenceVariant": "SK",
  "SeriesDescription": "func-bold_fa-10",
  "SeriesNumber": 8,
  "ShimSetting": [4220, -7735, -7506, -36, -163, -101, 15, 79],
  "SliceThickness": 3.5,
  "SliceTiming": [0.99, 0, 1.0575, 0.0675, 1.1225, 0.1325, 1.19, 0.2, 1.255, 0.265, 1.32, 0.33, 1.3875, 0.3975, 1.4525, 0.4625, 1.52, 0.53, 1.585, 0.595, 1.65, 0.66, 1.7175, 0.7275, 1.7825, 0.7925, 1.8475, 0.86, 1.915, 0.925],
  "SoftwareVersions": "syngo MR E11",
  "SpacingBetweenSlices": 3.99,
  "StationName": "AWP66112",
  "TotalReadoutTime": 0.0395,
  "TxRefAmp": 222.989,
  "dcmmeta_affine": [
    [-2.9595694541931152, -0.475105881690979, -0.164094939827919, 140.0598602294922],
    [-0.49012646079063416, 2.8189072608947754, 1.1996116638183594, -106.37108612060547],
    [0.02691081166267395, -0.9099652767181396, 3.8018553256988525, -28.546344757080078],
    [0.0, 0.0, 0.0, 1.0]
],
  "dcmmeta_reorient_transform": [
    [0.0, -1.0, 0.0, 79.0],
    [1.0, 0.0, 0.0, 0.0],
    [0.0, 0.0, 1.0, 0.0],
    [0.0, 0.0, 0.0, 1.0]
],
  "dcmmeta_shape": [80, 80, 30, 200],
  "dcmmeta_slice_dim": 2,
  "dcmmeta_version": 0.6,
  "global": {
    "const": {
      "AccessionNumber": "qa",
      "AcquisitionMatrix": [80, 0, 0, 80],
      "AngioFlag": "N",
      "BitsAllocated": 16,
      "BitsStored": 12,
      "BodyPartExamined": "BRAIN",
      "Columns": 480,
      "EchoNumbers": 1,
      "EchoTime": 30.0,
      "EchoTrainLength": 80,
      "FlipAngle": 10.0,
      "HighBit": 11,
      "ImageOrientationPatient": [0.98652318020901, 0.16337548519068, 0.00897027028703, -0.158368625724, 0.93963572321833, 0.30332175332192],
      "ImagePositionPatient": [-599.41923488529, -778.12930700822, -287.80881412735],
      "ImageType": [
        "ORIGINAL",
        "PRIMARY",
        "M",
        "ND",
        "NORM",
        "MOSAIC"
],
      "ImagedNucleus": "1H",
      "ImagingFrequency": 123.259135,
      "InPlanePhaseEncodingDirection": "COL",
      "MRAcquisitionType": "2D",
      "MagneticFieldStrength": 3.0,
      "Manufacturer": "SIEMENS",
      "ManufacturerModelName": "Prisma",
      "Modality": "MR",
      "NumberOfAverages": 1.0,
      "NumberOfPhaseEncodingSteps": 80,
      "PercentPhaseFieldOfView": 100.0,
      "PercentSampling": 100.0,
      "PerformedProcedureStepStartTime": "094501.012000",
      "PhotometricInterpretation": "MONOCHROME2",
      "PixelBandwidth": 2315.0,
      "PixelRepresentation": 0,
      "PixelSpacing": [3.0, 3.0],
      "ProtocolName": "func-bold_fa-10",
      "RepetitionTime": 2000.0,
      "Rows": 480,
      "SAR": 0.00989294491618,
      "SamplesPerPixel": 1,
      "ScanOptions": "FS",
      "ScanningSequence": "EP",
      "SequenceName": "*epfid2d1_80",
      "SequenceVariant": "SK",
      "SeriesDescription": "func-bold_fa-10",
      "SeriesNumber": 8,
      "SeriesTime": "101438.584000",
      "SliceLocation": -64.941399274868,
      "SliceThickness": 3.5,
      "SmallestImagePixelValue": 0,
      "SoftwareVersions": "syngo MR E11",
      "SpacingBetweenSlices": 3.9899999861519,
      "SpecificCharacterSet": "ISO_IR 100",
      "StudyID": "8",
      "StudyTime": "094500.921000",
      "TransmitCoilName": "Body",
      "VariableFlipAngleFlag": "N",
      "WindowCenterWidthExplanation": "Algo1"
    },
    "slices": {}
  },
  "time": {
    "samples": {
      "AcquisitionNumber": [1, 2, 3, 4, 5, 6, 7, 8, 9, 10, 11, 12, 13, 14, 15, 16, 17, 18, 19, 20, 21, 22, 23, 24, 25, 26, 27, 28, 29, 30, 31, 32, 33, 34, 35, 36, 37, 38, 39, 40, 41, 42, 43, 44, 45, 46, 47, 48, 49, 50, 51, 52, 53, 54, 55, 56, 57, 58, 59, 60, 61, 62, 63, 64, 65, 66, 67, 68, 69, 70, 71, 72, 73, 74, 75, 76, 77, 78, 79, 80, 81, 82, 83, 84, 85, 86, 87, 88, 89, 90, 91, 92, 93, 94, 95, 96, 97, 98, 99, 100, 101, 102, 103, 104, 105, 106, 107, 108, 109, 110, 111, 112, 113, 114, 115, 116, 117, 118, 119, 120, 121, 122, 123, 124, 125, 126, 127, 128, 129, 130, 131, 132, 133, 134, 135, 136, 137, 138, 139, 140, 141, 142, 143, 144, 145, 146, 147, 148, 149, 150, 151, 152, 153, 154, 155, 156, 157, 158, 159, 160, 161, 162, 163, 164, 165, 166, 167, 168, 169, 170, 171, 172, 173, 174, 175, 176, 177, 178, 179, 180, 181, 182, 183, 184, 185, 186, 187, 188, 189, 190, 191, 192, 193, 194, 195, 196, 197, 198, 199, 200],
      "AcquisitionTime": ["101350.435000", "101352.435000", "101354.435000", "101356.435000", "101358.435000", "101400.435000", "101402.435000", "101404.435000", "101406.435000", "101408.435000", "101410.435000", "101412.435000", "101414.435000", "101416.435000", "101418.435000", "101420.435000", "101422.435000", "101424.435000", "101426.435000", "101428.435000", "101430.435000", "101432.435000", "101434.435000", "101436.435000", "101438.435000", "101440.435000", "101442.435000", "101444.435000", "101446.435000", "101448.435000", "101450.435000", "101452.435000", "101454.435000", "101456.435000", "101458.435000", "101500.435000", "101502.435000", "101504.435000", "101506.435000", "101508.435000", "101510.435000", "101512.435000", "101514.435000", "101516.435000", "101518.435000", "101520.435000", "101522.435000", "101524.435000", "101526.435000", "101528.435000", "101530.435000", "101532.435000", "101534.435000", "101536.435000", "101538.435000", "101540.435000", "101542.435000", "101544.435000", "101546.435000", "101548.435000", "101550.435000", "101552.435000", "101554.435000", "101556.435000", "101558.435000", "101600.435000", "101602.435000", "101604.435000", "101606.435000", "101608.435000", "101610.435000", "101612.435000", "101614.435000", "101616.435000", "101618.435000", "101620.435000", "101622.435000", "101624.435000", "101626.435000", "101628.435000", "101630.435000", "101632.435000", "101634.435000", "101636.435000", "101638.435000", "101640.435000", "101642.435000", "101644.435000", "101646.435000", "101648.435000", "101650.435000", "101652.435000", "101654.435000", "101656.435000", "101658.435000", "101700.435000", "101702.435000", "101704.435000", "101706.435000", "101708.435000", "101710.435000", "101712.435000", "101714.435000", "101716.435000", "101718.435000", "101720.435000", "101722.435000", "101724.435000", "101726.435000", "101728.435000", "101730.435000", "101732.435000", "101734.435000", "101736.435000", "101738.435000", "101740.435000", "101742.435000", "101744.435000", "101746.435000", "101748.435000", "101750.435000", "101752.435000", "101754.435000", "101756.435000", "101758.435000", "101800.435000", "101802.435000", "101804.435000", "101806.435000", "101808.435000", "101810.435000", "101812.435000", "101814.435000", "101816.435000", "101818.435000", "101820.435000", "101822.435000", "101824.435000", "101826.435000", "101828.435000", "101830.435000", "101832.435000", "101834.435000", "101836.435000", "101838.435000", "101840.435000", "101842.435000", "101844.435000", "101846.435000", "101848.435000", "101850.435000", "101852.435000", "101854.435000", "101856.435000", "101858.435000", "101900.435000", "101902.435000", "101904.435000", "101906.435000", "101908.435000", "101910.435000", "101912.435000", "101914.435000", "101916.435000", "101918.435000", "101920.435000", "101922.435000", "101924.435000", "101926.435000", "101928.435000", "101930.435000", "101932.435000", "101934.435000", "101936.435000", "101938.435000", "101940.435000", "101942.435000", "101944.435000", "101946.435000", "101948.435000", "101950.435000", "101952.435000", "101954.435000", "101956.435000", "101958.435000", "102000.435000", "102002.435000", "102004.435000", "102006.435000", "102008.435000", "102010.435000", "102012.435000", "102014.435000", "102016.435000", "102018.435000", "102020.435000", "102022.435000", "102024.435000", "102026.435000", "102028.435000"],
      "ContentTime": ["101438.587000", "101438.590000", "101438.593000", "101438.595000", "101438.597000", "101438.606000", "101438.608000", "101438.610000", "101438.613000", "101438.616000", "101438.618000", "101438.621000", "101438.623000", "101438.625000", "101438.627000", "101438.630000", "101438.632000", "101438.634000", "101438.636000", "101438.639000", "101438.641000", "101438.643000", "101438.645000", "101438.648000", "101518.581000", "101518.583000", "101518.586000", "101518.588000", "101518.590000", "101518.593000", "101518.595000", "101518.597000", "101518.599000", "101518.602000", "101518.604000", "101518.606000", "101518.608000", "101518.611000", "101518.613000", "101518.615000", "101518.617000", "101518.620000", "101518.622000", "101518.624000", "101558.581000", "101558.584000", "101558.586000", "101558.588000", "101558.591000", "101558.593000", "101558.595000", "101558.597000", "101558.600000", "101558.602000", "101558.604000", "101558.607000", "101558.615000", "101558.618000", "101558.620000", "101558.622000", "101558.624000", "101558.627000", "101558.629000", "101558.631000", "101638.581000", "101638.584000", "101638.586000", "101638.588000", "101638.590000", "101638.593000", "101638.595000", "101638.597000", "101638.599000", "101638.602000", "101638.604000", "101638.606000", "101638.609000", "101638.611000", "101638.613000", "101638.615000", "101638.617000", "101638.620000", "101638.622000", "101638.624000", "101718.581000", "101718.584000", "101718.586000", "101718.588000", "101718.591000", "101718.593000", "101718.595000", "101718.597000", "101718.600000", "101718.602000", "101718.604000", "101718.607000", "101718.609000", "101718.611000", "101718.613000", "101718.616000", "101718.618000", "101718.620000", "101718.623000", "101718.625000", "101758.581000", "101758.584000", "101758.586000", "101758.588000", "101758.591000", "101758.600000", "101758.602000", "101758.605000", "101758.607000", "101758.609000", "101758.612000", "101758.614000", "101758.616000", "101758.618000", "101758.621000", "101758.623000", "101758.625000", "101758.627000", "101758.630000", "101758.632000", "101838.581000", "101838.584000", "101838.586000", "101838.588000", "101838.590000", "101838.593000", "101838.595000", "101838.597000", "101838.600000", "101838.602000", "101838.604000", "101838.606000", "101838.609000", "101838.611000", "101838.613000", "101838.615000", "101838.618000", "101838.620000", "101838.622000", "101838.624000", "101918.582000", "101918.585000", "101918.587000", "101918.589000", "101918.592000", "101918.594000", "101918.596000", "101918.598000", "101918.601000", "101918.603000", "101918.605000", "101918.634000", "101918.636000", "101918.638000", "101918.640000", "101918.643000", "101918.645000", "101918.647000", "101918.649000", "101918.652000", "101958.581000", "101958.584000", "101958.586000", "101958.588000", "101958.590000", "101958.593000", "101958.595000", "101958.597000", "101958.600000", "101958.602000", "101958.604000", "101958.606000", "101958.609000", "101958.611000", "101958.613000", "101958.615000", "101958.618000", "101958.620000", "101958.622000", "101958.624000", "102029.770000", "102029.773000", "102029.775000", "102029.777000", "102029.780000", "102029.782000", "102029.784000", "102029.787000", "102029.789000", "102029.791000", "102029.794000", "102029.796000", "102029.798000", "102029.803000", "102029.807000", "102029.812000"],
      "InstanceCreationTime": ["101438.587000", "101438.590000", "101438.593000", "101438.595000", "101438.597000", "101438.606000", "101438.608000", "101438.610000", "101438.613000", "101438.616000", "101438.618000", "101438.621000", "101438.623000", "101438.625000", "101438.627000", "101438.630000", "101438.632000", "101438.634000", "101438.636000", "101438.639000", "101438.641000", "101438.643000", "101438.645000", "101438.648000", "101518.581000", "101518.583000", "101518.586000", "101518.588000", "101518.590000", "101518.593000", "101518.595000", "101518.597000", "101518.599000", "101518.602000", "101518.604000", "101518.606000", "101518.608000", "101518.611000", "101518.613000", "101518.615000", "101518.617000", "101518.620000", "101518.622000", "101518.624000", "101558.581000", "101558.584000", "101558.586000", "101558.588000", "101558.591000", "101558.593000", "101558.595000", "101558.597000", "101558.600000", "101558.602000", "101558.604000", "101558.607000", "101558.615000", "101558.618000", "101558.620000", "101558.622000", "101558.624000", "101558.627000", "101558.629000", "101558.631000", "101638.581000", "101638.584000", "101638.586000", "101638.588000", "101638.590000", "101638.593000", "101638.595000", "101638.597000", "101638.599000", "101638.602000", "101638.604000", "101638.606000", "101638.609000", "101638.611000", "101638.613000", "101638.615000", "101638.617000", "101638.620000", "101638.622000", "101638.624000", "101718.581000", "101718.584000", "101718.586000", "101718.588000", "101718.591000", "101718.593000", "101718.595000", "101718.597000", "101718.600000", "101718.602000", "101718.604000", "101718.607000", "101718.609000", "101718.611000", "101718.613000", "101718.616000", "101718.618000", "101718.620000", "101718.623000", "101718.625000", "101758.581000", "101758.584000", "101758.586000", "101758.588000", "101758.591000", "101758.600000", "101758.602000", "101758.605000", "101758.607000", "101758.609000", "101758.612000", "101758.614000", "101758.616000", "101758.618000", "101758.621000", "101758.623000", "101758.625000", "101758.627000", "101758.630000", "101758.632000", "101838.581000", "101838.584000", "101838.586000", "101838.588000", "101838.590000", "101838.593000", "101838.595000", "101838.597000", "101838.600000", "101838.602000", "101838.604000", "101838.606000", "101838.609000", "101838.611000", "101838.613000", "101838.615000", "101838.618000", "101838.620000", "101838.622000", "101838.624000", "101918.582000", "101918.585000", "101918.587000", "101918.589000", "101918.592000", "101918.594000", "101918.596000", "101918.598000", "101918.601000", "101918.603000", "101918.605000", "101918.634000", "101918.636000", "101918.638000", "101918.640000", "101918.643000", "101918.645000", "101918.647000", "101918.649000", "101918.652000", "101958.581000", "101958.584000", "101958.586000", "101958.588000", "101958.590000", "101958.593000", "101958.595000", "101958.597000", "101958.600000", "101958.602000", "101958.604000", "101958.606000", "101958.609000", "101958.611000", "101958.613000", "101958.615000", "101958.618000", "101958.620000", "101958.622000", "101958.624000", "102029.770000", "102029.773000", "102029.775000", "102029.777000", "102029.780000", "102029.782000", "102029.784000", "102029.787000", "102029.789000", "102029.791000", "102029.794000", "102029.796000", "102029.798000", "102029.803000", "102029.807000", "102029.812000"],
      "InstanceNumber": [1, 2, 3, 4, 5, 6, 7, 8, 9, 10, 11, 12, 13, 14, 15, 16, 17, 18, 19, 20, 21, 22, 23, 24, 25, 26, 27, 28, 29, 30, 31, 32, 33, 34, 35, 36, 37, 38, 39, 40, 41, 42, 43, 44, 45, 46, 47, 48, 49, 50, 51, 52, 53, 54, 55, 56, 57, 58, 59, 60, 61, 62, 63, 64, 65, 66, 67, 68, 69, 70, 71, 72, 73, 74, 75, 76, 77, 78, 79, 80, 81, 82, 83, 84, 85, 86, 87, 88, 89, 90, 91, 92, 93, 94, 95, 96, 97, 98, 99, 100, 101, 102, 103, 104, 105, 106, 107, 108, 109, 110, 111, 112, 113, 114, 115, 116, 117, 118, 119, 120, 121, 122, 123, 124, 125, 126, 127, 128, 129, 130, 131, 132, 133, 134, 135, 136, 137, 138, 139, 140, 141, 142, 143, 144, 145, 146, 147, 148, 149, 150, 151, 152, 153, 154, 155, 156, 157, 158, 159, 160, 161, 162, 163, 164, 165, 166, 167, 168, 169, 170, 171, 172, 173, 174, 175, 176, 177, 178, 179, 180, 181, 182, 183, 184, 185, 186, 187, 188, 189, 190, 191, 192, 193, 194, 195, 196, 197, 198, 199, 200],
      "LargestImagePixelValue": [388, 390, 391, 387, 388, 390, 387, 388, 388, 391, 388, 388, 389, 390, 390, 389, 390, 389, 391, 389, 389, 389, 389, 389, 387, 386, 389, 391, 389, 387, 389, 389, 389, 390, 388, 388, 389, 390, 389, 387, 388, 389, 387, 388, 390, 388, 388, 388, 387, 388, 388, 389, 389, 387, 389, 389, 389, 387, 389, 388, 387, 388, 389, 388, 388, 387, 389, 388, 388, 389, 388, 388, 388, 389, 389, 389, 388, 388, 389, 387, 388, 389, 388, 390, 389, 388, 386, 388, 388, 388, 389, 389, 388, 387, 388, 389, 388, 389, 388, 388, 387, 388, 389, 388, 387, 390, 388, 387, 388, 388, 388, 386, 389, 388, 388, 387, 389, 387, 386, 389, 388, 386, 388, 390, 388, 386, 389, 388, 386, 388, 388, 388, 388, 390, 388, 386, 387, 388, 386, 386, 389, 388, 389, 387, 388, 387, 386, 387, 389, 387, 387, 387, 389, 387, 387, 388, 387, 388, 387, 388, 386, 387, 387, 387, 387, 388, 388, 387, 388, 387, 388, 386, 388, 386, 388, 385, 388, 387, 389, 389, 388, 388, 387, 389, 387, 386, 388, 387, 387, 387, 388, 387, 387, 386, 389, 388, 387, 388, 388, 386],
      "WindowCenter": [301.0, 301.0, 301.0, 301.0, 300.0, 301.0, 301.0, 301.0, 300.0, 301.0, 300.0, 300.0, 301.0, 301.0, 301.0, 300.0, 301.0, 301.0, 301.0, 300.0, 300.0, 301.0, 300.0, 301.0, 301.0, 301.0, 301.0, 301.0, 300.0, 301.0, 301.0, 301.0, 301.0, 301.0, 301.0, 300.0, 301.0, 301.0, 300.0, 300.0, 301.0, 301.0, 301.0, 300.0, 301.0, 300.0, 300.0, 300.0, 301.0, 301.0, 300.0, 301.0, 301.0, 301.0, 300.0, 301.0, 301.0, 299.0, 301.0, 301.0, 300.0, 300.0, 300.0, 301.0, 300.0, 301.0, 301.0, 300.0, 300.0, 301.0, 300.0, 300.0, 300.0, 300.0, 300.0, 300.0, 300.0, 300.0, 300.0, 300.0, 300.0, 300.0, 300.0, 300.0, 301.0, 300.0, 300.0, 301.0, 300.0, 300.0, 301.0, 301.0, 300.0, 300.0, 300.0, 300.0, 300.0, 300.0, 301.0, 300.0, 300.0, 300.0, 300.0, 300.0, 300.0, 301.0, 300.0, 300.0, 300.0, 300.0, 300.0, 300.0, 300.0, 300.0, 300.0, 300.0, 300.0, 300.0, 300.0, 301.0, 300.0, 300.0, 300.0, 300.0, 299.0, 299.0, 300.0, 300.0, 300.0, 300.0, 300.0, 300.0, 300.0, 300.0, 300.0, 300.0, 300.0, 300.0, 300.0, 300.0, 300.0, 300.0, 300.0, 300.0, 300.0, 299.0, 300.0, 300.0, 300.0, 300.0, 300.0, 300.0, 300.0, 300.0, 300.0, 300.0, 299.0, 300.0, 300.0, 300.0, 300.0, 300.0, 300.0, 300.0, 300.0, 300.0, 300.0, 300.0, 300.0, 300.0, 300.0, 300.0, 300.0, 299.0, 300.0, 300.0, 300.0, 300.0, 300.0, 300.0, 300.0, 300.0, 300.0, 300.0, 300.0, 300.0, 300.0, 300.0, 300.0, 300.0, 300.0, 300.0, 300.0, 300.0, 299.0, 300.0, 300.0, 300.0, 300.0, 300.0],
      "WindowWidth": [651.0, 652.0, 652.0, 651.0, 651.0, 653.0, 651.0, 652.0, 651.0, 652.0, 651.0, 651.0, 652.0, 652.0, 652.0, 651.0, 653.0, 651.0, 652.0, 651.0, 651.0, 651.0, 651.0, 652.0, 652.0, 652.0, 651.0, 652.0, 651.0, 651.0, 652.0, 651.0, 651.0, 652.0, 652.0, 651.0, 651.0, 652.0, 651.0, 650.0, 651.0, 651.0, 651.0, 651.0, 652.0, 651.0, 650.0, 651.0, 652.0, 651.0, 651.0, 651.0, 651.0, 651.0, 651.0, 651.0, 651.0, 650.0, 651.0, 651.0, 650.0, 651.0, 651.0, 651.0, 651.0, 651.0, 651.0, 651.0, 650.0, 652.0, 651.0, 651.0, 651.0, 650.0, 650.0, 651.0, 651.0, 651.0, 650.0, 651.0, 651.0, 650.0, 650.0, 651.0, 651.0, 650.0, 650.0, 651.0, 651.0, 650.0, 651.0, 651.0, 650.0, 650.0, 651.0, 651.0, 650.0, 650.0, 651.0, 650.0, 650.0, 650.0, 650.0, 650.0, 650.0, 651.0, 650.0, 650.0, 650.0, 650.0, 650.0, 650.0, 650.0, 650.0, 650.0, 650.0, 650.0, 650.0, 650.0, 651.0, 650.0, 650.0, 650.0, 651.0, 650.0, 650.0, 650.0, 650.0, 650.0, 650.0, 651.0, 650.0, 650.0, 651.0, 650.0, 650.0, 650.0, 650.0, 650.0, 650.0, 650.0, 650.0, 650.0, 650.0, 650.0, 650.0, 650.0, 650.0, 650.0, 650.0, 650.0, 650.0, 650.0, 650.0, 650.0, 650.0, 649.0, 650.0, 650.0, 650.0, 650.0, 650.0, 650.0, 650.0, 650.0, 650.0, 650.0, 650.0, 650.0, 650.0, 650.0, 650.0, 650.0, 649.0, 650.0, 649.0, 650.0, 650.0, 650.0, 650.0, 650.0, 650.0, 649.0, 650.0, 650.0, 650.0, 650.0, 650.0, 650.0, 649.0, 650.0, 650.0, 650.0, 650.0, 649.0, 650.0, 650.0, 650.0, 650.0, 649.0]
    },
    "slices": {}
  }
}