{
  "AcquisitionMatrixPE": 80,
  "AcquisitionNumber": 1,
  "AcquisitionTime": "08:19:23.822500",
  "BandwidthPerPixelPhaseEncode": 48.077,
  "BaseResolution": 80,
  "BodyPartExamined": "BRAIN",
  "CoilCombinationMethod": "Sum of Squares",
  "ConsistencyInfo": "N4_VE11C_LATEST_20160120",
  "ConversionSoftware": "dcm2niix",
  "ConversionSoftwareVersion": "v1.0.20220720",
  "DerivedVendorReportedEchoSpacing": 0.000519999,
  "DeviceSerialNumber": "66112",
  "DwellTime": 2.7e-06,
  "EchoTime": 0.035,
  "EchoTrainLength": 39,
  "EffectiveEchoSpacing": 0.00026,
  "FlipAngle": 90,
  "HeudiconvVersion": "0.13.1",
  "ImageOrientationPatientDICOM": [0.994553, -0.104105, 0.00508627, 0.0973416, 0.945171, 0.311732],
  "ImageOrientationText": "Tra>Cor(18.0)>Sag(2.1)",
  "ImageType": [
    "ORIGINAL",
    "PRIMARY",
    "M",
    "ND",
    "NORM",
    "MOSAIC"
],
  "ImagingFrequency": 123.252,
  "InPlanePhaseEncodingDirectionDICOM": "COL",
  "InstitutionAddress": "Maynard 3,Hanover,NH,US,03755",
  "InstitutionName": "Dartmouth College - PBS",
  "InstitutionalDepartmentName": "Department",
  "MRAcquisitionType": "2D",
  "MagneticFieldStrength": 3,
  "Manufacturer": "Siemens",
  "ManufacturersModelName": "Prisma",
  "MatrixCoilMode": "GRAPPA",
  "Modality": "MR",
  "NonlinearGradientCorrection": false,
  "ParallelReductionFactorInPlane": 2,
  "PartialFourier": 1,
  "PatientPosition": "HFS",
  "PercentPhaseFOV": 100,
  "PercentSampling": 100,
  "PhaseEncodingDirection": "j-",
  "PhaseEncodingSteps": 79,
  "PhaseResolution": 1,
  "PixelBandwidth": 2315,
  "ProcedureStepDescription": "dbic^QA",
  "ProtocolName": "func-bold_task-rest_acq-p2",
  "PulseSequenceDetails": "%SiemensSeq%\\ep2d_bold",
  "ReceiveCoilActiveElements": "HC1-7;NC1,2",
  "ReceiveCoilName": "HeadNeck_64",
  "ReconMatrixPE": 80,
  "RefLinesPE": 24,
  "RepetitionTime": 2,
  "SAR": 0.0361874,
  "ScanOptions": "FS",
  "ScanningSequence": "EP",
  "SequenceName": "*epfid2d1_80",
  "SequenceVariant": "SK",
  "SeriesDescription": "func-bold_task-rest_acq-p2",
  "SeriesNumber": 5,
  "ShimSetting": [4149, -7685, -7511, 199, -96, -351, -30, 73],
  "SliceThickness": 3.5,
  "SliceTiming": [0.99, 0, 1.055, 0.065, 1.1225, 0.1325, 1.1875, 0.1975, 1.255, 0.265, 1.32, 0.33, 1.385, 0.395, 1.4525, 0.4625, 1.5175, 0.5275, 1.585, 0.595, 1.65, 0.66, 1.715, 0.725, 1.7825, 0.7925, 1.8475, 0.8575, 1.915, 0.925],
  "SoftwareVersions": "syngo MR E11",
  "SpacingBetweenSlices": 3.99,
  "StationName": "AWP66112",
  "TaskName": "rest",
  "TotalReadoutTime": 0.02054,
  "TxRefAmp": 215.585,
  "dcmmeta_affine": [
    [-2.9836599826812744, 0.29202479124069214, 0.14866815507411957, 109.34437561035156],
    [0.31231480836868286, 2.835512638092041, 1.2350586652755737, -126.05641174316406],
    [0.015258818864822388, -0.9351946115493774, 3.7911248207092285, -36.78046417236328],
    [0.0, 0.0, 0.0, 1.0]
],
  "dcmmeta_reorient_transform": [
    [0.0, -1.0, 0.0, 79.0],
    [1.0, 0.0, 0.0, 0.0],
    [0.0, 0.0, 1.0, 0.0],
    [0.0, 0.0, 0.0, 1.0]
],
  "dcmmeta_shape": [80, 80, 30, 200],
  "dcmmeta_slice_dim": 2,
  "dcmmeta_version": 0.6,
  "global": {
    "const": {
      "AccessionNumber": "qa64",
      "AcquisitionMatrix": [80, 0, 0, 80],
      "AngioFlag": "N",
      "BitsAllocated": 16,
      "BitsStored": 12,
      "BodyPartExamined": "BRAIN",
      "Columns": 480,
      "EchoNumbers": 1,
      "EchoTime": 35.0,
      "EchoTrainLength": 39,
      "FlipAngle": 90.0,
      "HighBit": 11,
      "ImageOrientationPatient": [0.9945533131543, -0.1041049332184, 0.0050862730363, 0.09734159274524, 0.94517091780415, 0.31173153587515],
      "ImagePositionPatient": [-787.55127749532, -602.5886873857, -300.75152261156],
      "ImageType": [
        "ORIGINAL",
        "PRIMARY",
        "M",
        "ND",
        "NORM",
        "MOSAIC"
],
      "ImagedNucleus": "1H",
      "ImagingFrequency": 123.252338,
      "InPlanePhaseEncodingDirection": "COL",
      "MRAcquisitionType": "2D",
      "MagneticFieldStrength": 3.0,
      "Manufacturer": "SIEMENS",
      "ManufacturerModelName": "Prisma",
      "Modality": "MR",
      "NumberOfAverages": 1.0,
      "NumberOfPhaseEncodingSteps": 79,
      "PercentPhaseFieldOfView": 100.0,
      "PercentSampling": 100.0,
      "PerformedProcedureStepStartTime": "081534.577000",
      "PhotometricInterpretation": "MONOCHROME2",
      "PixelBandwidth": 2315.0,
      "PixelRepresentation": 0,
      "PixelSpacing": [3.0, 3.0],
      "ProtocolName": "func-bold_task-rest_acq-p2",
      "RepetitionTime": 2000.0,
      "Rows": 480,
      "SAR": 0.03618744811483,
      "SamplesPerPixel": 1,
      "ScanOptions": "FS",
      "ScanningSequence": "EP",
      "SequenceName": "*epfid2d1_80",
      "SequenceVariant": "SK",
      "SeriesDescription": "func-bold_task-rest_acq-p2",
      "SeriesNumber": 5,
      "SeriesTime": "082009.025000",
      "SliceLocation": -69.892323780047,
      "SliceThickness": 3.5,
      "SmallestImagePixelValue": 0,
      "SoftwareVersions": "syngo MR E11",
      "SpacingBetweenSlices": 3.9899999597192,
      "SpecificCharacterSet": "ISO_IR 100",
      "StudyID": "53",
      "StudyTime": "081534.375000",
      "TransmitCoilName": "Body",
      "VariableFlipAngleFlag": "N",
      "WindowCenterWidthExplanation": "Algo1",
      "dBdt": 0.0},
    "slices": {}
  },
  "time": {
    "samples": {
      "AcquisitionNumber": [1, 2, 3, 4, 5, 6, 7, 8, 9, 10, 11, 12, 13, 14, 15, 16, 17, 18, 19, 20, 21, 22, 23, 24, 25, 26, 27, 28, 29, 30, 31, 32, 33, 34, 35, 36, 37, 38, 39, 40, 41, 42, 43, 44, 45, 46, 47, 48, 49, 50, 51, 52, 53, 54, 55, 56, 57, 58, 59, 60, 61, 62, 63, 64, 65, 66, 67, 68, 69, 70, 71, 72, 73, 74, 75, 76, 77, 78, 79, 80, 81, 82, 83, 84, 85, 86, 87, 88, 89, 90, 91, 92, 93, 94, 95, 96, 97, 98, 99, 100, 101, 102, 103, 104, 105, 106, 107, 108, 109, 110, 111, 112, 113, 114, 115, 116, 117, 118, 119, 120, 121, 122, 123, 124, 125, 126, 127, 128, 129, 130, 131, 132, 133, 134, 135, 136, 137, 138, 139, 140, 141, 142, 143, 144, 145, 146, 147, 148, 149, 150, 151, 152, 153, 154, 155, 156, 157, 158, 159, 160, 161, 162, 163, 164, 165, 166, 167, 168, 169, 170, 171, 172, 173, 174, 175, 176, 177, 178, 179, 180, 181, 182, 183, 184, 185, 186, 187, 188, 189, 190, 191, 192, 193, 194, 195, 196, 197, 198, 199, 200],
      "AcquisitionTime": ["081923.822500", "081925.822500", "081927.822500", "081929.822500", "081931.822500", "081933.822500", "081935.822500", "081937.822500", "081939.822500", "081941.822500", "081943.822500", "081945.822500", "081947.822500", "081949.822500", "081951.822500", "081953.822500", "081955.822500", "081957.822500", "081959.822500", "082001.822500", "082003.822500", "082005.822500", "082007.822500", "082009.822500", "082011.822500", "082013.822500", "082015.822500", "082017.822500", "082019.822500", "082021.822500", "082023.822500", "082025.822500", "082027.822500", "082029.822500", "082031.822500", "082033.822500", "082035.822500", "082037.822500", "082039.822500", "082041.822500", "082043.822500", "082045.822500", "082047.822500", "082049.822500", "082051.822500", "082053.822500", "082055.822500", "082057.822500", "082059.822500", "082101.822500", "082103.822500", "082105.822500", "082107.822500", "082109.822500", "082111.822500", "082113.822500", "082115.822500", "082117.822500", "082119.822500", "082121.822500", "082123.822500", "082125.822500", "082127.822500", "082129.822500", "082131.822500", "082133.822500", "082135.822500", "082137.822500", "082139.822500", "082141.822500", "082143.822500", "082145.822500", "082147.822500", "082149.822500", "082151.822500", "082153.822500", "082155.822500", "082157.822500", "082159.822500", "082201.822500", "082203.822500", "082205.822500", "082207.822500", "082209.822500", "082211.822500", "082213.822500", "082215.822500", "082217.822500", "082219.822500", "082221.822500", "082223.822500", "082225.822500", "082227.822500", "082229.822500", "082231.822500", "082233.822500", "082235.822500", "082237.822500", "082239.822500", "082241.822500", "082243.822500", "082245.822500", "082247.822500", "082249.822500", "082251.822500", "082253.822500", "082255.822500", "082257.822500", "082259.822500", "082301.822500", "082303.822500", "082305.822500", "082307.822500", "082309.822500", "082311.822500", "082313.822500", "082315.822500", "082317.822500", "082319.822500", "082321.822500", "082323.822500", "082325.822500", "082327.822500", "082329.822500", "082331.822500", "082333.822500", "082335.822500", "082337.822500", "082339.822500", "082341.822500", "082343.822500", "082345.822500", "082347.822500", "082349.822500", "082351.822500", "082353.822500", "082355.822500", "082357.822500", "082359.822500", "082401.822500", "082403.822500", "082405.822500", "082407.822500", "082409.822500", "082411.822500", "082413.822500", "082415.822500", "082417.822500", "082419.822500", "082421.822500", "082423.822500", "082425.822500", "082427.822500", "082429.822500", "082431.822500", "082433.822500", "082435.822500", "082437.822500", "082439.822500", "082441.822500", "082443.822500", "082445.822500", "082447.822500", "082449.822500", "082451.822500", "082453.822500", "082455.822500", "082457.822500", "082459.822500", "082501.822500", "082503.822500", "082505.822500", "082507.822500", "082509.822500", "082511.822500", "082513.822500", "082515.822500", "082517.822500", "082519.822500", "082521.822500", "082523.822500", "082525.822500", "082527.822500", "082529.822500", "082531.822500", "082533.822500", "082535.822500", "082537.822500", "082539.822500", "082541.822500", "082543.822500", "082545.822500", "082547.822500", "082549.822500", "082551.822500", "082553.822500", "082555.822500", "082557.822500", "082559.822500", "082601.822500"],
      "ContentTime": ["082009.029000", "082009.032000", "082009.035000", "082009.037000", "082009.040000", "082009.042000", "082009.045000", "082009.056000", "082009.058000", "082009.061000", "082009.063000", "082009.066000", "082009.068000", "082009.071000", "082009.073000", "082009.076000", "082009.078000", "082009.081000", "082009.083000", "082009.086000", "082009.089000", "082009.091000", "082009.094000", "082049.025000", "082049.027000", "082049.030000", "082049.032000", "082049.051000", "082049.054000", "082049.057000", "082049.059000", "082049.062000", "082049.064000", "082049.067000", "082049.069000", "082049.072000", "082049.075000", "082049.077000", "082049.080000", "082049.082000", "082049.089000", "082049.091000", "082049.094000", "082129.024000", "082129.027000", "082129.030000", "082129.032000", "082129.035000", "082129.037000", "082129.040000", "082129.042000", "082129.045000", "082129.047000", "082129.050000", "082129.053000", "082129.067000", "082129.070000", "082129.073000", "082129.075000", "082129.078000", "082129.080000", "082129.083000", "082129.085000", "082209.024000", "082209.027000", "082209.029000", "082209.032000", "082209.034000", "082209.037000", "082209.039000", "082209.042000", "082209.045000", "082209.047000", "082209.050000", "082209.052000", "082209.055000", "082209.057000", "082209.060000", "082209.062000", "082209.065000", "082209.067000", "082209.070000", "082209.073000", "082249.024000", "082249.026000", "082249.029000", "082249.032000", "082249.034000", "082249.037000", "082249.039000", "082249.042000", "082249.044000", "082249.047000", "082249.049000", "082249.052000", "082249.054000", "082249.057000", "082249.059000", "082249.062000", "082249.064000", "082249.067000", "082249.070000", "082249.072000", "082329.024000", "082329.035000", "082329.038000", "082329.040000", "082329.043000", "082329.046000", "082329.059000", "082329.062000", "082329.064000", "082329.067000", "082329.069000", "082329.072000", "082329.075000", "082329.077000", "082329.080000", "082329.082000", "082329.085000", "082329.088000", "082329.090000", "082329.093000", "082349.024000", "082349.027000", "082349.030000", "082349.032000", "082349.035000", "082349.038000", "082349.040000", "082349.043000", "082349.045000", "082349.048000", "082429.024000", "082429.026000", "082429.029000", "082429.032000", "082429.034000", "082429.037000", "082429.039000", "082429.042000", "082429.044000", "082429.047000", "082429.049000", "082429.052000", "082429.055000", "082429.057000", "082429.060000", "082429.062000", "082429.065000", "082429.067000", "082429.070000", "082429.073000", "082509.023000", "082509.026000", "082509.029000", "082509.032000", "082509.034000", "082509.037000", "082509.039000", "082509.042000", "082509.044000", "082509.047000", "082509.049000", "082509.052000", "082509.061000", "082509.063000", "082509.066000", "082509.069000", "082509.071000", "082509.074000", "082509.076000", "082509.079000", "082549.024000", "082549.027000", "082549.036000", "082549.039000", "082549.041000", "082549.044000", "082549.046000", "082549.049000", "082549.051000", "082549.054000", "082549.057000", "082549.059000", "082549.062000", "082549.064000", "082549.067000", "082549.070000", "082549.072000", "082549.075000", "082549.077000", "082549.080000", "082602.889000", "082602.892000", "082602.894000", "082602.897000", "082602.900000", "082602.902000", "082602.905000"],
      "InstanceCreationTime": ["082009.029000", "082009.032000", "082009.035000", "082009.037000", "082009.040000", "082009.042000", "082009.045000", "082009.056000", "082009.058000", "082009.061000", "082009.063000", "082009.066000", "082009.068000", "082009.071000", "082009.073000", "082009.076000", "082009.078000", "082009.081000", "082009.083000", "082009.086000", "082009.089000", "082009.091000", "082009.094000", "082049.025000", "082049.027000", "082049.030000", "082049.032000", "082049.051000", "082049.054000", "082049.057000", "082049.059000", "082049.062000", "082049.064000", "082049.067000", "082049.069000", "082049.072000", "082049.075000", "082049.077000", "082049.080000", "082049.082000", "082049.089000", "082049.091000", "082049.094000", "082129.024000", "082129.027000", "082129.030000", "082129.032000", "082129.035000", "082129.037000", "082129.040000", "082129.042000", "082129.045000", "082129.047000", "082129.050000", "082129.053000", "082129.067000", "082129.070000", "082129.073000", "082129.075000", "082129.078000", "082129.080000", "082129.083000", "082129.085000", "082209.024000", "082209.027000", "082209.029000", "082209.032000", "082209.034000", "082209.037000", "082209.039000", "082209.042000", "082209.045000", "082209.047000", "082209.050000", "082209.052000", "082209.055000", "082209.057000", "082209.060000", "082209.062000", "082209.065000", "082209.067000", "082209.070000", "082209.073000", "082249.024000", "082249.026000", "082249.029000", "082249.032000", "082249.034000", "082249.037000", "082249.039000", "082249.042000", "082249.044000", "082249.047000", "082249.049000", "082249.052000", "082249.054000", "082249.057000", "082249.059000", "082249.062000", "082249.064000", "082249.067000", "082249.070000", "082249.072000", "082329.024000", "082329.035000", "082329.038000", "082329.040000", "082329.043000", "082329.046000", "082329.059000", "082329.062000", "082329.064000", "082329.067000", "082329.069000", "082329.072000", "082329.075000", "082329.077000", "082329.080000", "082329.082000", "082329.085000", "082329.088000", "082329.090000", "082329.093000", "082349.024000", "082349.027000", "082349.030000", "082349.032000", "082349.035000", "082349.038000", "082349.040000", "082349.043000", "082349.045000", "082349.048000", "082429.024000", "082429.026000", "082429.029000", "082429.032000", "082429.034000", "082429.037000", "082429.039000", "082429.042000", "082429.044000", "082429.047000", "082429.049000", "082429.052000", "082429.055000", "082429.057000", "082429.060000", "082429.062000", "082429.065000", "082429.067000", "082429.070000", "082429.073000", "082509.023000", "082509.026000", "082509.029000", "082509.032000", "082509.034000", "082509.037000", "082509.039000", "082509.042000", "082509.044000", "082509.047000", "082509.049000", "082509.052000", "082509.061000", "082509.063000", "082509.066000", "082509.069000", "082509.071000", "082509.074000", "082509.076000", "082509.079000", "082549.024000", "082549.027000", "082549.036000", "082549.039000", "082549.041000", "082549.044000", "082549.046000", "082549.049000", "082549.051000", "082549.054000", "082549.057000", "082549.059000", "082549.062000", "082549.064000", "082549.067000", "082549.070000", "082549.072000", "082549.075000", "082549.077000", "082549.080000", "082602.889000", "082602.892000", "082602.894000", "082602.897000", "082602.900000", "082602.902000", "082602.905000"],
      "InstanceNumber": [1, 2, 3, 4, 5, 6, 7, 8, 9, 10, 11, 12, 13, 14, 15, 16, 17, 18, 19, 20, 21, 22, 23, 24, 25, 26, 27, 28, 29, 30, 31, 32, 33, 34, 35, 36, 37, 38, 39, 40, 41, 42, 43, 44, 45, 46, 47, 48, 49, 50, 51, 52, 53, 54, 55, 56, 57, 58, 59, 60, 61, 62, 63, 64, 65, 66, 67, 68, 69, 70, 71, 72, 73, 74, 75, 76, 77, 78, 79, 80, 81, 82, 83, 84, 85, 86, 87, 88, 89, 90, 91, 92, 93, 94, 95, 96, 97, 98, 99, 100, 101, 102, 103, 104, 105, 106, 107, 108, 109, 110, 111, 112, 113, 114, 115, 116, 117, 118, 119, 120, 121, 122, 123, 124, 125, 126, 127, 128, 129, 130, 131, 132, 133, 134, 135, 136, 137, 138, 139, 140, 141, 142, 143, 144, 145, 146, 147, 148, 149, 150, 151, 152, 153, 154, 155, 156, 157, 158, 159, 160, 161, 162, 163, 164, 165, 166, 167, 168, 169, 170, 171, 172, 173, 174, 175, 176, 177, 178, 179, 180, 181, 182, 183, 184, 185, 186, 187, 188, 189, 190, 191, 192, 193, 194, 195, 196, 197, 198, 199, 200],
      "LargestImagePixelValue": [3745, 3758, 3746, 3746, 3758, 3748, 3748, 3748, 3748, 3751, 3752, 3748, 3755, 3759, 3758, 3750, 3748, 3742, 3749, 3740, 3751, 3737, 3752, 3743, 3748, 3746, 3749, 3737, 3745, 3742, 3751, 3741, 3749, 3746, 3741, 3735, 3738, 3735, 3751, 3743, 3741, 3744, 3740, 3737, 3734, 3747, 3742, 3739, 3746, 3753, 3738, 3740, 3742, 3742, 3743, 3748, 3738, 3745, 3736, 3736, 3739, 3743, 3733, 3741, 3752, 3740, 3742, 3729, 3743, 3744, 3731, 3734, 3731, 3741, 3752, 3738, 3735, 3744, 3746, 3757, 3739, 3759, 3754, 3756, 3759, 3771, 3762, 3765, 3771, 3768, 3766, 3776, 3767, 3765, 3780, 3771, 3769, 3775, 3757, 3774, 3759, 3752, 3760, 3764, 3762, 3761, 3766, 3763, 3759, 3747, 3746, 3754, 3741, 3741, 3738, 3750, 3749, 3745, 3743, 3735, 3737, 3738, 3730, 3724, 3745, 3737, 3745, 3736, 3734, 3734, 3725, 3728, 3730, 3731, 3732, 3745, 3730, 3737, 3735, 3732, 3742, 3751, 3734, 3741, 3745, 3739, 3741, 3760, 3748, 3750, 3742, 3743, 3760, 3751, 3760, 3754, 3747, 3738, 3756, 3747, 3741, 3758, 3749, 3738, 3746, 3734, 3758, 3760, 3743, 3743, 3742, 3748, 3744, 3750, 3736, 3736, 3732, 3735, 3742, 3746, 3751, 3743, 3741, 3737, 3743, 3753, 3738, 3757, 3743, 3750, 3744, 3742, 3756, 3748, 3737, 3745, 3747, 3771, 3744, 3751],
      "WindowCenter": [1427.0, 1425.0, 1426.0, 1427.0, 1426.0, 1426.0, 1426.0, 1427.0, 1426.0, 1426.0, 1425.0, 1426.0, 1425.0, 1425.0, 1425.0, 1424.0, 1425.0, 1425.0, 1424.0, 1425.0, 1425.0, 1424.0, 1425.0, 1425.0, 1424.0, 1424.0, 1425.0, 1424.0, 1424.0, 1425.0, 1424.0, 1424.0, 1424.0, 1424.0, 1424.0, 1424.0, 1424.0, 1424.0, 1424.0, 1423.0, 1423.0, 1424.0, 1424.0, 1424.0, 1423.0, 1423.0, 1423.0, 1423.0, 1423.0, 1423.0, 1423.0, 1423.0, 1422.0, 1423.0, 1423.0, 1423.0, 1422.0, 1423.0, 1423.0, 1422.0, 1423.0, 1422.0, 1422.0, 1422.0, 1423.0, 1422.0, 1422.0, 1421.0, 1422.0, 1423.0, 1423.0, 1422.0, 1422.0, 1422.0, 1421.0, 1422.0, 1422.0, 1422.0, 1422.0, 1423.0, 1422.0, 1421.0, 1422.0, 1422.0, 1422.0, 1422.0, 1422.0, 1421.0, 1421.0, 1421.0, 1421.0, 1421.0, 1422.0, 1421.0, 1421.0, 1421.0, 1420.0, 1421.0, 1420.0, 1421.0, 1420.0, 1421.0, 1420.0, 1420.0, 1420.0, 1421.0, 1421.0, 1420.0, 1421.0, 1420.0, 1420.0, 1420.0, 1421.0, 1420.0, 1420.0, 1420.0, 1420.0, 1420.0, 1419.0, 1420.0, 1419.0, 1420.0, 1420.0, 1420.0, 1420.0, 1419.0, 1420.0, 1420.0, 1419.0, 1420.0, 1420.0, 1420.0, 1419.0, 1420.0, 1419.0, 1420.0, 1419.0, 1419.0, 1420.0, 1420.0, 1420.0, 1420.0, 1419.0, 1419.0, 1420.0, 1419.0, 1419.0, 1419.0, 1419.0, 1419.0, 1419.0, 1419.0, 1419.0, 1419.0, 1418.0, 1419.0, 1419.0, 1419.0, 1419.0, 1419.0, 1419.0, 1418.0, 1419.0, 1419.0, 1419.0, 1419.0, 1419.0, 1419.0, 1419.0, 1419.0, 1418.0, 1418.0, 1418.0, 1417.0, 1418.0, 1418.0, 1418.0, 1418.0, 1418.0, 1417.0, 1418.0, 1419.0, 1419.0, 1417.0, 1418.0, 1418.0, 1418.0, 1418.0, 1418.0, 1418.0, 1418.0, 1417.0, 1417.0, 1418.0, 1418.0, 1417.0, 1417.0, 1417.0, 1417.0, 1417.0],
      "WindowWidth": [3279.0, 3278.0, 3278.0, 3278.0, 3278.0, 3278.0, 3278.0, 3277.0, 3278.0, 3277.0, 3277.0, 3277.0, 3277.0, 3277.0, 3277.0, 3277.0, 3277.0, 3277.0, 3277.0, 3277.0, 3277.0, 3277.0, 3277.0, 3277.0, 3277.0, 3277.0, 3276.0, 3276.0, 3277.0, 3276.0, 3276.0, 3276.0, 3276.0, 3276.0, 3276.0, 3276.0, 3276.0, 3276.0, 3276.0, 3276.0, 3276.0, 3276.0, 3276.0, 3276.0, 3276.0, 3276.0, 3276.0, 3276.0, 3276.0, 3276.0, 3276.0, 3276.0, 3276.0, 3276.0, 3276.0, 3276.0, 3276.0, 3276.0, 3276.0, 3276.0, 3276.0, 3276.0, 3276.0, 3275.0, 3276.0, 3275.0, 3275.0, 3276.0, 3275.0, 3275.0, 3275.0, 3275.0, 3275.0, 3275.0, 3276.0, 3275.0, 3275.0, 3275.0, 3275.0, 3275.0, 3275.0, 3275.0, 3275.0, 3275.0, 3275.0, 3275.0, 3275.0, 3275.0, 3275.0, 3275.0, 3275.0, 3275.0, 3275.0, 3275.0, 3275.0, 3275.0, 3275.0, 3275.0, 3275.0, 3275.0, 3275.0, 3275.0, 3275.0, 3275.0, 3274.0, 3274.0, 3274.0, 3275.0, 3274.0, 3274.0, 3275.0, 3275.0, 3274.0, 3274.0, 3274.0, 3274.0, 3274.0, 3274.0, 3275.0, 3274.0, 3275.0, 3274.0, 3274.0, 3274.0, 3274.0, 3275.0, 3274.0, 3274.0, 3274.0, 3274.0, 3274.0, 3274.0, 3274.0, 3274.0, 3274.0, 3274.0, 3275.0, 3275.0, 3275.0, 3274.0, 3274.0, 3274.0, 3274.0, 3274.0, 3274.0, 3274.0, 3274.0, 3274.0, 3274.0, 3274.0, 3274.0, 3274.0, 3273.0, 3273.0, 3274.0, 3273.0, 3273.0, 3273.0, 3273.0, 3273.0, 3273.0, 3274.0, 3273.0, 3273.0, 3273.0, 3273.0, 3273.0, 3273.0, 3273.0, 3273.0, 3273.0, 3273.0, 3273.0, 3274.0, 3273.0, 3273.0, 3273.0, 3273.0, 3273.0, 3273.0, 3273.0, 3273.0, 3273.0, 3273.0, 3273.0, 3273.0, 3273.0, 3273.0, 3273.0, 3273.0, 3273.0, 3273.0, 3273.0, 3273.0, 3273.0, 3273.0, 3273.0, 3273.0, 3273.0, 3273.0]
    },
    "slices": {}
  }
}