{
  "AcquisitionMatrixPE": 80,
  "AcquisitionNumber": 1,
  "AcquisitionTime": "08:58:48.835000",
  "BandwidthPerPixelPhaseEncode": 48.077,
  "BaseResolution": 80,
  "BodyPartExamined": "BRAIN",
  "CoilCombinationMethod": "Sum of Squares",
  "ConsistencyInfo": "N4_VE11C_LATEST_20160120",
  "ConversionSoftware": "dcm2niix",
  "ConversionSoftwareVersion": "v1.0.20220720",
  "DerivedVendorReportedEchoSpacing": 0.000519999,
  "DeviceSerialNumber": "66112",
  "DwellTime": 2.7e-06,
  "EchoTime": 0.035,
  "EchoTrainLength": 39,
  "EffectiveEchoSpacing": 0.00026,
  "FlipAngle": 90,
  "HeudiconvVersion": "0.13.1",
  "ImageOrientationPatientDICOM": [0.991314, -0.131459, 0.00380786, 0.125232, 0.952405, 0.277923],
  "ImageOrientationText": "Tra>Cor(16.0)>Sag(2.3)",
  "ImageType": [
    "ORIGINAL",
    "PRIMARY",
    "M",
    "ND",
    "NORM",
    "MOSAIC"
],
  "ImagingFrequency": 123.252,
  "InPlanePhaseEncodingDirectionDICOM": "COL",
  "InstitutionAddress": "Maynard 3,Hanover,NH,US,03755",
  "InstitutionName": "Dartmouth College - PBS",
  "InstitutionalDepartmentName": "Department",
  "MRAcquisitionType": "2D",
  "MagneticFieldStrength": 3,
  "Manufacturer": "Siemens",
  "ManufacturersModelName": "Prisma",
  "MatrixCoilMode": "GRAPPA",
  "Modality": "MR",
  "NonlinearGradientCorrection": false,
  "ParallelReductionFactorInPlane": 2,
  "PartialFourier": 1,
  "PatientPosition": "HFS",
  "PercentPhaseFOV": 100,
  "PercentSampling": 100,
  "PhaseEncodingDirection": "j-",
  "PhaseEncodingSteps": 79,
  "PhaseResolution": 1,
  "PixelBandwidth": 2315,
  "ProcedureStepDescription": "dbic^QA",
  "ProtocolName": "func-bold_task-rest_acq-p2",
  "PulseSequenceDetails": "%SiemensSeq%\\ep2d_bold",
  "ReceiveCoilActiveElements": "HC1-7;NC1,2",
  "ReceiveCoilName": "HeadNeck_64",
  "ReconMatrixPE": 80,
  "RefLinesPE": 24,
  "RepetitionTime": 2,
  "SAR": 0.0361192,
  "ScanOptions": "FS",
  "ScanningSequence": "EP",
  "SequenceName": "*epfid2d1_80",
  "SequenceVariant": "SK",
  "SeriesDescription": "func-bold_task-rest_acq-p2",
  "SeriesNumber": 5,
  "ShimSetting": [4140, -7700, -7513, 189, -75, -281, -35, 80],
  "SliceThickness": 3.5,
  "SliceTiming": [0.99, 0, 1.055, 0.065, 1.1225, 0.1325, 1.1875, 0.1975, 1.2525, 0.265, 1.32, 0.33, 1.385, 0.395, 1.4525, 0.4625, 1.5175, 0.5275, 1.5825, 0.5925, 1.65, 0.66, 1.715, 0.725, 1.7825, 0.7925, 1.8475, 0.8575, 1.9125, 0.9225],
  "SoftwareVersions": "syngo MR E11",
  "SpacingBetweenSlices": 3.99,
  "StationName": "AWP66112",
  "TaskName": "rest",
  "TotalReadoutTime": 0.02054,
  "TxRefAmp": 210.184,
  "dcmmeta_affine": [
    [-2.973942756652832, 0.3756961524486542, 0.16024695336818695, 105.24264526367188],
    [0.39437809586524963, 2.8572161197662354, 1.0973765850067139, -127.62931823730469],
    [0.011423570103943348, -0.8337676525115967, 3.832777976989746, -33.72921371459961],
    [0.0, 0.0, 0.0, 1.0]
],
  "dcmmeta_reorient_transform": [
    [0.0, -1.0, 0.0, 79.0],
    [1.0, 0.0, 0.0, 0.0],
    [0.0, 0.0, 1.0, 0.0],
    [0.0, 0.0, 0.0, 1.0]
],
  "dcmmeta_shape": [80, 80, 30, 200],
  "dcmmeta_slice_dim": 2,
  "dcmmeta_version": 0.6,
  "global": {
    "const": {
      "AccessionNumber": "qa64",
      "AcquisitionMatrix": [80, 0, 0, 80],
      "AngioFlag": "N",
      "BitsAllocated": 16,
      "BitsStored": 12,
      "BodyPartExamined": "BRAIN",
      "Columns": 480,
      "EchoNumbers": 1,
      "EchoTime": 35.0,
      "EchoTrainLength": 39,
      "FlipAngle": 90.0,
      "HighBit": 11,
      "ImageOrientationPatient": [0.99131424696699, -0.1314593624935, 0.00380785675706, 0.12523204853417, 0.95240537264954, 0.27792254346889],
      "ImagePositionPatient": [-804.85042142918, -590.65836265344, -268.63509562118],
      "ImageType": [
        "ORIGINAL",
        "PRIMARY",
        "M",
        "ND",
        "NORM",
        "MOSAIC"
],
      "ImagedNucleus": "1H",
      "ImagingFrequency": 123.25234,
      "InPlanePhaseEncodingDirection": "COL",
      "MRAcquisitionType": "2D",
      "MagneticFieldStrength": 3.0,
      "Manufacturer": "SIEMENS",
      "ManufacturerModelName": "Prisma",
      "Modality": "MR",
      "NumberOfAverages": 1.0,
      "NumberOfPhaseEncodingSteps": 79,
      "PercentPhaseFieldOfView": 100.0,
      "PercentSampling": 100.0,
      "PerformedProcedureStepStartTime": "084945.242000",
      "PhotometricInterpretation": "MONOCHROME2",
      "PixelBandwidth": 2315.0,
      "PixelRepresentation": 0,
      "PixelSpacing": [3.0, 3.0],
      "ProtocolName": "func-bold_task-rest_acq-p2",
      "RepetitionTime": 2000.0,
      "Rows": 480,
      "SAR": 0.03611918537165,
      "SamplesPerPixel": 1,
      "ScanOptions": "FS",
      "ScanningSequence": "EP",
      "SequenceName": "*epfid2d1_80",
      "SequenceVariant": "SK",
      "SeriesDescription": "func-bold_task-rest_acq-p2",
      "SeriesNumber": 5,
      "SeriesTime": "085933.834000",
      "SliceLocation": -63.275483782253,
      "SliceThickness": 3.5,
      "SmallestImagePixelValue": 0,
      "SoftwareVersions": "syngo MR E11",
      "SpacingBetweenSlices": 3.9900000831614,
      "SpecificCharacterSet": "ISO_IR 100",
      "StudyID": "2",
      "StudyTime": "084945.173000",
      "TransmitCoilName": "Body",
      "VariableFlipAngleFlag": "N",
      "WindowCenterWidthExplanation": "Algo1",
      "dBdt": 0.0},
    "slices": {}
  },
  "time": {
    "samples": {
      "AcquisitionNumber": [1, 2, 3, 4, 5, 6, 7, 8, 9, 10, 11, 12, 13, 14, 15, 16, 17, 18, 19, 20, 21, 22, 23, 24, 25, 26, 27, 28, 29, 30, 31, 32, 33, 34, 35, 36, 37, 38, 39, 40, 41, 42, 43, 44, 45, 46, 47, 48, 49, 50, 51, 52, 53, 54, 55, 56, 57, 58, 59, 60, 61, 62, 63, 64, 65, 66, 67, 68, 69, 70, 71, 72, 73, 74, 75, 76, 77, 78, 79, 80, 81, 82, 83, 84, 85, 86, 87, 88, 89, 90, 91, 92, 93, 94, 95, 96, 97, 98, 99, 100, 101, 102, 103, 104, 105, 106, 107, 108, 109, 110, 111, 112, 113, 114, 115, 116, 117, 118, 119, 120, 121, 122, 123, 124, 125, 126, 127, 128, 129, 130, 131, 132, 133, 134, 135, 136, 137, 138, 139, 140, 141, 142, 143, 144, 145, 146, 147, 148, 149, 150, 151, 152, 153, 154, 155, 156, 157, 158, 159, 160, 161, 162, 163, 164, 165, 166, 167, 168, 169, 170, 171, 172, 173, 174, 175, 176, 177, 178, 179, 180, 181, 182, 183, 184, 185, 186, 187, 188, 189, 190, 191, 192, 193, 194, 195, 196, 197, 198, 199, 200],
      "AcquisitionTime": ["085848.835000", "085850.835000", "085852.835000", "085854.835000", "085856.835000", "085858.835000", "085900.835000", "085902.835000", "085904.835000", "085906.835000", "085908.835000", "085910.835000", "085912.835000", "085914.835000", "085916.835000", "085918.835000", "085920.835000", "085922.835000", "085924.835000", "085926.835000", "085928.835000", "085930.835000", "085932.835000", "085934.835000", "085936.835000", "085938.835000", "085940.835000", "085942.835000", "085944.835000", "085946.835000", "085948.835000", "085950.835000", "085952.835000", "085954.835000", "085956.835000", "085958.835000", "090000.835000", "090002.835000", "090004.835000", "090006.835000", "090008.835000", "090010.835000", "090012.835000", "090014.835000", "090016.835000", "090018.835000", "090020.835000", "090022.835000", "090024.835000", "090026.835000", "090028.835000", "090030.835000", "090032.835000", "090034.835000", "090036.835000", "090038.835000", "090040.835000", "090042.835000", "090044.835000", "090046.835000", "090048.835000", "090050.835000", "090052.835000", "090054.835000", "090056.835000", "090058.835000", "090100.835000", "090102.835000", "090104.835000", "090106.835000", "090108.835000", "090110.835000", "090112.835000", "090114.835000", "090116.835000", "090118.835000", "090120.835000", "090122.835000", "090124.835000", "090126.835000", "090128.835000", "090130.835000", "090132.835000", "090134.835000", "090136.835000", "090138.835000", "090140.835000", "090142.835000", "090144.835000", "090146.835000", "090148.835000", "090150.835000", "090152.835000", "090154.835000", "090156.835000", "090158.835000", "090200.835000", "090202.835000", "090204.835000", "090206.835000", "090208.835000", "090210.835000", "090212.835000", "090214.835000", "090216.835000", "090218.835000", "090220.835000", "090222.835000", "090224.835000", "090226.835000", "090228.835000", "090230.835000", "090232.835000", "090234.835000", "090236.835000", "090238.835000", "090240.835000", "090242.835000", "090244.835000", "090246.835000", "090248.835000", "090250.835000", "090252.835000", "090254.835000", "090256.835000", "090258.835000", "090300.835000", "090302.835000", "090304.835000", "090306.835000", "090308.835000", "090310.835000", "090312.835000", "090314.835000", "090316.835000", "090318.835000", "090320.835000", "090322.835000", "090324.835000", "090326.835000", "090328.835000", "090330.835000", "090332.835000", "090334.835000", "090336.835000", "090338.835000", "090340.835000", "090342.835000", "090344.835000", "090346.835000", "090348.835000", "090350.835000", "090352.835000", "090354.835000", "090356.835000", "090358.835000", "090400.835000", "090402.835000", "090404.835000", "090406.835000", "090408.835000", "090410.835000", "090412.835000", "090414.835000", "090416.835000", "090418.835000", "090420.835000", "090422.835000", "090424.835000", "090426.835000", "090428.835000", "090430.835000", "090432.835000", "090434.835000", "090436.835000", "090438.835000", "090440.835000", "090442.835000", "090444.835000", "090446.835000", "090448.835000", "090450.835000", "090452.835000", "090454.835000", "090456.835000", "090458.835000", "090500.835000", "090502.835000", "090504.835000", "090506.835000", "090508.835000", "090510.835000", "090512.835000", "090514.835000", "090516.835000", "090518.835000", "090520.835000", "090522.835000", "090524.835000", "090526.835000"],
      "ContentTime": ["085933.837000", "085933.841000", "085933.844000", "085933.846000", "085933.849000", "085933.851000", "085933.854000", "085933.862000", "085933.865000", "085933.868000", "085933.870000", "085933.873000", "085933.875000", "085933.878000", "085933.880000", "085933.883000", "085933.886000", "085933.888000", "085933.891000", "085933.893000", "085933.896000", "085933.898000", "090013.834000", "090013.836000", "090013.839000", "090013.842000", "090013.844000", "090013.852000", "090013.855000", "090013.857000", "090013.860000", "090013.862000", "090013.865000", "090013.867000", "090013.870000", "090013.872000", "090013.875000", "090013.878000", "090013.880000", "090013.883000", "090013.885000", "090013.888000", "090053.834000", "090053.836000", "090053.839000", "090053.842000", "090053.844000", "090053.847000", "090053.849000", "090053.852000", "090053.854000", "090053.857000", "090053.859000", "090053.862000", "090053.864000", "090053.867000", "090053.870000", "090053.872000", "090053.875000", "090053.877000", "090053.880000", "090053.882000", "090133.832000", "090133.835000", "090133.838000", "090133.841000", "090133.843000", "090133.846000", "090133.848000", "090133.851000", "090133.853000", "090133.856000", "090133.858000", "090133.861000", "090133.863000", "090133.866000", "090133.869000", "090133.871000", "090133.874000", "090133.876000", "090133.879000", "090133.881000", "090213.832000", "090213.835000", "090213.838000", "090213.841000", "090213.843000", "090213.846000", "090213.848000", "090213.851000", "090213.853000", "090213.856000", "090213.859000", "090213.861000", "090213.864000", "090213.866000", "090213.869000", "090213.871000", "090213.874000", "090213.876000", "090213.879000", "090213.881000", "090253.834000", "090253.836000", "090253.839000", "090253.842000", "090253.844000", "090253.847000", "090253.849000", "090253.852000", "090253.854000", "090253.857000", "090253.860000", "090253.862000", "090253.865000", "090253.867000", "090253.870000", "090253.872000", "090253.875000", "090253.877000", "090253.880000", "090253.883000", "090333.834000", "090333.836000", "090333.839000", "090333.842000", "090333.844000", "090333.847000", "090333.850000", "090333.852000", "090333.855000", "090333.857000", "090333.860000", "090333.862000", "090333.865000", "090333.867000", "090333.870000", "090333.873000", "090333.875000", "090333.878000", "090333.880000", "090333.883000", "090413.833000", "090413.835000", "090413.843000", "090413.846000", "090413.848000", "090413.851000", "090413.853000", "090413.856000", "090413.858000", "090413.861000", "090413.863000", "090413.866000", "090413.868000", "090413.871000", "090413.874000", "090413.876000", "090413.879000", "090413.881000", "090413.884000", "090413.887000", "090453.833000", "090453.836000", "090453.839000", "090453.842000", "090453.844000", "090453.847000", "090453.849000", "090453.852000", "090453.854000", "090453.857000", "090453.859000", "090453.862000", "090453.864000", "090453.867000", "090453.870000", "090453.872000", "090453.875000", "090453.877000", "090453.880000", "090453.882000", "090528.769000", "090528.772000", "090528.775000", "090528.778000", "090528.780000", "090528.783000", "090528.786000", "090528.789000", "090528.791000", "090528.794000", "090528.796000", "090528.799000", "090528.803000", "090528.809000", "090528.812000", "090528.818000", "090528.826000", "090528.830000"],
      "InstanceCreationTime": ["085933.837000", "085933.841000", "085933.844000", "085933.846000", "085933.849000", "085933.851000", "085933.854000", "085933.862000", "085933.865000", "085933.868000", "085933.870000", "085933.873000", "085933.875000", "085933.878000", "085933.880000", "085933.883000", "085933.886000", "085933.888000", "085933.891000", "085933.893000", "085933.896000", "085933.898000", "090013.834000", "090013.836000", "090013.839000", "090013.842000", "090013.844000", "090013.852000", "090013.855000", "090013.857000", "090013.860000", "090013.862000", "090013.865000", "090013.867000", "090013.870000", "090013.872000", "090013.875000", "090013.878000", "090013.880000", "090013.883000", "090013.885000", "090013.888000", "090053.834000", "090053.836000", "090053.839000", "090053.842000", "090053.844000", "090053.847000", "090053.849000", "090053.852000", "090053.854000", "090053.857000", "090053.859000", "090053.862000", "090053.864000", "090053.867000", "090053.870000", "090053.872000", "090053.875000", "090053.877000", "090053.880000", "090053.882000", "090133.832000", "090133.835000", "090133.838000", "090133.841000", "090133.843000", "090133.846000", "090133.848000", "090133.851000", "090133.853000", "090133.856000", "090133.858000", "090133.861000", "090133.863000", "090133.866000", "090133.869000", "090133.871000", "090133.874000", "090133.876000", "090133.879000", "090133.881000", "090213.832000", "090213.835000", "090213.838000", "090213.841000", "090213.843000", "090213.846000", "090213.848000", "090213.851000", "090213.853000", "090213.856000", "090213.859000", "090213.861000", "090213.864000", "090213.866000", "090213.869000", "090213.871000", "090213.874000", "090213.876000", "090213.879000", "090213.881000", "090253.834000", "090253.836000", "090253.839000", "090253.842000", "090253.844000", "090253.847000", "090253.849000", "090253.852000", "090253.854000", "090253.857000", "090253.860000", "090253.862000", "090253.865000", "090253.867000", "090253.870000", "090253.872000", "090253.875000", "090253.877000", "090253.880000", "090253.883000", "090333.834000", "090333.836000", "090333.839000", "090333.842000", "090333.844000", "090333.847000", "090333.850000", "090333.852000", "090333.855000", "090333.857000", "090333.860000", "090333.862000", "090333.865000", "090333.867000", "090333.870000", "090333.873000", "090333.875000", "090333.878000", "090333.880000", "090333.883000", "090413.833000", "090413.835000", "090413.843000", "090413.846000", "090413.848000", "090413.851000", "090413.853000", "090413.856000", "090413.858000", "090413.861000", "090413.863000", "090413.866000", "090413.868000", "090413.871000", "090413.874000", "090413.876000", "090413.879000", "090413.881000", "090413.884000", "090413.887000", "090453.833000", "090453.836000", "090453.839000", "090453.842000", "090453.844000", "090453.847000", "090453.849000", "090453.852000", "090453.854000", "090453.857000", "090453.859000", "090453.862000", "090453.864000", "090453.867000", "090453.870000", "090453.872000", "090453.875000", "090453.877000", "090453.880000", "090453.882000", "090528.769000", "090528.772000", "090528.775000", "090528.778000", "090528.780000", "090528.783000", "090528.786000", "090528.789000", "090528.791000", "090528.794000", "090528.796000", "090528.799000", "090528.803000", "090528.809000", "090528.812000", "090528.818000", "090528.826000", "090528.830000"],
      "InstanceNumber": [1, 2, 3, 4, 5, 6, 7, 8, 9, 10, 11, 12, 13, 14, 15, 16, 17, 18, 19, 20, 21, 22, 23, 24, 25, 26, 27, 28, 29, 30, 31, 32, 33, 34, 35, 36, 37, 38, 39, 40, 41, 42, 43, 44, 45, 46, 47, 48, 49, 50, 51, 52, 53, 54, 55, 56, 57, 58, 59, 60, 61, 62, 63, 64, 65, 66, 67, 68, 69, 70, 71, 72, 73, 74, 75, 76, 77, 78, 79, 80, 81, 82, 83, 84, 85, 86, 87, 88, 89, 90, 91, 92, 93, 94, 95, 96, 97, 98, 99, 100, 101, 102, 103, 104, 105, 106, 107, 108, 109, 110, 111, 112, 113, 114, 115, 116, 117, 118, 119, 120, 121, 122, 123, 124, 125, 126, 127, 128, 129, 130, 131, 132, 133, 134, 135, 136, 137, 138, 139, 140, 141, 142, 143, 144, 145, 146, 147, 148, 149, 150, 151, 152, 153, 154, 155, 156, 157, 158, 159, 160, 161, 162, 163, 164, 165, 166, 167, 168, 169, 170, 171, 172, 173, 174, 175, 176, 177, 178, 179, 180, 181, 182, 183, 184, 185, 186, 187, 188, 189, 190, 191, 192, 193, 194, 195, 196, 197, 198, 199, 200],
      "LargestImagePixelValue": [3750, 3740, 3748, 3749, 3744, 3743, 3755, 3746, 3738, 3749, 3739, 3738, 3749, 3746, 3755, 3752, 3752, 3749, 3737, 3743, 3746, 3747, 3745, 3759, 3747, 3748, 3749, 3743, 3742, 3747, 3741, 3746, 3746, 3739, 3736, 3740, 3746, 3743, 3735, 3750, 3741, 3750, 3756, 3747, 3746, 3741, 3740, 3748, 3742, 3739, 3756, 3753, 3746, 3757, 3756, 3740, 3760, 3741, 3744, 3748, 3739, 3747, 3742, 3744, 3745, 3747, 3738, 3749, 3748, 3751, 3737, 3732, 3746, 3735, 3742, 3746, 3737, 3739, 3743, 3744, 3737, 3746, 3747, 3735, 3742, 3742, 3729, 3734, 3740, 3734, 3744, 3746, 3748, 3749, 3740, 3736, 3751, 3752, 3744, 3740, 3745, 3740, 3729, 3745, 3733, 3731, 3743, 3744, 3724, 3744, 3733, 3729, 3750, 3753, 3737, 3739, 3741, 3749, 3747, 3740, 3737, 3733, 3735, 3743, 3741, 3744, 3737, 3745, 3739, 3733, 3741, 3737, 3733, 3740, 3746, 3743, 3736, 3736, 3745, 3737, 3737, 3740, 3739, 3731, 3730, 3750, 3738, 3743, 3738, 3741, 3731, 3747, 3740, 3737, 3748, 3736, 3732, 3735, 3733, 3736, 3744, 3740, 3732, 3739, 3738, 3745, 3730, 3734, 3752, 3736, 3737, 3726, 3733, 3723, 3735, 3732, 3723, 3726, 3730, 3729, 3735, 3742, 3735, 3734, 3729, 3733, 3737, 3731, 3735, 3737, 3734, 3742, 3736, 3746, 3741, 3734, 3738, 3737, 3720, 3737],
      "WindowCenter": [1421.0, 1421.0, 1421.0, 1420.0, 1421.0, 1420.0, 1420.0, 1420.0, 1420.0, 1421.0, 1421.0, 1420.0, 1420.0, 1421.0, 1421.0, 1420.0, 1421.0, 1420.0, 1421.0, 1420.0, 1420.0, 1420.0, 1421.0, 1420.0, 1420.0, 1420.0, 1420.0, 1420.0, 1420.0, 1420.0, 1419.0, 1420.0, 1420.0, 1420.0, 1420.0, 1420.0, 1420.0, 1419.0, 1420.0, 1419.0, 1419.0, 1419.0, 1419.0, 1419.0, 1420.0, 1419.0, 1418.0, 1419.0, 1419.0, 1419.0, 1419.0, 1419.0, 1419.0, 1420.0, 1419.0, 1419.0, 1419.0, 1419.0, 1419.0, 1419.0, 1418.0, 1419.0, 1419.0, 1418.0, 1418.0, 1419.0, 1418.0, 1418.0, 1418.0, 1419.0, 1418.0, 1419.0, 1419.0, 1418.0, 1419.0, 1419.0, 1418.0, 1418.0, 1418.0, 1418.0, 1418.0, 1418.0, 1418.0, 1418.0, 1418.0, 1418.0, 1418.0, 1418.0, 1417.0, 1419.0, 1417.0, 1418.0, 1418.0, 1418.0, 1418.0, 1417.0, 1418.0, 1417.0, 1418.0, 1418.0, 1418.0, 1417.0, 1417.0, 1418.0, 1418.0, 1417.0, 1417.0, 1417.0, 1417.0, 1417.0, 1418.0, 1417.0, 1417.0, 1417.0, 1418.0, 1418.0, 1417.0, 1418.0, 1417.0, 1416.0, 1417.0, 1417.0, 1417.0, 1417.0, 1418.0, 1418.0, 1417.0, 1417.0, 1417.0, 1417.0, 1417.0, 1417.0, 1418.0, 1417.0, 1416.0, 1417.0, 1416.0, 1417.0, 1416.0, 1417.0, 1417.0, 1417.0, 1417.0, 1417.0, 1416.0, 1417.0, 1418.0, 1417.0, 1417.0, 1416.0, 1417.0, 1417.0, 1417.0, 1417.0, 1416.0, 1416.0, 1416.0, 1416.0, 1417.0, 1416.0, 1416.0, 1416.0, 1415.0, 1416.0, 1417.0, 1417.0, 1416.0, 1416.0, 1416.0, 1416.0, 1416.0, 1416.0, 1416.0, 1417.0, 1416.0, 1416.0, 1416.0, 1416.0, 1416.0, 1416.0, 1416.0, 1416.0, 1416.0, 1416.0, 1416.0, 1416.0, 1416.0, 1415.0, 1416.0, 1415.0, 1416.0, 1415.0, 1416.0, 1416.0, 1415.0, 1415.0, 1415.0, 1416.0, 1416.0, 1415.0],
      "WindowWidth": [3283.0, 3281.0, 3281.0, 3281.0, 3281.0, 3281.0, 3281.0, 3281.0, 3280.0, 3280.0, 3280.0, 3281.0, 3281.0, 3280.0, 3280.0, 3281.0, 3280.0, 3281.0, 3280.0, 3281.0, 3281.0, 3281.0, 3281.0, 3281.0, 3281.0, 3281.0, 3281.0, 3280.0, 3280.0, 3280.0, 3280.0, 3280.0, 3280.0, 3280.0, 3280.0, 3280.0, 3280.0, 3280.0, 3280.0, 3280.0, 3280.0, 3280.0, 3280.0, 3280.0, 3279.0, 3280.0, 3280.0, 3280.0, 3280.0, 3279.0, 3280.0, 3280.0, 3280.0, 3279.0, 3280.0, 3280.0, 3279.0, 3279.0, 3280.0, 3279.0, 3279.0, 3279.0, 3279.0, 3279.0, 3279.0, 3279.0, 3279.0, 3279.0, 3279.0, 3279.0, 3279.0, 3279.0, 3279.0, 3279.0, 3279.0, 3279.0, 3279.0, 3279.0, 3279.0, 3279.0, 3279.0, 3279.0, 3279.0, 3279.0, 3279.0, 3279.0, 3279.0, 3279.0, 3279.0, 3278.0, 3279.0, 3279.0, 3279.0, 3279.0, 3279.0, 3279.0, 3279.0, 3279.0, 3279.0, 3278.0, 3279.0, 3279.0, 3278.0, 3278.0, 3278.0, 3279.0, 3278.0, 3278.0, 3278.0, 3278.0, 3278.0, 3278.0, 3278.0, 3278.0, 3277.0, 3277.0, 3278.0, 3277.0, 3278.0, 3278.0, 3278.0, 3278.0, 3278.0, 3278.0, 3277.0, 3277.0, 3278.0, 3277.0, 3278.0, 3277.0, 3278.0, 3278.0, 3277.0, 3278.0, 3278.0, 3277.0, 3278.0, 3278.0, 3277.0, 3277.0, 3277.0, 3277.0, 3277.0, 3277.0, 3277.0, 3277.0, 3277.0, 3277.0, 3277.0, 3277.0, 3277.0, 3277.0, 3277.0, 3277.0, 3277.0, 3277.0, 3277.0, 3277.0, 3277.0, 3277.0, 3277.0, 3277.0, 3277.0, 3277.0, 3276.0, 3276.0, 3277.0, 3277.0, 3277.0, 3277.0, 3277.0, 3277.0, 3277.0, 3276.0, 3276.0, 3277.0, 3277.0, 3277.0, 3276.0, 3277.0, 3276.0, 3276.0, 3276.0, 3276.0, 3276.0, 3276.0, 3276.0, 3276.0, 3276.0, 3276.0, 3276.0, 3276.0, 3276.0, 3276.0, 3276.0, 3276.0, 3276.0, 3275.0, 3275.0, 3276.0]
    },
    "slices": {}
  }
}