{
  "AcquisitionMatrixPE": 122,
  "AcquisitionNumber": 1,
  "AcquisitionTime": "09:37:38.187500",
  "BandwidthPerPixelPhaseEncode": 28.76,
  "BaseResolution": 122,
  "BodyPartExamined": "BRAIN",
  "CoilCombinationMethod": "Adaptive Combine",
  "ConsistencyInfo": "N4_VE11C_LATEST_20160120",
  "ConversionSoftware": "dcm2niix",
  "ConversionSoftwareVersion": "v1.0.20220720",
  "DerivedVendorReportedEchoSpacing": 0.000570008,
  "DeviceSerialNumber": "66112",
  "DiffusionScheme": "Monopolar",
  "DwellTime": 2e-06,
  "EchoTime": 0.075,
  "EchoTrainLength": 61,
  "EffectiveEchoSpacing": 0.000285004,
  "FlipAngle": 90,
  "HeudiconvVersion": "0.13.1",
  "ImageOrientationPatientDICOM": [0.999958, 0.00630484, 0.00668468, -0.00802834, 0.953343, 0.301784],
  "ImageOrientationText": "Tra>Cor(17.6)>Sag(0.3)",
  "ImageType": [
    "ORIGINAL",
    "PRIMARY",
    "DIFFUSION",
    "NONE",
    "ND",
    "NORM"
],
  "ImagingFrequency": 123.252,
  "InPlanePhaseEncodingDirectionDICOM": "COL",
  "InstitutionAddress": "Maynard 3,Hanover,NH,US,03755",
  "InstitutionName": "Dartmouth College - PBS",
  "InstitutionalDepartmentName": "Department",
  "MRAcquisitionType": "2D",
  "MagneticFieldStrength": 3,
  "Manufacturer": "Siemens",
  "ManufacturersModelName": "Prisma",
  "MatrixCoilMode": "GRAPPA",
  "Modality": "MR",
  "NonlinearGradientCorrection": false,
  "ParallelReductionFactorInPlane": 2,
  "PartialFourier": 1,
  "PatientPosition": "HFS",
  "PercentPhaseFOV": 100,
  "PercentSampling": 100,
  "PhaseEncodingDirection": "j-",
  "PhaseEncodingSteps": 122,
  "PhaseResolution": 1,
  "PixelBandwidth": 2050,
  "ProcedureStepDescription": "dbic^QA",
  "ProtocolName": "dwi_acq-DTI-30-p2",
  "PulseSequenceDetails": "%SiemensSeq%\\ep2d_diff",
  "ReceiveCoilActiveElements": "HEA;HEP",
  "ReceiveCoilName": "Head_32",
  "ReconMatrixPE": 122,
  "RefLinesPE": 38,
  "RepetitionTime": 7.7,
  "SAR": 0.10179,
  "ScanOptions": "FS",
  "ScanningSequence": "EP",
  "SequenceName": "*ep_b0",
  "SequenceVariant": "SK\\SP",
  "SeriesDescription": "dwi_acq-DTI-30-p2",
  "SeriesNumber": 12,
  "ShimSetting": [4146, -7686, -7511, 263, -56, -46, -66, 78],
  "SliceThickness": 2,
  "SliceTiming": [3.84375, 0, 3.95312, 0.11719, 4.0625, 0.22656, 4.17188, 0.33594, 4.28125, 0.44531, 4.39062, 0.55469, 4.5, 0.66406, 4.60938, 0.77344, 4.71875, 0.88281, 4.82812, 0.99219, 4.9375, 1.10156, 5.05469, 1.21094, 5.16406, 1.32031, 5.27344, 1.42969, 5.38281, 1.53906, 5.49219, 1.64844, 5.60156, 1.75781, 5.71094, 1.86719, 5.82031, 1.97656, 5.92969, 2.08594, 6.03906, 2.19531, 6.14844, 2.3125, 6.25781, 2.42188, 6.36719, 2.53125, 6.47656, 2.64062, 6.58594, 2.75, 6.69531, 2.85938, 6.80469, 2.96875, 6.91406, 3.07812, 7.02344, 3.1875, 7.13281, 3.29688, 7.25, 3.40625, 7.35938, 3.51562, 7.46094, 3.625, 7.57031, 3.73438],
  "SoftwareVersions": "syngo MR E11",
  "SpacingBetweenSlices": 2,
  "SpoilingState": true,
  "StationName": "AWP66112",
  "TotalReadoutTime": 0.0344855,
  "TxRefAmp": 234.558,
  "dcmmeta_affine": [
    [-1.9671300649642944, -0.015793452039361, 0.00894021987915039, 119.08759307861328],
    [-0.012402959167957306, 1.8754281997680664, 0.6036491394042969, -124.01921844482422],
    [0.013150199316442013, -0.5936726927757263, 1.906707763671875, -30.3624324798584],
    [0.0, 0.0, 0.0, 1.0]
],
  "dcmmeta_reorient_transform": [
    [0.0, -1.0, 0.0, 121.0],
    [1.0, 0.0, 0.0, 0.0],
    [0.0, 0.0, -1.0, 69.0],
    [0.0, 0.0, 0.0, 1.0]
],
  "dcmmeta_shape": [122, 122, 70, 31],
  "dcmmeta_slice_dim": 2,
  "dcmmeta_version": 0.6,
  "global": {
    "const": {
      "AccessionNumber": "qa",
      "AcquisitionMatrix": [122, 0, 0, 122],
      "AngioFlag": "N",
      "BitsAllocated": 16,
      "BitsStored": 12,
      "BodyPartExamined": "BRAIN",
      "Columns": 122,
      "EchoNumbers": 1,
      "EchoTime": 75.0,
      "EchoTrainLength": 61,
      "FlipAngle": 90.0,
      "HighBit": 11,
      "ImageOrientationPatient": [0.99995778111726, 0.0063048376439, 0.0066846843849, -0.0080283378119, 0.95334263919039, 0.30178362794143],
      "ImageType": [
        "ORIGINAL",
        "PRIMARY",
        "DIFFUSION",
        "NONE",
        "ND",
        "NORM"
],
      "ImagedNucleus": "1H",
      "ImagingFrequency": 123.252431,
      "InPlanePhaseEncodingDirection": "COL",
      "MRAcquisitionType": "2D",
      "MagneticFieldStrength": 3.0,
      "Manufacturer": "SIEMENS",
      "ManufacturerModelName": "Prisma",
      "Modality": "MR",
      "NumberOfAverages": 1.0,
      "NumberOfPhaseEncodingSteps": 122,
      "PercentPhaseFieldOfView": 100.0,
      "PercentSampling": 100.0,
      "PerformedProcedureStepStartTime": "090519.417000",
      "PhotometricInterpretation": "MONOCHROME2",
      "PixelBandwidth": 2050.0,
      "PixelRepresentation": 0,
      "PixelSpacing": [1.9672131538391, 1.9672131538391],
      "ProtocolName": "dwi_acq-DTI-30-p2",
      "RepetitionTime": 7700.0,
      "Rows": 122,
      "SAR": 0.10178993080356,
      "SamplesPerPixel": 1,
      "ScanOptions": "FS",
      "ScanningSequence": "EP",
      "SequenceVariant": [
        "SK",
        "SP"
],
      "SeriesDescription": "dwi_acq-DTI-30-p2",
      "SeriesNumber": 12,
      "SeriesTime": "093743.633000",
      "SliceThickness": 2.0,
      "SmallestImagePixelValue": 0,
      "SoftwareVersions": "syngo MR E11",
      "SpacingBetweenSlices": 2.0,
      "SpecificCharacterSet": "ISO_IR 100",
      "StudyID": "8",
      "StudyTime": "090519.315000",
      "TransmitCoilName": "Body",
      "VariableFlipAngleFlag": "N",
      "WindowCenterWidthExplanation": "Algo1",
      "dBdt": 0.0},
    "slices": {
      "AcquisitionTime": ["093738.187500", "093734.347500", "093738.297500", "093734.457500", "093738.407500", "093734.567500", "093738.517500", "093734.677500", "093738.627500", "093734.787500", "093738.737500", "093734.897500", "093738.847500", "093735.007500", "093738.955000", "093735.115000", "093739.065000", "093735.225000", "093739.175000", "093735.335000", "093739.285000", "093735.445000", "093739.395000", "093735.555000", "093739.505000", "093735.665000", "093739.615000", "093735.775000", "093739.725000", "093735.885000", "093739.835000", "093735.995000", "093739.942500", "093736.102500", "093740.052500", "093736.212500", "093740.162500", "093736.322500", "093740.272500", "093736.432500", "093740.382500", "093736.542500", "093740.492500", "093736.652500", "093740.602500", "093736.762500", "093740.712500", "093736.872500", "093740.820000", "093736.982500", "093740.930000", "093737.090000", "093741.040000", "093737.200000", "093741.150000", "093737.310000", "093741.260000", "093737.420000", "093741.370000", "093737.530000", "093741.480000", "093737.640000", "093741.590000", "093737.750000", "093741.700000", "093737.860000", "093741.807500", "093737.967500", "093741.917500", "093738.077500", "093745.887500", "093742.047500", "093745.997500", "093742.157500", "093746.107500", "093742.267500", "093746.217500", "093742.377500", "093746.327500", "093742.487500", "093746.437500", "093742.597500", "093746.547500", "093742.707500", "093746.655000", "093742.815000", "093746.765000", "093742.925000", "093746.875000", "093743.035000", "093746.985000", "093743.145000", "093747.095000", "093743.255000", "093747.205000", "093743.365000", "093747.315000", "093743.475000", "093747.425000", "093743.585000", "093747.535000", "093743.695000", "093747.642500", "093743.802500", "093747.752500", "093743.912500", "093747.862500", "093744.022500", "093747.972500", "093744.132500", "093748.082500", "093744.242500", "093748.192500", "093744.352500", "093748.302500", "093744.462500", "093748.412500", "093744.572500", "093748.520000", "093744.682500", "093748.630000", "093744.790000", "093748.740000", "093744.900000", "093748.850000", "093745.010000", "093748.960000", "093745.120000", "093749.070000", "093745.230000", "093749.180000", "093745.340000", "093749.290000", "093745.450000", "093749.400000", "093745.560000", "093749.507500", "093745.667500", "093749.617500", "093745.777500", "093753.587500", "093749.747500", "093753.697500", "093749.857500", "093753.807500", "093749.967500", "093753.917500", "093750.077500", "093754.027500", "093750.187500", "093754.137500", "093750.297500", "093754.247500", "093750.407500", "093754.355000", "093750.515000", "093754.465000", "093750.625000", "093754.575000", "093750.735000", "093754.685000", "093750.845000", "093754.795000", "093750.955000", "093754.905000", "093751.065000", "093755.015000", "093751.175000", "093755.125000", "093751.285000", "093755.235000", "093751.395000", "093755.342500", "093751.502500", "093755.452500", "093751.612500", "093755.562500", "093751.722500", "093755.672500", "093751.832500", "093755.782500", "093751.942500", "093755.892500", "093752.052500", "093756.002500", "093752.162500", "093756.112500", "093752.272500", "093756.220000", "093752.382500", "093756.330000", "093752.490000", "093756.440000", "093752.600000", "093756.550000", "093752.710000", "093756.660000", "093752.820000", "093756.770000", "093752.930000", "093756.880000", "093753.040000", "093756.990000", "093753.150000", "093757.100000", "093753.260000", "093757.207500", "093753.367500", "093757.317500", "093753.477500", "093801.287500", "093757.447500", "093801.397500", "093757.557500", "093801.507500", "093757.667500", "093801.617500", "093757.777500", "093801.727500", "093757.887500", "093801.837500", "093757.997500", "093801.947500", "093758.107500", "093802.055000", "093758.215000", "093802.165000", "093758.325000", "093802.275000", "093758.435000", "093802.385000", "093758.545000", "093802.495000", "093758.655000", "093802.605000", "093758.765000", "093802.715000", "093758.875000", "093802.825000", "093758.985000", "093802.935000", "093759.095000", "093803.042500", "093759.202500", "093803.152500", "093759.312500", "093803.262500", "093759.422500", "093803.372500", "093759.532500", "093803.482500", "093759.642500", "093803.592500", "093759.752500", "093803.702500", "093759.862500", "093803.812500", "093759.972500", "093803.920000", "093800.082500", "093804.030000", "093800.190000", "093804.140000", "093800.300000", "093804.250000", "093800.410000", "093804.360000", "093800.520000", "093804.470000", "093800.630000", "093804.580000", "093800.740000", "093804.690000", "093800.850000", "093804.800000", "093800.960000", "093804.907500", "093801.067500", "093805.017500", "093801.177500", "093808.987500", "093805.147500", "093809.097500", "093805.257500", "093809.207500", "093805.367500", "093809.317500", "093805.477500", "093809.427500", "093805.587500", "093809.537500", "093805.697500", "093809.647500", "093805.807500", "093809.755000", "093805.915000", "093809.865000", "093806.025000", "093809.975000", "093806.135000", "093810.085000", "093806.245000", "093810.195000", "093806.355000", "093810.305000", "093806.465000", "093810.415000", "093806.575000", "093810.525000", "093806.685000", "093810.635000", "093806.795000", "093810.742500", "093806.902500", "093810.852500", "093807.012500", "093810.962500", "093807.122500", "093811.072500", "093807.232500", "093811.182500", "093807.342500", "093811.292500", "093807.452500", "093811.402500", "093807.562500", "093811.512500", "093807.672500", "093811.620000", "093807.782500", "093811.730000", "093807.890000", "093811.840000", "093808.000000", "093811.950000", "093808.110000", "093812.060000", "093808.220000", "093812.170000", "093808.330000", "093812.280000", "093808.440000", "093812.390000", "093808.550000", "093812.500000", "093808.660000", "093812.607500", "093808.767500", "093812.717500", "093808.877500", "093816.687500", "093812.847500", "093816.797500", "093812.957500", "093816.907500", "093813.067500", "093817.017500", "093813.177500", "093817.127500", "093813.287500", "093817.237500", "093813.397500", "093817.347500", "093813.507500", "093817.455000", "093813.615000", "093817.565000", "093813.725000", "093817.675000", "093813.835000", "093817.785000", "093813.945000", "093817.895000", "093814.055000", "093818.005000", "093814.165000", "093818.115000", "093814.275000", "093818.225000", "093814.385000", "093818.335000", "093814.495000", "093818.442500", "093814.602500", "093818.552500", "093814.712500", "093818.662500", "093814.822500", "093818.772500", "093814.932500", "093818.882500", "093815.042500", "093818.992500", "093815.152500", "093819.102500", "093815.262500", "093819.212500", "093815.372500", "093819.320000", "093815.482500", "093819.430000", "093815.590000", "093819.540000", "093815.700000", "093819.650000", "093815.810000", "093819.760000", "093815.920000", "093819.870000", "093816.030000", "093819.980000", "093816.140000", "093820.090000", "093816.250000", "093820.200000", "093816.360000", "093820.307500", "093816.467500", "093820.417500", "093816.577500", "093824.387500", "093820.547500", "093824.497500", "093820.657500", "093824.607500", "093820.767500", "093824.717500", "093820.877500", "093824.827500", "093820.987500", "093824.937500", "093821.097500", "093825.047500", "093821.207500", "093825.155000", "093821.315000", "093825.265000", "093821.425000", "093825.375000", "093821.535000", "093825.485000", "093821.645000", "093825.595000", "093821.755000", "093825.705000", "093821.865000", "093825.815000", "093821.975000", "093825.925000", "093822.085000", "093826.035000", "093822.195000", "093826.142500", "093822.302500", "093826.252500", "093822.412500", "093826.362500", "093822.522500", "093826.472500", "093822.632500", "093826.582500", "093822.742500", "093826.692500", "093822.852500", "093826.802500", "093822.962500", "093826.912500", "093823.072500", "093827.020000", "093823.182500", "093827.130000", "093823.290000", "093827.240000", "093823.400000", "093827.350000", "093823.510000", "093827.460000", "093823.620000", "093827.570000", "093823.730000", "093827.680000", "093823.840000", "093827.790000", "093823.950000", "093827.900000", "093824.060000", "093828.007500", "093824.167500", "093828.117500", "093824.277500", "093832.087500", "093828.247500", "093832.197500", "093828.357500", "093832.307500", "093828.467500", "093832.417500", "093828.577500", "093832.527500", "093828.687500", "093832.637500", "093828.797500", "093832.747500", "093828.907500", "093832.855000", "093829.015000", "093832.965000", "093829.125000", "093833.075000", "093829.235000", "093833.185000", "093829.345000", "093833.295000", "093829.455000", "093833.405000", "093829.565000", "093833.515000", "093829.675000", "093833.625000", "093829.785000", "093833.735000", "093829.895000", "093833.842500", "093830.002500", "093833.952500", "093830.112500", "093834.062500", "093830.222500", "093834.172500", "093830.332500", "093834.282500", "093830.442500", "093834.392500", "093830.552500", "093834.502500", "093830.662500", "093834.612500", "093830.772500", "093834.720000", "093830.882500", "093834.830000", "093830.990000", "093834.940000", "093831.100000", "093835.050000", "093831.210000", "093835.160000", "093831.320000", "093835.270000", "093831.430000", "093835.380000", "093831.540000", "093835.490000", "093831.650000", "093835.600000", "093831.760000", "093835.707500", "093831.867500", "093835.817500", "093831.977500", "093839.787500", "093835.947500", "093839.897500", "093836.057500", "093840.007500", "093836.167500", "093840.117500", "093836.277500", "093840.227500", "093836.387500", "093840.337500", "093836.497500", "093840.447500", "093836.607500", "093840.555000", "093836.715000", "093840.665000", "093836.825000", "093840.775000", "093836.935000", "093840.885000", "093837.045000", "093840.995000", "093837.155000", "093841.105000", "093837.265000", "093841.215000", "093837.375000", "093841.325000", "093837.485000", "093841.435000", "093837.595000", "093841.542500", "093837.702500", "093841.652500", "093837.812500", "093841.762500", "093837.922500", "093841.872500", "093838.032500", "093841.982500", "093838.142500", "093842.092500", "093838.252500", "093842.202500", "093838.362500", "093842.312500", "093838.472500", "093842.420000", "093838.582500", "093842.530000", "093838.690000", "093842.640000", "093838.800000", "093842.750000", "093838.910000", "093842.860000", "093839.020000", "093842.970000", "093839.130000", "093843.080000", "093839.240000", "093843.190000", "093839.350000", "093843.300000", "093839.460000", "093843.407500", "093839.567500", "093843.517500", "093839.677500", "093847.487500", "093843.647500", "093847.597500", "093843.757500", "093847.707500", "093843.867500", "093847.817500", "093843.977500", "093847.927500", "093844.087500", "093848.037500", "093844.197500", "093848.147500", "093844.307500", "093848.255000", "093844.415000", "093848.365000", "093844.525000", "093848.475000", "093844.635000", "093848.585000", "093844.745000", "093848.695000", "093844.855000", "093848.805000", "093844.965000", "093848.915000", "093845.075000", "093849.025000", "093845.185000", "093849.135000", "093845.295000", "093849.242500", "093845.402500", "093849.352500", "093845.512500", "093849.462500", "093845.622500", "093849.572500", "093845.732500", "093849.682500", "093845.842500", "093849.792500", "093845.952500", "093849.902500", "093846.062500", "093850.012500", "093846.172500", "093850.120000", "093846.282500", "093850.230000", "093846.390000", "093850.340000", "093846.500000", "093850.450000", "093846.610000", "093850.560000", "093846.720000", "093850.670000", "093846.830000", "093850.780000", "093846.940000", "093850.890000", "093847.050000", "093851.000000", "093847.160000", "093851.107500", "093847.267500", "093851.217500", "093847.377500", "093855.187500", "093851.347500", "093855.297500", "093851.457500", "093855.407500", "093851.567500", "093855.517500", "093851.677500", "093855.627500", "093851.787500", "093855.737500", "093851.897500", "093855.847500", "093852.007500", "093855.955000", "093852.115000", "093856.065000", "093852.225000", "093856.175000", "093852.335000", "093856.285000", "093852.445000", "093856.395000", "093852.555000", "093856.505000", "093852.665000", "093856.615000", "093852.775000", "093856.725000", "093852.885000", "093856.835000", "093852.995000", "093856.942500", "093853.102500", "093857.052500", "093853.212500", "093857.162500", "093853.322500", "093857.272500", "093853.432500", "093857.382500", "093853.542500", "093857.492500", "093853.652500", "093857.602500", "093853.762500", "093857.712500", "093853.872500", "093857.820000", "093853.982500", "093857.930000", "093854.090000", "093858.040000", "093854.200000", "093858.150000", "093854.310000", "093858.260000", "093854.420000", "093858.370000", "093854.530000", "093858.480000", "093854.640000", "093858.590000", "093854.750000", "093858.700000", "093854.860000", "093858.807500", "093854.967500", "093858.917500", "093855.077500", "093902.887500", "093859.047500", "093902.997500", "093859.157500", "093903.107500", "093859.267500", "093903.217500", "093859.377500", "093903.327500", "093859.487500", "093903.437500", "093859.597500", "093903.547500", "093859.707500", "093903.655000", "093859.815000", "093903.765000", "093859.925000", "093903.875000", "093900.035000", "093903.985000", "093900.145000", "093904.095000", "093900.255000", "093904.205000", "093900.365000", "093904.315000", "093900.475000", "093904.425000", "093900.585000", "093904.535000", "093900.695000", "093904.642500", "093900.802500", "093904.752500", "093900.912500", "093904.862500", "093901.022500", "093904.972500", "093901.132500", "093905.082500", "093901.242500", "093905.192500", "093901.352500", "093905.302500", "093901.462500", "093905.412500", "093901.572500", "093905.520000", "093901.682500", "093905.630000", "093901.790000", "093905.740000", "093901.900000", "093905.850000", "093902.010000", "093905.960000", "093902.120000", "093906.070000", "093902.230000", "093906.180000", "093902.340000", "093906.290000", "093902.450000", "093906.400000", "093902.560000", "093906.507500", "093902.667500", "093906.617500", "093902.777500", "093910.587500", "093906.747500", "093910.697500", "093906.857500", "093910.807500", "093906.967500", "093910.917500", "093907.077500", "093911.027500", "093907.187500", "093911.137500", "093907.297500", "093911.247500", "093907.407500", "093911.355000", "093907.515000", "093911.465000", "093907.625000", "093911.575000", "093907.735000", "093911.685000", "093907.845000", "093911.795000", "093907.955000", "093911.905000", "093908.065000", "093912.015000", "093908.175000", "093912.125000", "093908.285000", "093912.235000", "093908.395000", "093912.342500", "093908.502500", "093912.452500", "093908.612500", "093912.562500", "093908.722500", "093912.672500", "093908.832500", "093912.782500", "093908.942500", "093912.892500", "093909.052500", "093913.002500", "093909.162500", "093913.112500", "093909.272500", "093913.220000", "093909.382500", "093913.330000", "093909.490000", "093913.440000", "093909.600000", "093913.550000", "093909.710000", "093913.660000", "093909.820000", "093913.770000", "093909.930000", "093913.880000", "093910.040000", "093913.990000", "093910.150000", "093914.100000", "093910.260000", "093914.207500", "093910.367500", "093914.317500", "093910.477500", "093918.287500", "093914.447500", "093918.397500", "093914.557500", "093918.507500", "093914.667500", "093918.617500", "093914.777500", "093918.727500", "093914.887500", "093918.837500", "093914.997500", "093918.947500", "093915.107500", "093919.055000", "093915.215000", "093919.165000", "093915.325000", "093919.275000", "093915.435000", "093919.385000", "093915.545000", "093919.495000", "093915.655000", "093919.605000", "093915.765000", "093919.715000", "093915.875000", "093919.825000", "093915.985000", "093919.935000", "093916.095000", "093920.042500", "093916.202500", "093920.152500", "093916.312500", "093920.262500", "093916.422500", "093920.372500", "093916.532500", "093920.482500", "093916.642500", "093920.592500", "093916.752500", "093920.702500", "093916.862500", "093920.812500", "093916.972500", "093920.920000", "093917.082500", "093921.030000", "093917.190000", "093921.140000", "093917.300000", "093921.250000", "093917.410000", "093921.360000", "093917.520000", "093921.470000", "093917.630000", "093921.580000", "093917.740000", "093921.690000", "093917.850000", "093921.800000", "093917.960000", "093921.907500", "093918.067500", "093922.017500", "093918.177500", "093925.987500", "093922.147500", "093926.097500", "093922.257500", "093926.207500", "093922.367500", "093926.317500", "093922.477500", "093926.427500", "093922.587500", "093926.537500", "093922.697500", "093926.647500", "093922.807500", "093926.755000", "093922.915000", "093926.865000", "093923.025000", "093926.975000", "093923.135000", "093927.085000", "093923.245000", "093927.195000", "093923.355000", "093927.305000", "093923.465000", "093927.415000", "093923.575000", "093927.525000", "093923.685000", "093927.635000", "093923.795000", "093927.742500", "093923.902500", "093927.852500", "093924.012500", "093927.962500", "093924.122500", "093928.072500", "093924.232500", "093928.182500", "093924.342500", "093928.292500", "093924.452500", "093928.402500", "093924.562500", "093928.512500", "093924.672500", "093928.620000", "093924.782500", "093928.730000", "093924.890000", "093928.840000", "093925.000000", "093928.950000", "093925.110000", "093929.060000", "093925.220000", "093929.170000", "093925.330000", "093929.280000", "093925.440000", "093929.390000", "093925.550000", "093929.500000", "093925.660000", "093929.607500", "093925.767500", "093929.717500", "093925.877500", "093933.687500", "093929.847500", "093933.797500", "093929.957500", "093933.907500", "093930.067500", "093934.017500", "093930.177500", "093934.127500", "093930.287500", "093934.237500", "093930.397500", "093934.347500", "093930.507500", "093934.455000", "093930.615000", "093934.565000", "093930.725000", "093934.675000", "093930.835000", "093934.785000", "093930.945000", "093934.895000", "093931.055000", "093935.005000", "093931.165000", "093935.115000", "093931.275000", "093935.225000", "093931.385000", "093935.335000", "093931.495000", "093935.442500", "093931.602500", "093935.552500", "093931.712500", "093935.662500", "093931.822500", "093935.772500", "093931.932500", "093935.882500", "093932.042500", "093935.992500", "093932.152500", "093936.102500", "093932.262500", "093936.212500", "093932.372500", "093936.320000", "093932.482500", "093936.430000", "093932.590000", "093936.540000", "093932.700000", "093936.650000", "093932.810000", "093936.760000", "093932.920000", "093936.870000", "093933.030000", "093936.980000", "093933.140000", "093937.090000", "093933.250000", "093937.200000", "093933.360000", "093937.307500", "093933.467500", "093937.417500", "093933.577500", "093941.387500", "093937.547500", "093941.497500", "093937.657500", "093941.607500", "093937.767500", "093941.717500", "093937.877500", "093941.827500", "093937.987500", "093941.937500", "093938.097500", "093942.047500", "093938.207500", "093942.155000", "093938.315000", "093942.265000", "093938.425000", "093942.375000", "093938.535000", "093942.485000", "093938.645000", "093942.595000", "093938.755000", "093942.705000", "093938.865000", "093942.815000", "093938.975000", "093942.925000", "093939.085000", "093943.035000", "093939.195000", "093943.142500", "093939.302500", "093943.252500", "093939.412500", "093943.362500", "093939.522500", "093943.472500", "093939.632500", "093943.582500", "093939.742500", "093943.692500", "093939.852500", "093943.802500", "093939.962500", "093943.912500", "093940.072500", "093944.020000", "093940.182500", "093944.130000", "093940.290000", "093944.240000", "093940.400000", "093944.350000", "093940.510000", "093944.460000", "093940.620000", "093944.570000", "093940.730000", "093944.680000", "093940.840000", "093944.790000", "093940.950000", "093944.900000", "093941.060000", "093945.007500", "093941.167500", "093945.117500", "093941.277500", "093949.087500", "093945.247500", "093949.197500", "093945.357500", "093949.307500", "093945.467500", "093949.417500", "093945.577500", "093949.527500", "093945.687500", "093949.637500", "093945.797500", "093949.747500", "093945.907500", "093949.855000", "093946.015000", "093949.965000", "093946.125000", "093950.075000", "093946.235000", "093950.185000", "093946.345000", "093950.295000", "093946.455000", "093950.405000", "093946.565000", "093950.515000", "093946.675000", "093950.625000", "093946.785000", "093950.735000", "093946.895000", "093950.842500", "093947.002500", "093950.952500", "093947.112500", "093951.062500", "093947.222500", "093951.172500", "093947.332500", "093951.282500", "093947.442500", "093951.392500", "093947.552500", "093951.502500", "093947.662500", "093951.612500", "093947.772500", "093951.720000", "093947.882500", "093951.830000", "093947.990000", "093951.940000", "093948.100000", "093952.050000", "093948.210000", "093952.160000", "093948.320000", "093952.270000", "093948.430000", "093952.380000", "093948.540000", "093952.490000", "093948.650000", "093952.600000", "093948.760000", "093952.707500", "093948.867500", "093952.817500", "093948.977500", "093956.787500", "093952.947500", "093956.897500", "093953.057500", "093957.007500", "093953.167500", "093957.117500", "093953.277500", "093957.227500", "093953.387500", "093957.337500", "093953.497500", "093957.447500", "093953.607500", "093957.555000", "093953.715000", "093957.665000", "093953.825000", "093957.775000", "093953.935000", "093957.885000", "093954.045000", "093957.995000", "093954.155000", "093958.105000", "093954.265000", "093958.215000", "093954.375000", "093958.325000", "093954.485000", "093958.435000", "093954.595000", "093958.542500", "093954.702500", "093958.652500", "093954.812500", "093958.762500", "093954.922500", "093958.872500", "093955.032500", "093958.982500", "093955.142500", "093959.092500", "093955.252500", "093959.202500", "093955.362500", "093959.312500", "093955.472500", "093959.420000", "093955.582500", "093959.530000", "093955.690000", "093959.640000", "093955.800000", "093959.750000", "093955.910000", "093959.860000", "093956.020000", "093959.970000", "093956.130000", "094000.080000", "093956.240000", "094000.190000", "093956.350000", "094000.300000", "093956.460000", "094000.407500", "093956.567500", "094000.517500", "093956.677500", "094004.487500", "094000.647500", "094004.597500", "094000.757500", "094004.707500", "094000.867500", "094004.817500", "094000.977500", "094004.927500", "094001.087500", "094005.037500", "094001.197500", "094005.147500", "094001.307500", "094005.255000", "094001.415000", "094005.365000", "094001.525000", "094005.475000", "094001.635000", "094005.585000", "094001.745000", "094005.695000", "094001.855000", "094005.805000", "094001.965000", "094005.915000", "094002.075000", "094006.025000", "094002.185000", "094006.135000", "094002.295000", "094006.242500", "094002.402500", "094006.352500", "094002.512500", "094006.462500", "094002.622500", "094006.572500", "094002.732500", "094006.682500", "094002.842500", "094006.792500", "094002.952500", "094006.902500", "094003.062500", "094007.012500", "094003.172500", "094007.120000", "094003.282500", "094007.230000", "094003.390000", "094007.340000", "094003.500000", "094007.450000", "094003.610000", "094007.560000", "094003.720000", "094007.670000", "094003.830000", "094007.780000", "094003.940000", "094007.890000", "094004.050000", "094008.000000", "094004.160000", "094008.107500", "094004.267500", "094008.217500", "094004.377500", "094012.187500", "094008.347500", "094012.297500", "094008.457500", "094012.407500", "094008.567500", "094012.517500", "094008.677500", "094012.627500", "094008.787500", "094012.737500", "094008.897500", "094012.847500", "094009.007500", "094012.955000", "094009.115000", "094013.065000", "094009.225000", "094013.175000", "094009.335000", "094013.285000", "094009.445000", "094013.395000", "094009.555000", "094013.505000", "094009.665000", "094013.615000", "094009.775000", "094013.725000", "094009.885000", "094013.835000", "094009.995000", "094013.942500", "094010.102500", "094014.052500",