{
  "AcquisitionMatrixPE": 122,
  "AcquisitionNumber": 1,
  "AcquisitionTime": "09:42:0.460000",
  "BandwidthPerPixelPhaseEncode": 27.785,
  "BaseResolution": 122,
  "BodyPartExamined": "BRAIN",
  "CoilCombinationMethod": "Adaptive Combine",
  "ConsistencyInfo": "N4_VE11C_LATEST_20160120",
  "ConversionSoftware": "dcm2niix",
  "ConversionSoftwareVersion": "v1.0.20220720",
  "DerivedVendorReportedEchoSpacing": 0.000590011,
  "DeviceSerialNumber": "66112",
  "DiffusionScheme": "Monopolar",
  "DwellTime": 2e-06,
  "EchoTime": 0.068,
  "EchoTrainLength": 61,
  "EffectiveEchoSpacing": 0.000295005,
  "FlipAngle": 90,
  "HeudiconvVersion": "0.13.1",
  "ImageOrientationPatientDICOM": [0.999958, 0.00630484, 0.00668468, -0.00802834, 0.953343, 0.301784],
  "ImageOrientationText": "Tra>Cor(17.6)>Sag(0.3)",
  "ImageType": [
    "ORIGINAL",
    "PRIMARY",
    "DIFFUSION",
    "NONE",
    "ND",
    "NORM"
],
  "ImagingFrequency": 123.252,
  "InPlanePhaseEncodingDirectionDICOM": "COL",
  "InstitutionAddress": "Maynard 3,Hanover,NH,US,03755",
  "InstitutionName": "Dartmouth College - PBS",
  "InstitutionalDepartmentName": "Department",
  "MRAcquisitionType": "2D",
  "MagneticFieldStrength": 3,
  "Manufacturer": "Siemens",
  "ManufacturersModelName": "Prisma",
  "Modality": "MR",
  "MultibandAccelerationFactor": 4,
  "NonlinearGradientCorrection": false,
  "ParallelReductionFactorInPlane": 2,
  "PartialFourier": 1,
  "PatientPosition": "HFS",
  "PercentPhaseFOV": 100,
  "PercentSampling": 100,
  "PhaseEncodingDirection": "j-",
  "PhaseEncodingSteps": 122,
  "PhaseResolution": 1,
  "PixelBandwidth": 2050,
  "ProcedureStepDescription": "dbic^QA",
  "ProtocolName": "dwi_acq-DTI-30-p2-s4",
  "PulseSequenceDetails": "%SiemensSeq%\\ep2d_diff",
  "ReceiveCoilActiveElements": "HEA;HEP",
  "ReceiveCoilName": "Head_32",
  "ReconMatrixPE": 122,
  "RefLinesPE": 38,
  "RepetitionTime": 3.6,
  "SAR": 0.161755,
  "ScanOptions": "FS",
  "ScanningSequence": "EP",
  "SequenceName": "*ep_b0",
  "SequenceVariant": "SK\\SP",
  "SeriesDescription": "dwi_acq-DTI-30-p2-s4",
  "SeriesNumber": 13,
  "ShimSetting": [4146, -7686, -7511, 265, -56, -46, -66, 78],
  "SliceThickness": 2,
  "SliceTiming": [2.58594, 0, 1.78906, 0.19531, 1.98438, 0.39844, 2.1875, 0.59375, 2.38281, 0.99219, 2.78125, 1.19531, 2.98438, 1.39062, 3.17969, 1.59375, 3.38281, 0.79688, 2.58594, 0, 1.78906, 0.19531, 1.98438, 0.39844, 2.1875, 0.59375, 2.38281, 0.99219, 2.78125, 1.19531, 2.98438, 1.39062, 3.17969, 1.59375, 3.38281, 0.79688, 2.58594, 0, 1.78906, 0.19531, 1.98438, 0.39844, 2.1875, 0.59375, 2.38281, 0.99219, 2.78125, 1.19531, 2.98438, 1.39062, 3.17969, 1.59375, 3.38281, 0.79688, 2.58594, 0, 1.78906, 0.19531, 1.98438, 0.39844, 2.1875, 0.59375, 2.38281, 0.99219, 2.78125, 1.19531, 2.98438, 1.39062, 3.17969, 1.59375, 3.38281, 0.79688],
  "SoftwareVersions": "syngo MR E11",
  "SpacingBetweenSlices": 2,
  "SpoilingState": true,
  "StationName": "AWP66112",
  "TotalReadoutTime": 0.0356956,
  "TxRefAmp": 234.558,
  "dcmmeta_affine": [
    [-1.9671300649642944, -0.015793452039361, 0.00894021987915039, 119.07865905761719],
    [-0.012402959167957306, 1.8754281997680664, 0.6036491394042969, -124.62286376953125],
    [0.013150199316442013, -0.5936726927757263, 1.906707763671875, -32.26913833618164],
    [0.0, 0.0, 0.0, 1.0]
],
  "dcmmeta_reorient_transform": [
    [0.0, -1.0, 0.0, 121.0],
    [1.0, 0.0, 0.0, 0.0],
    [0.0, 0.0, -1.0, 71.0],
    [0.0, 0.0, 0.0, 1.0]
],
  "dcmmeta_shape": [122, 122, 72, 31],
  "dcmmeta_slice_dim": 2,
  "dcmmeta_version": 0.6,
  "global": {
    "const": {
      "AccessionNumber": "qa",
      "AcquisitionMatrix": [122, 0, 0, 122],
      "AngioFlag": "N",
      "BitsAllocated": 16,
      "BitsStored": 12,
      "BodyPartExamined": "BRAIN",
      "Columns": 122,
      "EchoNumbers": 1,
      "EchoTime": 68.0,
      "EchoTrainLength": 61,
      "FlipAngle": 90.0,
      "HighBit": 11,
      "ImageOrientationPatient": [0.99995778111726, 0.0063048376439, 0.0066846843849, -0.0080283378119, 0.95334263919039, 0.30178362794143],
      "ImageType": [
        "ORIGINAL",
        "PRIMARY",
        "DIFFUSION",
        "NONE",
        "ND",
        "NORM"
],
      "ImagedNucleus": "1H",
      "ImagingFrequency": 123.252433,
      "InPlanePhaseEncodingDirection": "COL",
      "MRAcquisitionType": "2D",
      "MagneticFieldStrength": 3.0,
      "Manufacturer": "SIEMENS",
      "ManufacturerModelName": "Prisma",
      "Modality": "MR",
      "NumberOfAverages": 1.0,
      "NumberOfPhaseEncodingSteps": 122,
      "PercentPhaseFieldOfView": 100.0,
      "PercentSampling": 100.0,
      "PerformedProcedureStepStartTime": "090519.417000",
      "PhotometricInterpretation": "MONOCHROME2",
      "PixelBandwidth": 2050.0,
      "PixelRepresentation": 0,
      "PixelSpacing": [1.9672131538391, 1.9672131538391],
      "ProtocolName": "dwi_acq-DTI-30-p2-s4",
      "RepetitionTime": 3600.0,
      "Rows": 122,
      "SAR": 0.16175534257853,
      "SamplesPerPixel": 1,
      "ScanOptions": "FS",
      "ScanningSequence": "EP",
      "SequenceVariant": [
        "SK",
        "SP"
],
      "SeriesDescription": "dwi_acq-DTI-30-p2-s4",
      "SeriesNumber": 13,
      "SeriesTime": "094209.325000",
      "SliceThickness": 2.0,
      "SmallestImagePixelValue": 0,
      "SoftwareVersions": "syngo MR E11",
      "SpacingBetweenSlices": 2.0,
      "SpecificCharacterSet": "ISO_IR 100",
      "StudyID": "8",
      "StudyTime": "090519.315000",
      "TransmitCoilName": "Body",
      "VariableFlipAngleFlag": "N",
      "WindowCenterWidthExplanation": "Algo1",
      "dBdt": 0.0},
    "slices": {
      "AcquisitionTime": ["094200.460000", "094157.872500", "094159.662500", "094158.072500", "094159.862500", "094158.272500", "094200.062500", "094158.470000", "094200.260000", "094158.867500", "094200.657500", "094159.067500", "094200.857500", "094159.265000", "094201.055000", "094159.465000", "094201.255000", "094158.670000", "094200.460000", "094157.872500", "094159.662500", "094158.072500", "094159.862500", "094158.272500", "094200.062500", "094158.470000", "094200.260000", "094158.867500", "094200.657500", "094159.067500", "094200.857500", "094159.265000", "094201.055000", "094159.465000", "094201.255000", "094158.670000", "094200.460000", "094157.872500", "094159.662500", "094158.072500", "094159.862500", "094158.272500", "094200.062500", "094158.470000", "094200.260000", "094158.867500", "094200.657500", "094159.067500", "094200.857500", "094159.265000", "094201.055000", "094159.465000", "094201.255000", "094158.670000", "094200.460000", "094157.872500", "094159.662500", "094158.072500", "094159.862500", "094158.272500", "094200.062500", "094158.470000", "094200.260000", "094158.867500", "094200.657500", "094159.067500", "094200.857500", "094159.265000", "094201.055000", "094159.465000", "094201.255000", "094158.670000", "094204.060000", "094201.472500", "094203.262500", "094201.672500", "094203.462500", "094201.872500", "094203.662500", "094202.070000", "094203.860000", "094202.467500", "094204.257500", "094202.667500", "094204.457500", "094202.865000", "094204.655000", "094203.065000", "094204.855000", "094202.270000", "094204.060000", "094201.472500", "094203.262500", "094201.672500", "094203.462500", "094201.872500", "094203.662500", "094202.070000", "094203.860000", "094202.467500", "094204.257500", "094202.667500", "094204.457500", "094202.865000", "094204.655000", "094203.065000", "094204.855000", "094202.270000", "094204.060000", "094201.472500", "094203.262500", "094201.672500", "094203.462500", "094201.872500", "094203.662500", "094202.070000", "094203.860000", "094202.467500", "094204.257500", "094202.667500", "094204.457500", "094202.865000", "094204.655000", "094203.065000", "094204.855000", "094202.270000", "094204.060000", "094201.472500", "094203.262500", "094201.672500", "094203.462500", "094201.872500", "094203.662500", "094202.070000", "094203.860000", "094202.467500", "094204.257500", "094202.667500", "094204.457500", "094202.865000", "094204.655000", "094203.065000", "094204.855000", "094202.270000", "094207.660000", "094205.072500", "094206.862500", "094205.272500", "094207.062500", "094205.472500", "094207.262500", "094205.670000", "094207.460000", "094206.067500", "094207.857500", "094206.267500", "094208.057500", "094206.465000", "094208.255000", "094206.665000", "094208.455000", "094205.870000", "094207.660000", "094205.072500", "094206.862500", "094205.272500", "094207.062500", "094205.472500", "094207.262500", "094205.670000", "094207.460000", "094206.067500", "094207.857500", "094206.267500", "094208.057500", "094206.465000", "094208.255000", "094206.665000", "094208.455000", "094205.870000", "094207.660000", "094205.072500", "094206.862500", "094205.272500", "094207.062500", "094205.472500", "094207.262500", "094205.670000", "094207.460000", "094206.067500", "094207.857500", "094206.267500", "094208.057500", "094206.465000", "094208.255000", "094206.665000", "094208.455000", "094205.870000", "094207.660000", "094205.072500", "094206.862500", "094205.272500", "094207.062500", "094205.472500", "094207.262500", "094205.670000", "094207.460000", "094206.067500", "094207.857500", "094206.267500", "094208.057500", "094206.465000", "094208.255000", "094206.665000", "094208.455000", "094205.870000", "094211.260000", "094208.672500", "094210.462500", "094208.872500", "094210.662500", "094209.072500", "094210.862500", "094209.270000", "094211.060000", "094209.667500", "094211.457500", "094209.867500", "094211.657500", "094210.065000", "094211.855000", "094210.265000", "094212.055000", "094209.470000", "094211.260000", "094208.672500", "094210.462500", "094208.872500", "094210.662500", "094209.072500", "094210.862500", "094209.270000", "094211.060000", "094209.667500", "094211.457500", "094209.867500", "094211.657500", "094210.065000", "094211.855000", "094210.265000", "094212.055000", "094209.470000", "094211.260000", "094208.672500", "094210.462500", "094208.872500", "094210.662500", "094209.072500", "094210.862500", "094209.270000", "094211.060000", "094209.667500", "094211.457500", "094209.867500", "094211.657500", "094210.065000", "094211.855000", "094210.265000", "094212.055000", "094209.470000", "094211.260000", "094208.672500", "094210.462500", "094208.872500", "094210.662500", "094209.072500", "094210.862500", "094209.270000", "094211.060000", "094209.667500", "094211.457500", "094209.867500", "094211.657500", "094210.065000", "094211.855000", "094210.265000", "094212.055000", "094209.470000", "094214.860000", "094212.272500", "094214.062500", "094212.472500", "094214.262500", "094212.672500", "094214.462500", "094212.870000", "094214.660000", "094213.267500", "094215.057500", "094213.467500", "094215.257500", "094213.665000", "094215.455000", "094213.865000", "094215.655000", "094213.070000", "094214.860000", "094212.272500", "094214.062500", "094212.472500", "094214.262500", "094212.672500", "094214.462500", "094212.870000", "094214.660000", "094213.267500", "094215.057500", "094213.467500", "094215.257500", "094213.665000", "094215.455000", "094213.865000", "094215.655000", "094213.070000", "094214.860000", "094212.272500", "094214.062500", "094212.472500", "094214.262500", "094212.672500", "094214.462500", "094212.870000", "094214.660000", "094213.267500", "094215.057500", "094213.467500", "094215.257500", "094213.665000", "094215.455000", "094213.865000", "094215.655000", "094213.070000", "094214.860000", "094212.272500", "094214.062500", "094212.472500", "094214.262500", "094212.672500", "094214.462500", "094212.870000", "094214.660000", "094213.267500", "094215.057500", "094213.467500", "094215.257500", "094213.665000", "094215.455000", "094213.865000", "094215.655000", "094213.070000", "094218.460000", "094215.872500", "094217.662500", "094216.072500", "094217.862500", "094216.272500", "094218.062500", "094216.470000", "094218.260000", "094216.867500", "094218.657500", "094217.067500", "094218.857500", "094217.265000", "094219.055000", "094217.465000", "094219.255000", "094216.670000", "094218.460000", "094215.872500", "094217.662500", "094216.072500", "094217.862500", "094216.272500", "094218.062500", "094216.470000", "094218.260000", "094216.867500", "094218.657500", "094217.067500", "094218.857500", "094217.265000", "094219.055000", "094217.465000", "094219.255000", "094216.670000", "094218.460000", "094215.872500", "094217.662500", "094216.072500", "094217.862500", "094216.272500", "094218.062500", "094216.470000", "094218.260000", "094216.867500", "094218.657500", "094217.067500", "094218.857500", "094217.265000", "094219.055000", "094217.465000", "094219.255000", "094216.670000", "094218.460000", "094215.872500", "094217.662500", "094216.072500", "094217.862500", "094216.272500", "094218.062500", "094216.470000", "094218.260000", "094216.867500", "094218.657500", "094217.067500", "094218.857500", "094217.265000", "094219.055000", "094217.465000", "094219.255000", "094216.670000", "094222.060000", "094219.472500", "094221.262500", "094219.672500", "094221.462500", "094219.872500", "094221.662500", "094220.070000", "094221.860000", "094220.467500", "094222.257500", "094220.667500", "094222.457500", "094220.865000", "094222.655000", "094221.065000", "094222.855000", "094220.270000", "094222.060000", "094219.472500", "094221.262500", "094219.672500", "094221.462500", "094219.872500", "094221.662500", "094220.070000", "094221.860000", "094220.467500", "094222.257500", "094220.667500", "094222.457500", "094220.865000", "094222.655000", "094221.065000", "094222.855000", "094220.270000", "094222.060000", "094219.472500", "094221.262500", "094219.672500", "094221.462500", "094219.872500", "094221.662500", "094220.070000", "094221.860000", "094220.467500", "094222.257500", "094220.667500", "094222.457500", "094220.865000", "094222.655000", "094221.065000", "094222.855000", "094220.270000", "094222.060000", "094219.472500", "094221.262500", "094219.672500", "094221.462500", "094219.872500", "094221.662500", "094220.070000", "094221.860000", "094220.467500", "094222.257500", "094220.667500", "094222.457500", "094220.865000", "094222.655000", "094221.065000", "094222.855000", "094220.270000", "094225.660000", "094223.072500", "094224.862500", "094223.272500", "094225.062500", "094223.472500", "094225.262500", "094223.670000", "094225.460000", "094224.067500", "094225.857500", "094224.267500", "094226.057500", "094224.465000", "094226.255000", "094224.665000", "094226.455000", "094223.870000", "094225.660000", "094223.072500", "094224.862500", "094223.272500", "094225.062500", "094223.472500", "094225.262500", "094223.670000", "094225.460000", "094224.067500", "094225.857500", "094224.267500", "094226.057500", "094224.465000", "094226.255000", "094224.665000", "094226.455000", "094223.870000", "094225.660000", "094223.072500", "094224.862500", "094223.272500", "094225.062500", "094223.472500", "094225.262500", "094223.670000", "094225.460000", "094224.067500", "094225.857500", "094224.267500", "094226.057500", "094224.465000", "094226.255000", "094224.665000", "094226.455000", "094223.870000", "094225.660000", "094223.072500", "094224.862500", "094223.272500", "094225.062500", "094223.472500", "094225.262500", "094223.670000", "094225.460000", "094224.067500", "094225.857500", "094224.267500", "094226.057500", "094224.465000", "094226.255000", "094224.665000", "094226.455000", "094223.870000", "094229.260000", "094226.672500", "094228.462500", "094226.872500", "094228.662500", "094227.072500", "094228.862500", "094227.270000", "094229.060000", "094227.667500", "094229.457500", "094227.867500", "094229.657500", "094228.065000", "094229.855000", "094228.265000", "094230.055000", "094227.470000", "094229.260000", "094226.672500", "094228.462500", "094226.872500", "094228.662500", "094227.072500", "094228.862500", "094227.270000", "094229.060000", "094227.667500", "094229.457500", "094227.867500", "094229.657500", "094228.065000", "094229.855000", "094228.265000", "094230.055000", "094227.470000", "094229.260000", "094226.672500", "094228.462500", "094226.872500", "094228.662500", "094227.072500", "094228.862500", "094227.270000", "094229.060000", "094227.667500", "094229.457500", "094227.867500", "094229.657500", "094228.065000", "094229.855000", "094228.265000", "094230.055000", "094227.470000", "094229.260000", "094226.672500", "094228.462500", "094226.872500", "094228.662500", "094227.072500", "094228.862500", "094227.270000", "094229.060000", "094227.667500", "094229.457500", "094227.867500", "094229.657500", "094228.065000", "094229.855000", "094228.265000", "094230.055000", "094227.470000", "094232.860000", "094230.272500", "094232.062500", "094230.472500", "094232.262500", "094230.672500", "094232.462500", "094230.870000", "094232.660000", "094231.267500", "094233.057500", "094231.467500", "094233.257500", "094231.665000", "094233.455000", "094231.865000", "094233.655000", "094231.070000", "094232.860000", "094230.272500", "094232.062500", "094230.472500", "094232.262500", "094230.672500", "094232.462500", "094230.870000", "094232.660000", "094231.267500", "094233.057500", "094231.467500", "094233.257500", "094231.665000", "094233.455000", "094231.865000", "094233.655000", "094231.070000", "094232.860000", "094230.272500", "094232.062500", "094230.472500", "094232.262500", "094230.672500", "094232.462500", "094230.870000", "094232.660000", "094231.267500", "094233.057500", "094231.467500", "094233.257500", "094231.665000", "094233.455000", "094231.865000", "094233.655000", "094231.070000", "094232.860000", "094230.272500", "094232.062500", "094230.472500", "094232.262500", "094230.672500", "094232.462500", "094230.870000", "094232.660000", "094231.267500", "094233.057500", "094231.467500", "094233.257500", "094231.665000", "094233.455000", "094231.865000", "094233.655000", "094231.070000", "094236.460000", "094233.872500", "094235.662500", "094234.072500", "094235.862500", "094234.272500", "094236.062500", "094234.470000", "094236.260000", "094234.867500", "094236.657500", "094235.067500", "094236.857500", "094235.265000", "094237.055000", "094235.465000", "094237.255000", "094234.670000", "094236.460000", "094233.872500", "094235.662500", "094234.072500", "094235.862500", "094234.272500", "094236.062500", "094234.470000", "094236.260000", "094234.867500", "094236.657500", "094235.067500", "094236.857500", "094235.265000", "094237.055000", "094235.465000", "094237.255000", "094234.670000", "094236.460000", "094233.872500", "094235.662500", "094234.072500", "094235.862500", "094234.272500", "094236.062500", "094234.470000", "094236.260000", "094234.867500", "094236.657500", "094235.067500", "094236.857500", "094235.265000", "094237.055000", "094235.465000", "094237.255000", "094234.670000", "094236.460000", "094233.872500", "094235.662500", "094234.072500", "094235.862500", "094234.272500", "094236.062500", "094234.470000", "094236.260000", "094234.867500", "094236.657500", "094235.067500", "094236.857500", "094235.265000", "094237.055000", "094235.465000", "094237.255000", "094234.670000", "094240.060000", "094237.472500", "094239.262500", "094237.672500", "094239.462500", "094237.872500", "094239.662500", "094238.070000", "094239.860000", "094238.467500", "094240.257500", "094238.667500", "094240.457500", "094238.865000", "094240.655000", "094239.065000", "094240.855000", "094238.270000", "094240.060000", "094237.472500", "094239.262500", "094237.672500", "094239.462500", "094237.872500", "094239.662500", "094238.070000", "094239.860000", "094238.467500", "094240.257500", "094238.667500", "094240.457500", "094238.865000", "094240.655000", "094239.065000", "094240.855000", "094238.270000", "094240.060000", "094237.472500", "094239.262500", "094237.672500", "094239.462500", "094237.872500", "094239.662500", "094238.070000", "094239.860000", "094238.467500", "094240.257500", "094238.667500", "094240.457500", "094238.865000", "094240.655000", "094239.065000", "094240.855000", "094238.270000", "094240.060000", "094237.472500", "094239.262500", "094237.672500", "094239.462500", "094237.872500", "094239.662500", "094238.070000", "094239.860000", "094238.467500", "094240.257500", "094238.667500", "094240.457500", "094238.865000", "094240.655000", "094239.065000", "094240.855000", "094238.270000", "094243.660000", "094241.072500", "094242.862500", "094241.272500", "094243.062500", "094241.472500", "094243.262500", "094241.670000", "094243.460000", "094242.067500", "094243.857500", "094242.267500", "094244.057500", "094242.465000", "094244.255000", "094242.665000", "094244.455000", "094241.870000", "094243.660000", "094241.072500", "094242.862500", "094241.272500", "094243.062500", "094241.472500", "094243.262500", "094241.670000", "094243.460000", "094242.067500", "094243.857500", "094242.267500", "094244.057500", "094242.465000", "094244.255000", "094242.665000", "094244.455000", "094241.870000", "094243.660000", "094241.072500", "094242.862500", "094241.272500", "094243.062500", "094241.472500", "094243.262500", "094241.670000", "094243.460000", "094242.067500", "094243.857500", "094242.267500", "094244.057500", "094242.465000", "094244.255000", "094242.665000", "094244.455000", "094241.870000", "094243.660000", "094241.072500", "094242.862500", "094241.272500", "094243.062500", "094241.472500", "094243.262500", "094241.670000", "094243.460000", "094242.067500", "094243.857500", "094242.267500", "094244.057500", "094242.465000", "094244.255000", "094242.665000", "094244.455000", "094241.870000", "094247.260000", "094244.672500", "094246.462500", "094244.872500", "094246.662500", "094245.072500", "094246.862500", "094245.270000", "094247.060000", "094245.667500", "094247.457500", "094245.867500", "094247.657500", "094246.065000", "094247.855000", "094246.265000", "094248.055000", "094245.470000", "094247.260000", "094244.672500", "094246.462500", "094244.872500", "094246.662500", "094245.072500", "094246.862500", "094245.270000", "094247.060000", "094245.667500", "094247.457500", "094245.867500", "094247.657500", "094246.065000", "094247.855000", "094246.265000", "094248.055000", "094245.470000", "094247.260000", "094244.672500", "094246.462500", "094244.872500", "094246.662500", "094245.072500", "094246.862500", "094245.270000", "094247.060000", "094245.667500", "094247.457500", "094245.867500", "094247.657500", "094246.065000", "094247.855000", "094246.265000", "094248.055000", "094245.470000", "094247.260000", "094244.672500", "094246.462500", "094244.872500", "094246.662500", "094245.072500", "094246.862500", "094245.270000", "094247.060000", "094245.667500", "094247.457500", "094245.867500", "094247.657500", "094246.065000", "094247.855000", "094246.265000", "094248.055000", "094245.470000", "094250.860000", "094248.272500", "094250.062500", "094248.472500", "094250.262500", "094248.672500", "094250.462500", "094248.870000", "094250.660000", "094249.267500", "094251.057500", "094249.467500", "094251.257500", "094249.665000", "094251.455000", "094249.865000", "094251.655000", "094249.070000", "094250.860000", "094248.272500", "094250.062500", "094248.472500", "094250.262500", "094248.672500", "094250.462500", "094248.870000", "094250.660000", "094249.267500", "094251.057500", "094249.467500", "094251.257500", "094249.665000", "094251.455000", "094249.865000", "094251.655000", "094249.070000", "094250.860000", "094248.272500", "094250.062500", "094248.472500", "094250.262500", "094248.672500", "094250.462500", "094248.870000", "094250.660000", "094249.267500", "094251.057500", "094249.467500", "094251.257500", "094249.665000", "094251.455000", "094249.865000", "094251.655000", "094249.070000", "094250.860000", "094248.272500", "094250.062500", "094248.472500", "094250.262500", "094248.672500", "094250.462500", "094248.870000", "094250.660000", "094249.267500", "094251.057500", "094249.467500", "094251.257500", "094249.665000", "094251.455000", "094249.865000", "094251.655000", "094249.070000", "094254.460000", "094251.872500", "094253.662500", "094252.072500", "094253.862500", "094252.272500", "094254.062500", "094252.470000", "094254.260000", "094252.867500", "094254.657500", "094253.067500", "094254.857500", "094253.265000", "094255.055000", "094253.465000", "094255.255000", "094252.670000", "094254.460000", "094251.872500", "094253.662500", "094252.072500", "094253.862500", "094252.272500", "094254.062500", "094252.470000", "094254.260000", "094252.867500", "094254.657500", "094253.067500", "094254.857500", "094253.265000", "094255.055000", "094253.465000", "094255.255000", "094252.670000", "094254.460000", "094251.872500", "094253.662500", "094252.072500", "094253.862500", "094252.272500", "094254.062500", "094252.470000", "094254.260000", "094252.867500", "094254.657500", "094253.067500", "094254.857500", "094253.265000", "094255.055000", "094253.465000", "094255.255000", "094252.670000", "094254.460000", "094251.872500", "094253.662500", "094252.072500", "094253.862500", "094252.272500", "094254.062500", "094252.470000", "094254.260000", "094252.867500", "094254.657500", "094253.067500", "094254.857500", "094253.265000", "094255.055000", "094253.465000", "094255.255000", "094252.670000", "094258.060000", "094255.472500", "094257.262500", "094255.672500", "094257.462500", "094255.872500", "094257.662500", "094256.070000", "094257.860000", "094256.467500", "094258.257500", "094256.667500", "094258.457500", "094256.865000", "094258.655000", "094257.065000", "094258.855000", "094256.270000", "094258.060000", "094255.472500", "094257.262500", "094255.672500", "094257.462500", "094255.872500", "094257.662500", "094256.070000", "094257.860000", "094256.467500", "094258.257500", "094256.667500", "094258.457500", "094256.865000", "094258.655000", "094257.065000", "094258.855000", "094256.270000", "094258.060000", "094255.472500", "094257.262500", "094255.672500", "094257.462500", "094255.872500", "094257.662500", "094256.070000", "094257.860000", "094256.467500", "094258.257500", "094256.667500", "094258.457500", "094256.865000", "094258.655000", "094257.065000", "094258.855000", "094256.270000", "094258.060000", "094255.472500", "094257.262500", "094255.672500", "094257.462500", "094255.872500", "094257.662500", "094256.070000", "094257.860000", "094256.467500", "094258.257500", "094256.667500", "094258.457500", "094256.865000", "094258.655000", "094257.065000", "094258.855000", "094256.270000", "094301.660000", "094259.072500", "094300.862500", "094259.272500", "094301.062500", "094259.472500", "094301.262500", "094259.670000", "094301.460000", "094300.067500", "094301.857500", "094300.267500", "094302.057500", "094300.465000", "094302.255000", "094300.665000", "094302.455000", "094259.870000", "094301.660000", "094259.072500", "094300.862500", "094259.272500", "094301.062500", "094259.472500", "094301.262500", "094259.670000", "094301.460000", "094300.067500", "094301.857500", "094300.267500", "094302.057500", "094300.465000", "094302.255000", "094300.665000", "094302.455000", "094259.870000", "094301.660000", "094259.072500", "094300.862500", "094259.272500", "094301.062500", "094259.472500", "094301.262500", "094259.670000", "094301.460000", "094300.067500", "094301.857500", "094300.267500", "094302.057500", "094300.465000", "094302.255000", "094300.665000", "094302.455000", "094259.870000", "094301.660000", "094259.072500", "094300.862500", "094259.272500", "094301.062500", "094259.472500", "094301.262500", "094259.670000", "094301.460000", "094300.067500", "094301.857500", "094300.267500", "094302.057500", "094300.465000", "094302.255000", "094300.665000", "094302.455000", "094259.870000", "094305.260000", "094302.672500", "094304.462500", "094302.872500", "094304.662500", "094303.072500", "094304.862500", "094303.270000", "094305.060000", "094303.667500", "094305.457500", "094303.867500", "094305.657500", "094304.065000", "094305.855000", "094304.265000", "094306.055000", "094303.470000", "094305.260000", "094302.672500", "094304.462500", "094302.872500", "094304.662500", "094303.072500", "094304.862500", "094303.270000", "094305.060000", "094303.667500", "094305.457500", "094303.867500", "094305.657500", "094304.065000", "094305.855000", "094304.265000", "094306.055000", "094303.470000", "094305.260000", "094302.672500", "094304.462500", "094302.872500", "094304.662500", "094303.072500", "094304.862500", "094303.270000", "094305.060000", "094303.667500", "094305.457500", "094303.867500", "094305.657500", "094304.065000", "094305.855000", "094304.265000", "094306.055000", "094303.470000", "094305.260000", "094302.672500", "094304.462500", "094302.872500", "094304.662500", "094303.072500", "094304.862500", "094303.270000", "094305.060000", "094303.667500", "094305.457500", "094303.867500", "094305.657500", "094304.065000", "094305.855000", "094304.265000", "094306.055000", "094303.470000", "094308.860000", "094306.272500", "094308.062500", "094306.472500", "094308.262500", "094306.672500", "094308.462500", "094306.870000", "094308.660000", "094307.267500", "094309.057500", "094307.467500", "094309.257500", "094307.665000", "094309.455000", "094307.865000", "094309.655000", "094307.070000", "094308.860000", "094306.272500", "094308.062500", "094306.472500", "094308.262500", "094306.672500", "094308.462500", "094306.870000", "094308.660000", "094307.267500", "094309.057500", "094307.467500", "094309.257500", "094307.665000", "094309.455000", "094307.865000", "094309.655000", "094307.070000", "094308.860000", "094306.272500", "094308.062500", "094306.472500", "094308.262500", "094306.672500", "094308.462500", "094306.870000", "094308.660000", "094307.267500", "094309.057500", "094307.467500", "094309.257500", "094307.665000", "094309.455000", "094307.865000", "094309.655000", "094307.070000", "094308.860000", "094306.272500", "094308.062500", "094306.472500", "094308.262500", "094306.672500", "094308.462500", "094306.870000", "094308.660000", "094307.267500", "094309.057500", "