{
  "AcquisitionMatrixPE": 122,
  "AcquisitionNumber": 1,
  "AcquisitionTime": "09:43:43.467500",
  "BandwidthPerPixelPhaseEncode": 27.785,
  "BaseResolution": 122,
  "BodyPartExamined": "BRAIN",
  "CoilCombinationMethod": "Adaptive Combine",
  "ConsistencyInfo": "N4_VE11C_LATEST_20160120",
  "ConversionSoftware": "dcm2niix",
  "ConversionSoftwareVersion": "v1.0.20220720",
  "DerivedVendorReportedEchoSpacing": 0.000590011,
  "DeviceSerialNumber": "66112",
  "DiffusionScheme": "Monopolar",
  "DwellTime": 2e-06,
  "EchoTime": 0.068,
  "EchoTrainLength": 61,
  "EffectiveEchoSpacing": 0.000295005,
  "FlipAngle": 90,
  "HeudiconvVersion": "0.13.1",
  "ImageOrientationPatientDICOM": [0.999949, 0.00956275, 0.00333519, -0.0101227, 0.954019, 0.299576],
  "ImageOrientationText": "Tra>Cor(17.4)>Sag(0.0)",
  "ImageType": [
    "ORIGINAL",
    "PRIMARY",
    "DIFFUSION",
    "NONE",
    "ND",
    "NORM"
],
  "ImagingFrequency": 123.252,
  "InPlanePhaseEncodingDirectionDICOM": "COL",
  "InstitutionAddress": "Maynard 3,Hanover,NH,US,03755",
  "InstitutionName": "Dartmouth College - PBS",
  "InstitutionalDepartmentName": "Department",
  "MRAcquisitionType": "2D",
  "MagneticFieldStrength": 3,
  "Manufacturer": "Siemens",
  "ManufacturersModelName": "Prisma",
  "Modality": "MR",
  "MultibandAccelerationFactor": 4,
  "NonlinearGradientCorrection": false,
  "ParallelReductionFactorInPlane": 2,
  "PartialFourier": 1,
  "PatientPosition": "HFS",
  "PercentPhaseFOV": 100,
  "PercentSampling": 100,
  "PhaseEncodingDirection": "j-",
  "PhaseEncodingSteps": 122,
  "PhaseResolution": 1,
  "PixelBandwidth": 2050,
  "ProcedureStepDescription": "dbic^QA",
  "ProtocolName": "dwi_acq-DTI-30-p2-s4",
  "PulseSequenceDetails": "%SiemensSeq%\\ep2d_diff",
  "ReceiveCoilActiveElements": "HEA;HEP",
  "ReceiveCoilName": "Head_32",
  "ReconMatrixPE": 122,
  "RefLinesPE": 38,
  "RepetitionTime": 3.6,
  "SAR": 0.136469,
  "ScanOptions": "FS",
  "ScanningSequence": "EP",
  "SequenceName": "*ep_b0",
  "SequenceVariant": "SK\\SP",
  "SeriesDescription": "dwi_acq-DTI-30-p2-s4",
  "SeriesNumber": 13,
  "ShimSetting": [4145, -7700, -7522, 270, -88, -104, 27, 62],
  "SliceThickness": 2,
  "SliceTiming": [2.58594, 0, 1.78906, 0.19531, 1.98438, 0.39844, 2.1875, 0.59375, 2.38281, 0.99219, 2.78125, 1.19531, 2.98438, 1.39062, 3.17969, 1.58594, 3.38281, 0.79688, 2.58594, 0, 1.78906, 0.19531, 1.98438, 0.39844, 2.1875, 0.59375, 2.38281, 0.99219, 2.78125, 1.19531, 2.98438, 1.39062, 3.17969, 1.58594, 3.38281, 0.79688, 2.58594, 0, 1.78906, 0.19531, 1.98438, 0.39844, 2.1875, 0.59375, 2.38281, 0.99219, 2.78125, 1.19531, 2.98438, 1.39062, 3.17969, 1.58594, 3.38281, 0.79688, 2.58594, 0, 1.78906, 0.19531, 1.98438, 0.39844, 2.1875, 0.59375, 2.38281, 0.99219, 2.78125, 1.19531, 2.98438, 1.39062, 3.17969, 1.58594, 3.38281, 0.79688],
  "SoftwareVersions": "syngo MR E11",
  "SpacingBetweenSlices": 2,
  "SpoilingState": true,
  "StationName": "AWP66112",
  "TotalReadoutTime": 0.0356956,
  "TxRefAmp": 222.168,
  "dcmmeta_affine": [
    [-1.9671123027801514, -0.01991352066397667, 0.0006341114640235901, 121.0736083984375],
    [-0.018811969086527824, 1.8767579793930054, 0.5991897583007812, -124.22168731689453],
    [0.006561029236763716, -0.5893305540084839, 1.9081344604492188, -34.22488784790039],
    [0.0, 0.0, 0.0, 1.0]
],
  "dcmmeta_reorient_transform": [
    [0.0, -1.0, 0.0, 121.0],
    [1.0, 0.0, 0.0, 0.0],
    [0.0, 0.0, -1.0, 71.0],
    [0.0, 0.0, 0.0, 1.0]
],
  "dcmmeta_shape": [122, 122, 72, 31],
  "dcmmeta_slice_dim": 2,
  "dcmmeta_version": 0.6,
  "global": {
    "const": {
      "AccessionNumber": "qa",
      "AcquisitionMatrix": [122, 0, 0, 122],
      "AngioFlag": "N",
      "BitsAllocated": 16,
      "BitsStored": 12,
      "BodyPartExamined": "BRAIN",
      "Columns": 122,
      "EchoNumbers": 1,
      "EchoTime": 68.0,
      "EchoTrainLength": 61,
      "FlipAngle": 90.0,
      "HighBit": 11,
      "ImageOrientationPatient": [0.99994871383627, 0.00956275100624, 0.00333518970784, -0.0101227057102, 0.95401862033913, 0.29957637235826],
      "ImageType": [
        "ORIGINAL",
        "PRIMARY",
        "DIFFUSION",
        "NONE",
        "ND",
        "NORM"
],
      "ImagedNucleus": "1H",
      "ImagingFrequency": 123.252327,
      "InPlanePhaseEncodingDirection": "COL",
      "MRAcquisitionType": "2D",
      "MagneticFieldStrength": 3.0,
      "Manufacturer": "SIEMENS",
      "ManufacturerModelName": "Prisma",
      "Modality": "MR",
      "NumberOfAverages": 1.0,
      "NumberOfPhaseEncodingSteps": 122,
      "PercentPhaseFieldOfView": 100.0,
      "PercentSampling": 100.0,
      "PerformedProcedureStepStartTime": "090719.249000",
      "PhotometricInterpretation": "MONOCHROME2",
      "PixelBandwidth": 2050.0,
      "PixelRepresentation": 0,
      "PixelSpacing": [1.9672131538391, 1.9672131538391],
      "ProtocolName": "dwi_acq-DTI-30-p2-s4",
      "RepetitionTime": 3600.0,
      "Rows": 122,
      "SAR": 0.13646857060151,
      "SamplesPerPixel": 1,
      "ScanOptions": "FS",
      "ScanningSequence": "EP",
      "SequenceVariant": [
        "SK",
        "SP"
],
      "SeriesDescription": "dwi_acq-DTI-30-p2-s4",
      "SeriesNumber": 13,
      "SeriesTime": "094352.695000",
      "SliceThickness": 2.0,
      "SmallestImagePixelValue": 0,
      "SoftwareVersions": "syngo MR E11",
      "SpacingBetweenSlices": 2.0,
      "SpecificCharacterSet": "ISO_IR 100",
      "StudyID": "65",
      "StudyTime": "090719.198000",
      "TransmitCoilName": "Body",
      "VariableFlipAngleFlag": "N",
      "WindowCenterWidthExplanation": "Algo1",
      "dBdt": 0.0},
    "slices": {
      "AcquisitionTime": ["094343.467500", "094340.882500", "094342.672500", "094341.080000", "094342.870000", "094341.280000", "094343.070000", "094341.477500", "094343.267500", "094341.875000", "094343.665000", "094342.075000", "094343.865000", "094342.275000", "094344.065000", "094342.472500", "094344.262500", "094341.677500", "094343.467500", "094340.882500", "094342.672500", "094341.080000", "094342.870000", "094341.280000", "094343.070000", "094341.477500", "094343.267500", "094341.875000", "094343.665000", "094342.075000", "094343.865000", "094342.275000", "094344.065000", "094342.472500", "094344.262500", "094341.677500", "094343.467500", "094340.882500", "094342.672500", "094341.080000", "094342.870000", "094341.280000", "094343.070000", "094341.477500", "094343.267500", "094341.875000", "094343.665000", "094342.075000", "094343.865000", "094342.275000", "094344.065000", "094342.472500", "094344.262500", "094341.677500", "094343.467500", "094340.882500", "094342.672500", "094341.080000", "094342.870000", "094341.280000", "094343.070000", "094341.477500", "094343.267500", "094341.875000", "094343.665000", "094342.075000", "094343.865000", "094342.275000", "094344.065000", "094342.472500", "094344.262500", "094341.677500", "094347.067500", "094344.482500", "094346.272500", "094344.680000", "094346.470000", "094344.880000", "094346.670000", "094345.077500", "094346.867500", "094345.475000", "094347.265000", "094345.675000", "094347.465000", "094345.875000", "094347.665000", "094346.072500", "094347.862500", "094345.277500", "094347.067500", "094344.482500", "094346.272500", "094344.680000", "094346.470000", "094344.880000", "094346.670000", "094345.077500", "094346.867500", "094345.475000", "094347.265000", "094345.675000", "094347.465000", "094345.875000", "094347.665000", "094346.072500", "094347.862500", "094345.277500", "094347.067500", "094344.482500", "094346.272500", "094344.680000", "094346.470000", "094344.880000", "094346.670000", "094345.077500", "094346.867500", "094345.475000", "094347.265000", "094345.675000", "094347.465000", "094345.875000", "094347.665000", "094346.072500", "094347.862500", "094345.277500", "094347.067500", "094344.482500", "094346.272500", "094344.680000", "094346.470000", "094344.880000", "094346.670000", "094345.077500", "094346.867500", "094345.475000", "094347.265000", "094345.675000", "094347.465000", "094345.875000", "094347.665000", "094346.072500", "094347.862500", "094345.277500", "094350.667500", "094348.082500", "094349.872500", "094348.280000", "094350.070000", "094348.480000", "094350.270000", "094348.677500", "094350.467500", "094349.075000", "094350.865000", "094349.275000", "094351.065000", "094349.475000", "094351.265000", "094349.672500", "094351.462500", "094348.877500", "094350.667500", "094348.082500", "094349.872500", "094348.280000", "094350.070000", "094348.480000", "094350.270000", "094348.677500", "094350.467500", "094349.075000", "094350.865000", "094349.275000", "094351.065000", "094349.475000", "094351.265000", "094349.672500", "094351.462500", "094348.877500", "094350.667500", "094348.082500", "094349.872500", "094348.280000", "094350.070000", "094348.480000", "094350.270000", "094348.677500", "094350.467500", "094349.075000", "094350.865000", "094349.275000", "094351.065000", "094349.475000", "094351.265000", "094349.672500", "094351.462500", "094348.877500", "094350.667500", "094348.082500", "094349.872500", "094348.280000", "094350.070000", "094348.480000", "094350.270000", "094348.677500", "094350.467500", "094349.075000", "094350.865000", "094349.275000", "094351.065000", "094349.475000", "094351.265000", "094349.672500", "094351.462500", "094348.877500", "094354.267500", "094351.682500", "094353.472500", "094351.880000", "094353.670000", "094352.080000", "094353.870000", "094352.277500", "094354.067500", "094352.675000", "094354.465000", "094352.875000", "094354.665000", "094353.075000", "094354.865000", "094353.272500", "094355.062500", "094352.477500", "094354.267500", "094351.682500", "094353.472500", "094351.880000", "094353.670000", "094352.080000", "094353.870000", "094352.277500", "094354.067500", "094352.675000", "094354.465000", "094352.875000", "094354.665000", "094353.075000", "094354.865000", "094353.272500", "094355.062500", "094352.477500", "094354.267500", "094351.682500", "094353.472500", "094351.880000", "094353.670000", "094352.080000", "094353.870000", "094352.277500", "094354.067500", "094352.675000", "094354.465000", "094352.875000", "094354.665000", "094353.075000", "094354.865000", "094353.272500", "094355.062500", "094352.477500", "094354.267500", "094351.682500", "094353.472500", "094351.880000", "094353.670000", "094352.080000", "094353.870000", "094352.277500", "094354.067500", "094352.675000", "094354.465000", "094352.875000", "094354.665000", "094353.075000", "094354.865000", "094353.272500", "094355.062500", "094352.477500", "094357.867500", "094355.282500", "094357.072500", "094355.480000", "094357.270000", "094355.680000", "094357.470000", "094355.877500", "094357.667500", "094356.275000", "094358.065000", "094356.475000", "094358.265000", "094356.675000", "094358.465000", "094356.872500", "094358.662500", "094356.077500", "094357.867500", "094355.282500", "094357.072500", "094355.480000", "094357.270000", "094355.680000", "094357.470000", "094355.877500", "094357.667500", "094356.275000", "094358.065000", "094356.475000", "094358.265000", "094356.675000", "094358.465000", "094356.872500", "094358.662500", "094356.077500", "094357.867500", "094355.282500", "094357.072500", "094355.480000", "094357.270000", "094355.680000", "094357.470000", "094355.877500", "094357.667500", "094356.275000", "094358.065000", "094356.475000", "094358.265000", "094356.675000", "094358.465000", "094356.872500", "094358.662500", "094356.077500", "094357.867500", "094355.282500", "094357.072500", "094355.480000", "094357.270000", "094355.680000", "094357.470000", "094355.877500", "094357.667500", "094356.275000", "094358.065000", "094356.475000", "094358.265000", "094356.675000", "094358.465000", "094356.872500", "094358.662500", "094356.077500", "094401.467500", "094358.882500", "094400.672500", "094359.080000", "094400.870000", "094359.280000", "094401.070000", "094359.477500", "094401.267500", "094359.875000", "094401.665000", "094400.075000", "094401.865000", "094400.275000", "094402.065000", "094400.472500", "094402.262500", "094359.677500", "094401.467500", "094358.882500", "094400.672500", "094359.080000", "094400.870000", "094359.280000", "094401.070000", "094359.477500", "094401.267500", "094359.875000", "094401.665000", "094400.075000", "094401.865000", "094400.275000", "094402.065000", "094400.472500", "094402.262500", "094359.677500", "094401.467500", "094358.882500", "094400.672500", "094359.080000", "094400.870000", "094359.280000", "094401.070000", "094359.477500", "094401.267500", "094359.875000", "094401.665000", "094400.075000", "094401.865000", "094400.275000", "094402.065000", "094400.472500", "094402.262500", "094359.677500", "094401.467500", "094358.882500", "094400.672500", "094359.080000", "094400.870000", "094359.280000", "094401.070000", "094359.477500", "094401.267500", "094359.875000", "094401.665000", "094400.075000", "094401.865000", "094400.275000", "094402.065000", "094400.472500", "094402.262500", "094359.677500", "094405.067500", "094402.482500", "094404.272500", "094402.680000", "094404.470000", "094402.880000", "094404.670000", "094403.077500", "094404.867500", "094403.475000", "094405.265000", "094403.675000", "094405.465000", "094403.875000", "094405.665000", "094404.072500", "094405.862500", "094403.277500", "094405.067500", "094402.482500", "094404.272500", "094402.680000", "094404.470000", "094402.880000", "094404.670000", "094403.077500", "094404.867500", "094403.475000", "094405.265000", "094403.675000", "094405.465000", "094403.875000", "094405.665000", "094404.072500", "094405.862500", "094403.277500", "094405.067500", "094402.482500", "094404.272500", "094402.680000", "094404.470000", "094402.880000", "094404.670000", "094403.077500", "094404.867500", "094403.475000", "094405.265000", "094403.675000", "094405.465000", "094403.875000", "094405.665000", "094404.072500", "094405.862500", "094403.277500", "094405.067500", "094402.482500", "094404.272500", "094402.680000", "094404.470000", "094402.880000", "094404.670000", "094403.077500", "094404.867500", "094403.475000", "094405.265000", "094403.675000", "094405.465000", "094403.875000", "094405.665000", "094404.072500", "094405.862500", "094403.277500", "094408.667500", "094406.082500", "094407.872500", "094406.280000", "094408.070000", "094406.480000", "094408.270000", "094406.677500", "094408.467500", "094407.075000", "094408.865000", "094407.275000", "094409.065000", "094407.475000", "094409.265000", "094407.672500", "094409.462500", "094406.877500", "094408.667500", "094406.082500", "094407.872500", "094406.280000", "094408.070000", "094406.480000", "094408.270000", "094406.677500", "094408.467500", "094407.075000", "094408.865000", "094407.275000", "094409.065000", "094407.475000", "094409.265000", "094407.672500", "094409.462500", "094406.877500", "094408.667500", "094406.082500", "094407.872500", "094406.280000", "094408.070000", "094406.480000", "094408.270000", "094406.677500", "094408.467500", "094407.075000", "094408.865000", "094407.275000", "094409.065000", "094407.475000", "094409.265000", "094407.672500", "094409.462500", "094406.877500", "094408.667500", "094406.082500", "094407.872500", "094406.280000", "094408.070000", "094406.480000", "094408.270000", "094406.677500", "094408.467500", "094407.075000", "094408.865000", "094407.275000", "094409.065000", "094407.475000", "094409.265000", "094407.672500", "094409.462500", "094406.877500", "094412.267500", "094409.682500", "094411.472500", "094409.880000", "094411.670000", "094410.080000", "094411.870000", "094410.277500", "094412.067500", "094410.675000", "094412.465000", "094410.875000", "094412.665000", "094411.075000", "094412.865000", "094411.272500", "094413.062500", "094410.477500", "094412.267500", "094409.682500", "094411.472500", "094409.880000", "094411.670000", "094410.080000", "094411.870000", "094410.277500", "094412.067500", "094410.675000", "094412.465000", "094410.875000", "094412.665000", "094411.075000", "094412.865000", "094411.272500", "094413.062500", "094410.477500", "094412.267500", "094409.682500", "094411.472500", "094409.880000", "094411.670000", "094410.080000", "094411.870000", "094410.277500", "094412.067500", "094410.675000", "094412.465000", "094410.875000", "094412.665000", "094411.075000", "094412.865000", "094411.272500", "094413.062500", "094410.477500", "094412.267500", "094409.682500", "094411.472500", "094409.880000", "094411.670000", "094410.080000", "094411.870000", "094410.277500", "094412.067500", "094410.675000", "094412.465000", "094410.875000", "094412.665000", "094411.075000", "094412.865000", "094411.272500", "094413.062500", "094410.477500", "094415.867500", "094413.282500", "094415.072500", "094413.480000", "094415.270000", "094413.680000", "094415.470000", "094413.877500", "094415.667500", "094414.275000", "094416.065000", "094414.475000", "094416.265000", "094414.675000", "094416.465000", "094414.872500", "094416.662500", "094414.077500", "094415.867500", "094413.282500", "094415.072500", "094413.480000", "094415.270000", "094413.680000", "094415.470000", "094413.877500", "094415.667500", "094414.275000", "094416.065000", "094414.475000", "094416.265000", "094414.675000", "094416.465000", "094414.872500", "094416.662500", "094414.077500", "094415.867500", "094413.282500", "094415.072500", "094413.480000", "094415.270000", "094413.680000", "094415.470000", "094413.877500", "094415.667500", "094414.275000", "094416.065000", "094414.475000", "094416.265000", "094414.675000", "094416.465000", "094414.872500", "094416.662500", "094414.077500", "094415.867500", "094413.282500", "094415.072500", "094413.480000", "094415.270000", "094413.680000", "094415.470000", "094413.877500", "094415.667500", "094414.275000", "094416.065000", "094414.475000", "094416.265000", "094414.675000", "094416.465000", "094414.872500", "094416.662500", "094414.077500", "094419.467500", "094416.882500", "094418.672500", "094417.080000", "094418.870000", "094417.280000", "094419.070000", "094417.477500", "094419.267500", "094417.875000", "094419.665000", "094418.075000", "094419.865000", "094418.275000", "094420.065000", "094418.472500", "094420.262500", "094417.677500", "094419.467500", "094416.882500", "094418.672500", "094417.080000", "094418.870000", "094417.280000", "094419.070000", "094417.477500", "094419.267500", "094417.875000", "094419.665000", "094418.075000", "094419.865000", "094418.275000", "094420.065000", "094418.472500", "094420.262500", "094417.677500", "094419.467500", "094416.882500", "094418.672500", "094417.080000", "094418.870000", "094417.280000", "094419.070000", "094417.477500", "094419.267500", "094417.875000", "094419.665000", "094418.075000", "094419.865000", "094418.275000", "094420.065000", "094418.472500", "094420.262500", "094417.677500", "094419.467500", "094416.882500", "094418.672500", "094417.080000", "094418.870000", "094417.280000", "094419.070000", "094417.477500", "094419.267500", "094417.875000", "094419.665000", "094418.075000", "094419.865000", "094418.275000", "094420.065000", "094418.472500", "094420.262500", "094417.677500", "094423.067500", "094420.482500", "094422.272500", "094420.680000", "094422.470000", "094420.880000", "094422.670000", "094421.077500", "094422.867500", "094421.475000", "094423.265000", "094421.675000", "094423.465000", "094421.875000", "094423.665000", "094422.072500", "094423.862500", "094421.277500", "094423.067500", "094420.482500", "094422.272500", "094420.680000", "094422.470000", "094420.880000", "094422.670000", "094421.077500", "094422.867500", "094421.475000", "094423.265000", "094421.675000", "094423.465000", "094421.875000", "094423.665000", "094422.072500", "094423.862500", "094421.277500", "094423.067500", "094420.482500", "094422.272500", "094420.680000", "094422.470000", "094420.880000", "094422.670000", "094421.077500", "094422.867500", "094421.475000", "094423.265000", "094421.675000", "094423.465000", "094421.875000", "094423.665000", "094422.072500", "094423.862500", "094421.277500", "094423.067500", "094420.482500", "094422.272500", "094420.680000", "094422.470000", "094420.880000", "094422.670000", "094421.077500", "094422.867500", "094421.475000", "094423.265000", "094421.675000", "094423.465000", "094421.875000", "094423.665000", "094422.072500", "094423.862500", "094421.277500", "094426.667500", "094424.082500", "094425.872500", "094424.280000", "094426.070000", "094424.480000", "094426.270000", "094424.677500", "094426.467500", "094425.075000", "094426.865000", "094425.275000", "094427.065000", "094425.475000", "094427.265000", "094425.672500", "094427.462500", "094424.877500", "094426.667500", "094424.082500", "094425.872500", "094424.280000", "094426.070000", "094424.480000", "094426.270000", "094424.677500", "094426.467500", "094425.075000", "094426.865000", "094425.275000", "094427.065000", "094425.475000", "094427.265000", "094425.672500", "094427.462500", "094424.877500", "094426.667500", "094424.082500", "094425.872500", "094424.280000", "094426.070000", "094424.480000", "094426.270000", "094424.677500", "094426.467500", "094425.075000", "094426.865000", "094425.275000", "094427.065000", "094425.475000", "094427.265000", "094425.672500", "094427.462500", "094424.877500", "094426.667500", "094424.082500", "094425.872500", "094424.280000", "094426.070000", "094424.480000", "094426.270000", "094424.677500", "094426.467500", "094425.075000", "094426.865000", "094425.275000", "094427.065000", "094425.475000", "094427.265000", "094425.672500", "094427.462500", "094424.877500", "094430.267500", "094427.682500", "094429.472500", "094427.880000", "094429.670000", "094428.080000", "094429.870000", "094428.277500", "094430.067500", "094428.675000", "094430.465000", "094428.875000", "094430.665000", "094429.075000", "094430.865000", "094429.272500", "094431.062500", "094428.477500", "094430.267500", "094427.682500", "094429.472500", "094427.880000", "094429.670000", "094428.080000", "094429.870000", "094428.277500", "094430.067500", "094428.675000", "094430.465000", "094428.875000", "094430.665000", "094429.075000", "094430.865000", "094429.272500", "094431.062500", "094428.477500", "094430.267500", "094427.682500", "094429.472500", "094427.880000", "094429.670000", "094428.080000", "094429.870000", "094428.277500", "094430.067500", "094428.675000", "094430.465000", "094428.875000", "094430.665000", "094429.075000", "094430.865000", "094429.272500", "094431.062500", "094428.477500", "094430.267500", "094427.682500", "094429.472500", "094427.880000", "094429.670000", "094428.080000", "094429.870000", "094428.277500", "094430.067500", "094428.675000", "094430.465000", "094428.875000", "094430.665000", "094429.075000", "094430.865000", "094429.272500", "094431.062500", "094428.477500", "094433.867500", "094431.282500", "094433.072500", "094431.480000", "094433.270000", "094431.680000", "094433.470000", "094431.877500", "094433.667500", "094432.275000", "094434.065000", "094432.475000", "094434.265000", "094432.675000", "094434.465000", "094432.872500", "094434.662500", "094432.077500", "094433.867500", "094431.282500", "094433.072500", "094431.480000", "094433.270000", "094431.680000", "094433.470000", "094431.877500", "094433.667500", "094432.275000", "094434.065000", "094432.475000", "094434.265000", "094432.675000", "094434.465000", "094432.872500", "094434.662500", "094432.077500", "094433.867500", "094431.282500", "094433.072500", "094431.480000", "094433.270000", "094431.680000", "094433.470000", "094431.877500", "094433.667500", "094432.275000", "094434.065000", "094432.475000", "094434.265000", "094432.675000", "094434.465000", "094432.872500", "094434.662500", "094432.077500", "094433.867500", "094431.282500", "094433.072500", "094431.480000", "094433.270000", "094431.680000", "094433.470000", "094431.877500", "094433.667500", "094432.275000", "094434.065000", "094432.475000", "094434.265000", "094432.675000", "094434.465000", "094432.872500", "094434.662500", "094432.077500", "094437.467500", "094434.882500", "094436.672500", "094435.080000", "094436.870000", "094435.280000", "094437.070000", "094435.477500", "094437.267500", "094435.875000", "094437.665000", "094436.075000", "094437.865000", "094436.275000", "094438.065000", "094436.472500", "094438.262500", "094435.677500", "094437.467500", "094434.882500", "094436.672500", "094435.080000", "094436.870000", "094435.280000", "094437.070000", "094435.477500", "094437.267500", "094435.875000", "094437.665000", "094436.075000", "094437.865000", "094436.275000", "094438.065000", "094436.472500", "094438.262500", "094435.677500", "094437.467500", "094434.882500", "094436.672500", "094435.080000", "094436.870000", "094435.280000", "094437.070000", "094435.477500", "094437.267500", "094435.875000", "094437.665000", "094436.075000", "094437.865000", "094436.275000", "094438.065000", "094436.472500", "094438.262500", "094435.677500", "094437.467500", "094434.882500", "094436.672500", "094435.080000", "094436.870000", "094435.280000", "094437.070000", "094435.477500", "094437.267500", "094435.875000", "094437.665000", "094436.075000", "094437.865000", "094436.275000", "094438.065000", "094436.472500", "094438.262500", "094435.677500", "094441.067500", "094438.482500", "094440.272500", "094438.680000", "094440.470000", "094438.880000", "094440.670000", "094439.077500", "094440.867500", "094439.475000", "094441.265000", "094439.675000", "094441.465000", "094439.875000", "094441.665000", "094440.072500", "094441.862500", "094439.277500", "094441.067500", "094438.482500", "094440.272500", "094438.680000", "094440.470000", "094438.880000", "094440.670000", "094439.077500", "094440.867500", "094439.475000", "094441.265000", "094439.675000", "094441.465000", "094439.875000", "094441.665000", "094440.072500", "094441.862500", "094439.277500", "094441.067500", "094438.482500", "094440.272500", "094438.680000", "094440.470000", "094438.880000", "094440.670000", "094439.077500", "094440.867500", "094439.475000", "094441.265000", "094439.675000", "094441.465000", "094439.875000", "094441.665000", "094440.072500", "094441.862500", "094439.277500", "094441.067500", "094438.482500", "094440.272500", "094438.680000", "094440.470000", "094438.880000", "094440.670000", "094439.077500", "094440.867500", "094439.475000", "094441.265000", "094439.675000", "094441.465000", "094439.875000", "094441.665000", "094440.072500", "094441.862500", "094439.277500", "094444.667500", "094442.082500", "094443.872500", "094442.280000", "094444.070000", "094442.480000", "094444.270000", "094442.677500", "094444.467500", "094443.075000", "094444.865000", "094443.275000", "094445.065000", "094443.475000", "094445.265000", "094443.672500", "094445.462500", "094442.877500", "094444.667500", "094442.082500", "094443.872500", "094442.280000", "094444.070000", "094442.480000", "094444.270000", "094442.677500", "094444.467500", "094443.075000", "094444.865000", "094443.275000", "094445.065000", "094443.475000", "094445.265000", "094443.672500", "094445.462500", "094442.877500", "094444.667500", "094442.082500", "094443.872500", "094442.280000", "094444.070000", "094442.480000", "094444.270000", "094442.677500", "094444.467500", "094443.075000", "094444.865000", "094443.275000", "094445.065000", "094443.475000", "094445.265000", "094443.672500", "094445.462500", "094442.877500", "094444.667500", "094442.082500", "094443.872500", "094442.280000", "094444.070000", "094442.480000", "094444.270000", "094442.677500", "094444.467500", "094443.075000", "094444.865000", "094443.275000", "094445.065000", "094443.475000", "094445.265000", "094443.672500", "094445.462500", "094442.877500", "094448.267500", "094445.682500", "094447.472500", "094445.880000", "094447.670000", "094446.080000", "094447.870000", "094446.277500", "094448.067500", "094446.675000", "094448.465000", "094446.875000", "094448.665000", "094447.075000", "094448.865000", "094447.272500", "094449.062500", "094446.477500", "094448.267500", "094445.682500", "094447.472500", "094445.880000", "094447.670000", "094446.080000", "094447.870000", "094446.277500", "094448.067500", "094446.675000", "094448.465000", "094446.875000", "094448.665000", "094447.075000", "094448.865000", "094447.272500", "094449.062500", "094446.477500", "094448.267500", "094445.682500", "094447.472500", "094445.880000", "094447.670000", "094446.080000", "094447.870000", "094446.277500", "094448.067500", "094446.675000", "094448.465000", "094446.875000", "094448.665000", "094447.075000", "094448.865000", "094447.272500", "094449.062500", "094446.477500", "094448.267500", "094445.682500", "094447.472500", "094445.880000", "094447.670000", "094446.080000", "094447.870000", "094446.277500", "094448.067500", "094446.675000", "094448.465000", "094446.875000", "094448.665000", "094447.075000", "094448.865000", "094447.272500", "094449.062500", "094446.477500", "094451.867500", "094449.282500", "094451.072500", "094449.480000", "094451.270000", "094449.680000", "094451.470000", "094449.877500", "094451.667500", "094450.275000", "094452.065000", "094450.475000", "094452.265000", "094450.675000", "094452.465000", "094450.872500", "094452.662500", "094450.077500", "094451.867500", "094449.282500", "094451.072500", "094449.480000", "094451.270000", "094449.680000", "094451.470000", "094449.877500", "094451.667500", "094450.275000", "094452.065000", "094450.475000", "094452.265000", "094450.675000", "094452.465000", "094450.872500", "094452.662500", "094450.077500", "094451.867500", "094449.282500", "094451.072500", "094449.480000", "094451.270000", "094449.680000", "094451.470000", "094449.877500", "094451.667500", "094450.275000", "094452.065000", "094450.475000", "094452.265000", "094450.675000", "094452.465000", "094450.872500", "094452.662500", "094450.077500", "094451.867500", "094449.282500", "094451.072500", "094449.480000", "094451.270000", "094449.680000", "094451.470000", "094449.877500", "094451.667500", "094450.275000", "094452.065