{
  "AcquisitionMatrixPE": 80,
  "AcquisitionNumber": 1,
  "AcquisitionTime": "09:00:8.505000",
  "BandwidthPerPixelPhaseEncode": 25,
  "BaseResolution": 80,
  "BodyPartExamined": "BRAIN",
  "CoilCombinationMethod": "Sum of Squares",
  "ConsistencyInfo": "N4_VE11E_LATEST_20181129",
  "ConversionSoftware": "dcm2niix",
  "ConversionSoftwareVersion": "v1.0.20220720",
  "DerivedVendorReportedEchoSpacing": 0.0005,
  "DeviceSerialNumber": "66112",
  "DwellTime": 2.7e-06,
  "EchoTime": 0.03,
  "EchoTrainLength": 80,
  "EffectiveEchoSpacing": 0.0005,
  "FlipAngle": 77,
  "HeudiconvVersion": "0.13.1",
  "ImageOrientationPatientDICOM": [0.988403, -0.15178, 0.00465988, 0.143312, 0.942524, 0.301846],
  "ImageOrientationText": "Tra>Cor(17.3)>Sag(2.9)",
  "ImageType": [
    "ORIGINAL",
    "PRIMARY",
    "M",
    "ND",
    "NORM",
    "MOSAIC"
],
  "ImagingFrequency": 123.259,
  "InPlanePhaseEncodingDirectionDICOM": "COL",
  "InstitutionAddress": "Maynard 3,Hanover,NH,US,03755",
  "InstitutionName": "Dartmouth College - PBS",
  "InstitutionalDepartmentName": "Department",
  "MRAcquisitionType": "2D",
  "MagneticFieldStrength": 3,
  "Manufacturer": "Siemens",
  "ManufacturersModelName": "Prisma",
  "MatrixCoilMode": "SENSE",
  "Modality": "MR",
  "NonlinearGradientCorrection": false,
  "PartialFourier": 1,
  "PatientPosition": "HFS",
  "PercentPhaseFOV": 100,
  "PercentSampling": 100,
  "PhaseEncodingDirection": "j-",
  "PhaseEncodingSteps": 80,
  "PhaseResolution": 1,
  "PixelBandwidth": 2315,
  "ProcedureStepDescription": "dbic^QA",
  "ProtocolName": "func-bold_fa-77",
  "PulseSequenceDetails": "%SiemensSeq%\\ep2d_bold",
  "ReceiveCoilActiveElements": "HC1-7;NC1,2",
  "ReceiveCoilName": "HeadNeck_64",
  "ReconMatrixPE": 80,
  "RepetitionTime": 2,
  "SAR": 0.0287315,
  "ScanOptions": "FS",
  "ScanningSequence": "EP",
  "SequenceName": "*epfid2d1_80",
  "SequenceVariant": "SK",
  "SeriesDescription": "func-bold_fa-77",
  "SeriesNumber": 7,
  "ShimSetting": [4219, -7728, -7491, -144, -168, -203, -78, 94],
  "SliceThickness": 3.5,
  "SliceTiming": [0.99, 0, 1.0575, 0.0675, 1.1225, 0.1325, 1.1875, 0.1975, 1.255, 0.265, 1.32, 0.33, 1.3875, 0.3975, 1.4525, 0.4625, 1.5175, 0.5275, 1.585, 0.595, 1.65, 0.66, 1.7175, 0.7275, 1.7825, 0.7925, 1.8475, 0.8575, 1.915, 0.925],
  "SoftwareVersions": "syngo MR E11",
  "SpacingBetweenSlices": 3.99,
  "StationName": "AWP66112",
  "TotalReadoutTime": 0.0395,
  "TxRefAmp": 214.93,
  "dcmmeta_affine": [
    [-2.9652099609375, 0.42993515729904175, 0.20032307505607605, 100.11761474609375],
    [0.45534035563468933, 2.827570676803589, 1.1877347230911255, -137.47781372070312],
    [0.013979634270071983, -0.9055383801460266, 3.803847551345825, -30.9224796295166],
    [0.0, 0.0, 0.0, 1.0]
],
  "dcmmeta_reorient_transform": [
    [0.0, -1.0, 0.0, 79.0],
    [1.0, 0.0, 0.0, 0.0],
    [0.0, 0.0, 1.0, 0.0],
    [0.0, 0.0, 0.0, 1.0]
],
  "dcmmeta_shape": [80, 80, 30, 200],
  "dcmmeta_slice_dim": 2,
  "dcmmeta_version": 0.6,
  "global": {
    "const": {
      "AccessionNumber": "qa64",
      "AcquisitionMatrix": [80, 0, 0, 80],
      "AngioFlag": "N",
      "BitsAllocated": 16,
      "BitsStored": 12,
      "BodyPartExamined": "BRAIN",
      "Columns": 480,
      "EchoNumbers": 1,
      "EchoTime": 30.0,
      "EchoTrainLength": 80,
      "FlipAngle": 77.0,
      "HighBit": 11,
      "ImageOrientationPatient": [0.98840329846018, -0.151780120999, 0.00465987795449, 0.14331171799375, 0.94252356571479, 0.30184611900429],
      "ImagePositionPatient": [-813.1115007802, -560.34633328068, -286.36360858181],
      "ImageType": [
        "ORIGINAL",
        "PRIMARY",
        "M",
        "ND",
        "NORM",
        "MOSAIC"
],
      "ImagedNucleus": "1H",
      "ImagingFrequency": 123.259284,
      "InPlanePhaseEncodingDirection": "COL",
      "MRAcquisitionType": "2D",
      "MagneticFieldStrength": 3.0,
      "Manufacturer": "SIEMENS",
      "ManufacturerModelName": "Prisma",
      "Modality": "MR",
      "NumberOfAverages": 1.0,
      "NumberOfPhaseEncodingSteps": 80,
      "PercentPhaseFieldOfView": 100.0,
      "PercentSampling": 100.0,
      "PerformedProcedureStepStartTime": "084509.161000",
      "PhotometricInterpretation": "MONOCHROME2",
      "PixelBandwidth": 2315.0,
      "PixelRepresentation": 0,
      "PixelSpacing": [3.0, 3.0],
      "ProtocolName": "func-bold_fa-77",
      "RepetitionTime": 2000.0,
      "Rows": 480,
      "SAR": 0.02873154914637,
      "SamplesPerPixel": 1,
      "ScanOptions": "FS",
      "ScanningSequence": "EP",
      "SequenceName": "*epfid2d1_80",
      "SequenceVariant": "SK",
      "SeriesDescription": "func-bold_fa-77",
      "SeriesNumber": 7,
      "SeriesTime": "090057.312000",
      "SliceLocation": -65.377373016698,
      "SliceThickness": 3.5,
      "SmallestImagePixelValue": 0,
      "SoftwareVersions": "syngo MR E11",
      "SpacingBetweenSlices": 3.9899999684808,
      "SpecificCharacterSet": "ISO_IR 100",
      "StudyID": "7",
      "StudyTime": "084509.083000",
      "TransmitCoilName": "Body",
      "VariableFlipAngleFlag": "N",
      "WindowCenterWidthExplanation": "Algo1"
    },
    "slices": {}
  },
  "time": {
    "samples": {
      "AcquisitionNumber": [1, 2, 3, 4, 5, 6, 7, 8, 9, 10, 11, 12, 13, 14, 15, 16, 17, 18, 19, 20, 21, 22, 23, 24, 25, 26, 27, 28, 29, 30, 31, 32, 33, 34, 35, 36, 37, 38, 39, 40, 41, 42, 43, 44, 45, 46, 47, 48, 49, 50, 51, 52, 53, 54, 55, 56, 57, 58, 59, 60, 61, 62, 63, 64, 65, 66, 67, 68, 69, 70, 71, 72, 73, 74, 75, 76, 77, 78, 79, 80, 81, 82, 83, 84, 85, 86, 87, 88, 89, 90, 91, 92, 93, 94, 95, 96, 97, 98, 99, 100, 101, 102, 103, 104, 105, 106, 107, 108, 109, 110, 111, 112, 113, 114, 115, 116, 117, 118, 119, 120, 121, 122, 123, 124, 125, 126, 127, 128, 129, 130, 131, 132, 133, 134, 135, 136, 137, 138, 139, 140, 141, 142, 143, 144, 145, 146, 147, 148, 149, 150, 151, 152, 153, 154, 155, 156, 157, 158, 159, 160, 161, 162, 163, 164, 165, 166, 167, 168, 169, 170, 171, 172, 173, 174, 175, 176, 177, 178, 179, 180, 181, 182, 183, 184, 185, 186, 187, 188, 189, 190, 191, 192, 193, 194, 195, 196, 197, 198, 199, 200],
      "AcquisitionTime": ["090008.505000", "090010.505000", "090012.505000", "090014.505000", "090016.505000", "090018.505000", "090020.505000", "090022.505000", "090024.505000", "090026.505000", "090028.505000", "090030.505000", "090032.505000", "090034.505000", "090036.505000", "090038.505000", "090040.505000", "090042.505000", "090044.505000", "090046.505000", "090048.505000", "090050.505000", "090052.505000", "090054.505000", "090056.505000", "090058.505000", "090100.505000", "090102.505000", "090104.505000", "090106.505000", "090108.505000", "090110.505000", "090112.505000", "090114.505000", "090116.505000", "090118.505000", "090120.505000", "090122.505000", "090124.505000", "090126.505000", "090128.505000", "090130.505000", "090132.505000", "090134.505000", "090136.505000", "090138.505000", "090140.505000", "090142.505000", "090144.505000", "090146.505000", "090148.505000", "090150.505000", "090152.505000", "090154.505000", "090156.505000", "090158.505000", "090200.505000", "090202.505000", "090204.505000", "090206.505000", "090208.505000", "090210.505000", "090212.505000", "090214.505000", "090216.505000", "090218.505000", "090220.505000", "090222.505000", "090224.505000", "090226.505000", "090228.505000", "090230.505000", "090232.505000", "090234.505000", "090236.505000", "090238.505000", "090240.505000", "090242.505000", "090244.505000", "090246.505000", "090248.505000", "090250.505000", "090252.505000", "090254.505000", "090256.505000", "090258.505000", "090300.505000", "090302.505000", "090304.505000", "090306.505000", "090308.505000", "090310.505000", "090312.505000", "090314.505000", "090316.505000", "090318.505000", "090320.505000", "090322.505000", "090324.505000", "090326.505000", "090328.505000", "090330.505000", "090332.505000", "090334.505000", "090336.505000", "090338.505000", "090340.505000", "090342.505000", "090344.505000", "090346.505000", "090348.505000", "090350.505000", "090352.505000", "090354.505000", "090356.505000", "090358.505000", "090400.505000", "090402.505000", "090404.505000", "090406.505000", "090408.505000", "090410.505000", "090412.505000", "090414.505000", "090416.505000", "090418.505000", "090420.505000", "090422.505000", "090424.505000", "090426.505000", "090428.505000", "090430.505000", "090432.505000", "090434.505000", "090436.505000", "090438.505000", "090440.505000", "090442.505000", "090444.505000", "090446.505000", "090448.505000", "090450.505000", "090452.505000", "090454.505000", "090456.505000", "090458.505000", "090500.505000", "090502.505000", "090504.505000", "090506.505000", "090508.505000", "090510.505000", "090512.505000", "090514.505000", "090516.505000", "090518.505000", "090520.505000", "090522.505000", "090524.505000", "090526.505000", "090528.505000", "090530.505000", "090532.505000", "090534.505000", "090536.505000", "090538.505000", "090540.505000", "090542.505000", "090544.505000", "090546.505000", "090548.505000", "090550.505000", "090552.505000", "090554.505000", "090556.505000", "090558.505000", "090600.505000", "090602.505000", "090604.505000", "090606.505000", "090608.505000", "090610.505000", "090612.505000", "090614.505000", "090616.505000", "090618.505000", "090620.505000", "090622.505000", "090624.505000", "090626.505000", "090628.505000", "090630.505000", "090632.505000", "090634.505000", "090636.505000", "090638.505000", "090640.505000", "090642.505000", "090644.505000", "090646.505000"],
      "ContentTime": ["090057.315000", "090057.318000", "090057.320000", "090057.324000", "090057.326000", "090057.329000", "090057.331000", "090057.333000", "090057.336000", "090057.338000", "090057.340000", "090057.343000", "090057.345000", "090057.347000", "090057.350000", "090057.352000", "090057.355000", "090057.357000", "090057.359000", "090057.362000", "090057.364000", "090057.366000", "090057.369000", "090057.371000", "090137.311000", "090137.314000", "090137.316000", "090137.318000", "090137.321000", "090137.323000", "090137.326000", "090137.328000", "090137.330000", "090137.333000", "090137.335000", "090137.337000", "090137.340000", "090137.342000", "090137.344000", "090137.347000", "090137.349000", "090137.351000", "090137.354000", "090137.356000", "090217.311000", "090217.314000", "090217.316000", "090217.318000", "090217.321000", "090217.323000", "090217.325000", "090217.328000", "090217.330000", "090217.332000", "090217.335000", "090217.337000", "090217.339000", "090217.342000", "090217.344000", "090217.346000", "090217.349000", "090217.351000", "090217.353000", "090217.356000", "090257.310000", "090257.313000", "090257.315000", "090257.317000", "090257.320000", "090257.322000", "090257.324000", "090257.327000", "090257.333000", "090257.335000", "090257.337000", "090257.340000", "090257.342000", "090257.344000", "090257.347000", "090257.349000", "090257.351000", "090257.354000", "090257.356000", "090257.358000", "090337.310000", "090337.313000", "090337.315000", "090337.318000", "090337.320000", "090337.322000", "090337.325000", "090337.327000", "090337.330000", "090337.332000", "090337.334000", "090337.337000", "090337.339000", "090337.341000", "090337.344000", "090337.346000", "090337.349000", "090337.351000", "090337.353000", "090337.356000", "090417.311000", "090417.314000", "090417.328000", "090417.330000", "090417.333000", "090417.335000", "090417.337000", "090417.340000", "090417.342000", "090417.351000", "090417.354000", "090417.356000", "090417.358000", "090417.361000", "090417.363000", "090417.365000", "090417.368000", "090417.370000", "090417.372000", "090417.375000", "090457.310000", "090457.313000", "090457.316000", "090457.318000", "090457.320000", "090457.322000", "090457.325000", "090457.327000", "090457.330000", "090457.332000", "090457.334000", "090457.337000", "090457.339000", "090457.341000", "090457.344000", "090457.346000", "090457.348000", "090457.351000", "090457.353000", "090457.355000", "090537.310000", "090537.317000", "090537.319000", "090537.322000", "090537.324000", "090537.326000", "090537.329000", "090537.331000", "090537.333000", "090537.336000", "090537.338000", "090537.340000", "090537.343000", "090537.345000", "090537.347000", "090537.350000", "090537.352000", "090537.354000", "090537.357000", "090537.359000", "090617.311000", "090617.314000", "090617.316000", "090617.319000", "090617.321000", "090617.323000", "090617.326000", "090617.328000", "090617.331000", "090617.333000", "090617.335000", "090617.338000", "090617.340000", "090617.342000", "090617.345000", "090617.347000", "090617.349000", "090617.352000", "090617.354000", "090617.356000", "090647.919000", "090647.921000", "090647.924000", "090647.926000", "090647.929000", "090647.931000", "090647.934000", "090647.936000", "090647.938000", "090647.941000", "090647.943000", "090647.946000", "090647.948000", "090647.954000", "090647.958000", "090647.960000"],
      "InstanceCreationTime": ["090057.315000", "090057.318000", "090057.320000", "090057.324000", "090057.326000", "090057.329000", "090057.331000", "090057.333000", "090057.336000", "090057.338000", "090057.340000", "090057.343000", "090057.345000", "090057.347000", "090057.350000", "090057.352000", "090057.355000", "090057.357000", "090057.359000", "090057.362000", "090057.364000", "090057.366000", "090057.369000", "090057.371000", "090137.311000", "090137.314000", "090137.316000", "090137.318000", "090137.321000", "090137.323000", "090137.326000", "090137.328000", "090137.330000", "090137.333000", "090137.335000", "090137.337000", "090137.340000", "090137.342000", "090137.344000", "090137.347000", "090137.349000", "090137.351000", "090137.354000", "090137.356000", "090217.311000", "090217.314000", "090217.316000", "090217.318000", "090217.321000", "090217.323000", "090217.325000", "090217.328000", "090217.330000", "090217.332000", "090217.335000", "090217.337000", "090217.339000", "090217.342000", "090217.344000", "090217.346000", "090217.349000", "090217.351000", "090217.353000", "090217.356000", "090257.310000", "090257.313000", "090257.315000", "090257.317000", "090257.320000", "090257.322000", "090257.324000", "090257.327000", "090257.333000", "090257.335000", "090257.337000", "090257.340000", "090257.342000", "090257.344000", "090257.347000", "090257.349000", "090257.351000", "090257.354000", "090257.356000", "090257.358000", "090337.310000", "090337.313000", "090337.315000", "090337.318000", "090337.320000", "090337.322000", "090337.325000", "090337.327000", "090337.330000", "090337.332000", "090337.334000", "090337.337000", "090337.339000", "090337.341000", "090337.344000", "090337.346000", "090337.349000", "090337.351000", "090337.353000", "090337.356000", "090417.311000", "090417.314000", "090417.328000", "090417.330000", "090417.333000", "090417.335000", "090417.337000", "090417.340000", "090417.342000", "090417.351000", "090417.354000", "090417.356000", "090417.358000", "090417.361000", "090417.363000", "090417.365000", "090417.368000", "090417.370000", "090417.372000", "090417.375000", "090457.310000", "090457.313000", "090457.316000", "090457.318000", "090457.320000", "090457.322000", "090457.325000", "090457.327000", "090457.330000", "090457.332000", "090457.334000", "090457.337000", "090457.339000", "090457.341000", "090457.344000", "090457.346000", "090457.348000", "090457.351000", "090457.353000", "090457.355000", "090537.310000", "090537.317000", "090537.319000", "090537.322000", "090537.324000", "090537.326000", "090537.329000", "090537.331000", "090537.333000", "090537.336000", "090537.338000", "090537.340000", "090537.343000", "090537.345000", "090537.347000", "090537.350000", "090537.352000", "090537.354000", "090537.357000", "090537.359000", "090617.311000", "090617.314000", "090617.316000", "090617.319000", "090617.321000", "090617.323000", "090617.326000", "090617.328000", "090617.331000", "090617.333000", "090617.335000", "090617.338000", "090617.340000", "090617.342000", "090617.345000", "090617.347000", "090617.349000", "090617.352000", "090617.354000", "090617.356000", "090647.919000", "090647.921000", "090647.924000", "090647.926000", "090647.929000", "090647.931000", "090647.934000", "090647.936000", "090647.938000", "090647.941000", "090647.943000", "090647.946000", "090647.948000", "090647.954000", "090647.958000", "090647.960000"],
      "InstanceNumber": [1, 2, 3, 4, 5, 6, 7, 8, 9, 10, 11, 12, 13, 14, 15, 16, 17, 18, 19, 20, 21, 22, 23, 24, 25, 26, 27, 28, 29, 30, 31, 32, 33, 34, 35, 36, 37, 38, 39, 40, 41, 42, 43, 44, 45, 46, 47, 48, 49, 50, 51, 52, 53, 54, 55, 56, 57, 58, 59, 60, 61, 62, 63, 64, 65, 66, 67, 68, 69, 70, 71, 72, 73, 74, 75, 76, 77, 78, 79, 80, 81, 82, 83, 84, 85, 86, 87, 88, 89, 90, 91, 92, 93, 94, 95, 96, 97, 98, 99, 100, 101, 102, 103, 104, 105, 106, 107, 108, 109, 110, 111, 112, 113, 114, 115, 116, 117, 118, 119, 120, 121, 122, 123, 124, 125, 126, 127, 128, 129, 130, 131, 132, 133, 134, 135, 136, 137, 138, 139, 140, 141, 142, 143, 144, 145, 146, 147, 148, 149, 150, 151, 152, 153, 154, 155, 156, 157, 158, 159, 160, 161, 162, 163, 164, 165, 166, 167, 168, 169, 170, 171, 172, 173, 174, 175, 176, 177, 178, 179, 180, 181, 182, 183, 184, 185, 186, 187, 188, 189, 190, 191, 192, 193, 194, 195, 196, 197, 198, 199, 200],
      "LargestImagePixelValue": [3690, 3688, 3687, 3690, 3685, 3689, 3686, 3687, 3692, 3689, 3688, 3689, 3688, 3691, 3694, 3690, 3689, 3688, 3689, 3688, 3685, 3687, 3689, 3693, 3688, 3688, 3688, 3688, 3686, 3691, 3691, 3694, 3684, 3690, 3689, 3687, 3684, 3686, 3685, 3691, 3690, 3687, 3685, 3688, 3686, 3690, 3687, 3692, 3692, 3689, 3692, 3683, 3687, 3693, 3690, 3690, 3688, 3686, 3689, 3684, 3683, 3687, 3684, 3687, 3690, 3688, 3690, 3684, 3688, 3687, 3684, 3686, 3692, 3689, 3686, 3684, 3688, 3688, 3685, 3689, 3683, 3684, 3685, 3684, 3685, 3688, 3689, 3682, 3685, 3687, 3683, 3685, 3689, 3687, 3685, 3687, 3685, 3686, 3687, 3686, 3689, 3690, 3686, 3687, 3685, 3686, 3689, 3682, 3688, 3687, 3692, 3689, 3686, 3689, 3687, 3688, 3683, 3685, 3685, 3690, 3687, 3680, 3689, 3689, 3691, 3690, 3687, 3685, 3692, 3685, 3687, 3688, 3686, 3685, 3692, 3692, 3687, 3685, 3685, 3689, 3686, 3688, 3684, 3686, 3680, 3688, 3685, 3683, 3689, 3687, 3688, 3692, 3687, 3683, 3692, 3689, 3684, 3688, 3686, 3686, 3687, 3688, 3685, 3682, 3688, 3689, 3688, 3687, 3686, 3686, 3683, 3682, 3687, 3684, 3686, 3684, 3688, 3689, 3688, 3683, 3687, 3686, 3690, 3686, 3682, 3686, 3687, 3681, 3684, 3684, 3688, 3683, 3691, 3688, 3687, 3688, 3686, 3685, 3694, 3691],
      "WindowCenter": [1368.0, 1368.0, 1368.0, 1368.0, 1368.0, 1367.0, 1368.0, 1368.0, 1367.0, 1368.0, 1368.0, 1368.0, 1368.0, 1368.0, 1368.0, 1368.0, 1367.0, 1368.0, 1368.0, 1367.0, 1368.0, 1367.0, 1367.0, 1368.0, 1368.0, 1368.0, 1367.0, 1367.0, 1367.0, 1367.0, 1367.0, 1367.0, 1368.0, 1367.0, 1367.0, 1368.0, 1367.0, 1367.0, 1368.0, 1367.0, 1367.0, 1368.0, 1368.0, 1366.0, 1367.0, 1367.0, 1367.0, 1367.0, 1368.0, 1367.0, 1367.0, 1367.0, 1368.0, 1367.0, 1367.0, 1367.0, 1366.0, 1367.0, 1367.0, 1367.0, 1367.0, 1366.0, 1366.0, 1366.0, 1367.0, 1367.0, 1366.0, 1366.0, 1367.0, 1366.0, 1367.0, 1367.0, 1366.0, 1366.0, 1366.0, 1367.0, 1366.0, 1366.0, 1366.0, 1366.0, 1366.0, 1367.0, 1366.0, 1366.0, 1366.0, 1366.0, 1366.0, 1366.0, 1366.0, 1366.0, 1366.0, 1366.0, 1366.0, 1366.0, 1365.0, 1365.0, 1366.0, 1366.0, 1366.0, 1365.0, 1366.0, 1366.0, 1366.0, 1365.0, 1365.0, 1366.0, 1365.0, 1366.0, 1366.0, 1365.0, 1365.0, 1365.0, 1365.0, 1365.0, 1365.0, 1365.0, 1365.0, 1365.0, 1365.0, 1365.0, 1365.0, 1365.0, 1365.0, 1365.0, 1365.0, 1365.0, 1366.0, 1365.0, 1364.0, 1365.0, 1365.0, 1365.0, 1365.0, 1365.0, 1365.0, 1365.0, 1365.0, 1365.0, 1365.0, 1364.0, 1365.0, 1365.0, 1364.0, 1365.0, 1364.0, 1364.0, 1364.0, 1365.0, 1364.0, 1364.0, 1365.0, 1364.0, 1364.0, 1364.0, 1364.0, 1364.0, 1364.0, 1364.0, 1365.0, 1365.0, 1364.0, 1364.0, 1364.0, 1364.0, 1364.0, 1364.0, 1365.0, 1364.0, 1364.0, 1364.0, 1364.0, 1364.0, 1363.0, 1364.0, 1363.0, 1364.0, 1364.0, 1364.0, 1364.0, 1364.0, 1364.0, 1364.0, 1364.0, 1364.0, 1363.0, 1364.0, 1363.0, 1364.0, 1364.0, 1364.0, 1364.0, 1364.0, 1364.0, 1363.0, 1363.0, 1363.0, 1363.0, 1364.0, 1363.0, 1363.0],
      "WindowWidth": [3256.0, 3256.0, 3256.0, 3256.0, 3256.0, 3257.0, 3256.0, 3256.0, 3257.0, 3257.0, 3256.0, 3256.0, 3257.0, 3256.0, 3256.0, 3256.0, 3256.0, 3256.0, 3256.0, 3256.0, 3256.0, 3256.0, 3256.0, 3256.0, 3256.0, 3255.0, 3255.0, 3256.0, 3256.0, 3256.0, 3257.0, 3256.0, 3256.0, 3257.0, 3256.0, 3256.0, 3256.0, 3255.0, 3255.0, 3256.0, 3255.0, 3255.0, 3255.0, 3256.0, 3255.0, 3255.0, 3255.0, 3255.0, 3256.0, 3255.0, 3256.0, 3255.0, 3255.0, 3255.0, 3255.0, 3255.0, 3255.0, 3255.0, 3255.0, 3255.0, 3255.0, 3255.0, 3255.0, 3255.0, 3255.0, 3255.0, 3255.0, 3254.0, 3255.0, 3255.0, 3255.0, 3255.0, 3255.0, 3255.0, 3254.0, 3254.0, 3254.0, 3254.0, 3254.0, 3254.0, 3254.0, 3254.0, 3254.0, 3254.0, 3254.0, 3254.0, 3254.0, 3254.0, 3254.0, 3254.0, 3254.0, 3254.0, 3254.0, 3254.0, 3254.0, 3254.0, 3254.0, 3254.0, 3254.0, 3254.0, 3254.0, 3254.0, 3254.0, 3254.0, 3254.0, 3254.0, 3253.0, 3254.0, 3254.0, 3253.0, 3253.0, 3253.0, 3253.0, 3253.0, 3253.0, 3253.0, 3253.0, 3253.0, 3253.0, 3253.0, 3253.0, 3253.0, 3253.0, 3253.0, 3253.0, 3253.0, 3253.0, 3253.0, 3253.0, 3253.0, 3253.0, 3253.0, 3253.0, 3253.0, 3253.0, 3253.0, 3253.0, 3253.0, 3253.0, 3252.0, 3252.0, 3253.0, 3252.0, 3252.0, 3252.0, 3252.0, 3252.0, 3252.0, 3252.0, 3252.0, 3252.0, 3252.0, 3252.0, 3252.0, 3252.0, 3252.0, 3252.0, 3252.0, 3252.0, 3252.0, 3252.0, 3252.0, 3252.0, 3252.0, 3252.0, 3252.0, 3252.0, 3252.0, 3252.0, 3252.0, 3252.0, 3252.0, 3252.0, 3252.0, 3251.0, 3251.0, 3252.0, 3252.0, 3252.0, 3252.0, 3252.0, 3251.0, 3252.0, 3252.0, 3251.0, 3251.0, 3251.0, 3251.0, 3251.0, 3251.0, 3251.0, 3251.0, 3251.0, 3251.0, 3251.0, 3251.0, 3251.0, 3251.0, 3251.0, 3251.0]
    },
    "slices": {}
  }
}