{
  "AcquisitionMatrixPE": 80,
  "AcquisitionNumber": 1,
  "AcquisitionTime": "09:15:46.155000",
  "BandwidthPerPixelPhaseEncode": 44.643,
  "BaseResolution": 80,
  "BodyPartExamined": "BRAIN",
  "CoilCombinationMethod": "Sum of Squares",
  "ConsistencyInfo": "N4_VE11C_LATEST_20160120",
  "ConversionSoftware": "dcm2niix",
  "ConversionSoftwareVersion": "v1.0.20220720",
  "DerivedVendorReportedEchoSpacing": 0.000559998,
  "DeviceSerialNumber": "66112",
  "DwellTime": 2.7e-06,
  "EchoTime": 0.035,
  "EchoTrainLength": 39,
  "EffectiveEchoSpacing": 0.000279999,
  "FlipAngle": 90,
  "HeudiconvVersion": "0.13.1",
  "ImageOrientationPatientDICOM": [0.999958, 0.00630484, 0.00668468, -0.00802834, 0.953343, 0.301784],
  "ImageOrientationText": "Tra>Cor(17.6)>Sag(0.3)",
  "ImageType": [
    "ORIGINAL",
    "PRIMARY",
    "M",
    "ND",
    "NORM",
    "MOSAIC"
],
  "ImagingFrequency": 123.252,
  "InPlanePhaseEncodingDirectionDICOM": "COL",
  "InstitutionAddress": "Maynard 3,Hanover,NH,US,03755",
  "InstitutionName": "Dartmouth College - PBS",
  "InstitutionalDepartmentName": "Department",
  "MRAcquisitionType": "2D",
  "MagneticFieldStrength": 3,
  "Manufacturer": "Siemens",
  "ManufacturersModelName": "Prisma",
  "Modality": "MR",
  "MultibandAccelerationFactor": 4,
  "NonlinearGradientCorrection": false,
  "ParallelReductionFactorInPlane": 2,
  "PartialFourier": 1,
  "PatientPosition": "HFS",
  "PercentPhaseFOV": 100,
  "PercentSampling": 100,
  "PhaseEncodingDirection": "j-",
  "PhaseEncodingSteps": 79,
  "PhaseResolution": 1,
  "PixelBandwidth": 2315,
  "ProcedureStepDescription": "dbic^QA",
  "ProtocolName": "func-bold_task-rest_acq-p2-s4-3.5mm",
  "PulseSequenceDetails": "%SiemensSeq%\\ep2d_bold",
  "ReceiveCoilActiveElements": "HEA;HEP",
  "ReceiveCoilName": "Head_32",
  "ReconMatrixPE": 80,
  "RefLinesPE": 24,
  "RepetitionTime": 2,
  "SAR": 0.0208937,
  "ScanOptions": "FS",
  "ScanningSequence": "EP",
  "SequenceName": "*epfid2d1_80",
  "SequenceVariant": "SK",
  "SeriesDescription": "func-bold_task-rest_acq-p2-s4-3.5mm",
  "SeriesNumber": 7,
  "ShimSetting": [4146, -7686, -7511, 263, -55, -41, -67, 80],
  "SliceThickness": 3.5,
  "SliceTiming": [1.485, 0, 0.99, 0.2475, 1.2375, 0.7425, 1.7325, 0.495, 1.485, 0, 0.99, 0.2475, 1.2375, 0.7425, 1.7325, 0.495, 1.485, 0, 0.99, 0.2475, 1.2375, 0.7425, 1.7325, 0.495, 1.485, 0, 0.99, 0.2475, 1.2375, 0.7425, 1.7325, 0.495],
  "SoftwareVersions": "syngo MR E11",
  "SpacingBetweenSlices": 3.99,
  "StationName": "AWP66112",
  "TaskName": "rest",
  "TotalReadoutTime": 0.0221199,
  "TxRefAmp": 234.558,
  "dcmmeta_affine": [
    [-2.999873399734497, -0.024085013195872307, 0.017835689708590508, 119.11128997802734],
    [-0.018914513289928436, 2.860028028488159, 1.204279899597168, -120.87506103515625],
    [0.020054053515195847, -0.9053508639335632, 3.8038783073425293, -23.85274887084961],
    [0.0, 0.0, 0.0, 1.0]
],
  "dcmmeta_reorient_transform": [
    [0.0, -1.0, 0.0, 79.0],
    [1.0, 0.0, 0.0, 0.0],
    [0.0, 0.0, 1.0, 0.0],
    [0.0, 0.0, 0.0, 1.0]
],
  "dcmmeta_shape": [80, 80, 32, 200],
  "dcmmeta_slice_dim": 2,
  "dcmmeta_version": 0.6,
  "global": {
    "const": {
      "AccessionNumber": "qa",
      "AcquisitionMatrix": [80, 0, 0, 80],
      "AngioFlag": "N",
      "BitsAllocated": 16,
      "BitsStored": 12,
      "BodyPartExamined": "BRAIN",
      "Columns": 480,
      "EchoNumbers": 1,
      "EchoTime": 35.0,
      "EchoTrainLength": 39,
      "FlipAngle": 90.0,
      "HighBit": 11,
      "ImageOrientationPatient": [0.99995778111726, 0.0063048376439, 0.0066846843849, -0.0080283378119, 0.95334263919039, 0.30178362794143],
      "ImagePositionPatient": [-712.36623749184, -680.85563289802, -280.45645687813],
      "ImageType": [
        "ORIGINAL",
        "PRIMARY",
        "M",
        "ND",
        "NORM",
        "MOSAIC"
],
      "ImagedNucleus": "1H",
      "ImagingFrequency": 123.252435,
      "InPlanePhaseEncodingDirection": "COL",
      "MRAcquisitionType": "2D",
      "MagneticFieldStrength": 3.0,
      "Manufacturer": "SIEMENS",
      "ManufacturerModelName": "Prisma",
      "Modality": "MR",
      "NumberOfAverages": 1.0,
      "NumberOfPhaseEncodingSteps": 79,
      "PercentPhaseFieldOfView": 100.0,
      "PercentSampling": 100.0,
      "PerformedProcedureStepStartTime": "090519.417000",
      "PhotometricInterpretation": "MONOCHROME2",
      "PixelBandwidth": 2315.0,
      "PixelRepresentation": 0,
      "PixelSpacing": [3.0, 3.0],
      "ProtocolName": "func-bold_task-rest_acq-p2-s4-3.5mm",
      "RepetitionTime": 2000.0,
      "Rows": 480,
      "SAR": 0.02089368345757,
      "SamplesPerPixel": 1,
      "ScanOptions": "FS",
      "ScanningSequence": "EP",
      "SequenceName": "*epfid2d1_80",
      "SequenceVariant": "SK",
      "SeriesDescription": "func-bold_task-rest_acq-p2-s4-3.5mm",
      "SeriesNumber": 7,
      "SeriesTime": "091643.633000",
      "SliceLocation": -58.690712176365,
      "SliceThickness": 3.5,
      "SmallestImagePixelValue": 0,
      "SoftwareVersions": "syngo MR E11",
      "SpacingBetweenSlices": 3.9899999164462,
      "SpecificCharacterSet": "ISO_IR 100",
      "StudyID": "8",
      "StudyTime": "090519.315000",
      "TransmitCoilName": "Body",
      "VariableFlipAngleFlag": "N",
      "WindowCenterWidthExplanation": "Algo1",
      "dBdt": 0.0},
    "slices": {}
  },
  "time": {
    "samples": {
      "AcquisitionNumber": [1, 2, 3, 4, 5, 6, 7, 8, 9, 10, 11, 12, 13, 14, 15, 16, 17, 18, 19, 20, 21, 22, 23, 24, 25, 26, 27, 28, 29, 30, 31, 32, 33, 34, 35, 36, 37, 38, 39, 40, 41, 42, 43, 44, 45, 46, 47, 48, 49, 50, 51, 52, 53, 54, 55, 56, 57, 58, 59, 60, 61, 62, 63, 64, 65, 66, 67, 68, 69, 70, 71, 72, 73, 74, 75, 76, 77, 78, 79, 80, 81, 82, 83, 84, 85, 86, 87, 88, 89, 90, 91, 92, 93, 94, 95, 96, 97, 98, 99, 100, 101, 102, 103, 104, 105, 106, 107, 108, 109, 110, 111, 112, 113, 114, 115, 116, 117, 118, 119, 120, 121, 122, 123, 124, 125, 126, 127, 128, 129, 130, 131, 132, 133, 134, 135, 136, 137, 138, 139, 140, 141, 142, 143, 144, 145, 146, 147, 148, 149, 150, 151, 152, 153, 154, 155, 156, 157, 158, 159, 160, 161, 162, 163, 164, 165, 166, 167, 168, 169, 170, 171, 172, 173, 174, 175, 176, 177, 178, 179, 180, 181, 182, 183, 184, 185, 186, 187, 188, 189, 190, 191, 192, 193, 194, 195, 196, 197, 198, 199, 200],
      "AcquisitionTime": ["091546.155000", "091548.155000", "091550.155000", "091552.155000", "091554.155000", "091556.155000", "091558.155000", "091600.155000", "091602.155000", "091604.155000", "091606.155000", "091608.155000", "091610.155000", "091612.155000", "091614.155000", "091616.155000", "091618.155000", "091620.155000", "091622.155000", "091624.155000", "091626.155000", "091628.155000", "091630.155000", "091632.155000", "091634.155000", "091636.155000", "091638.155000", "091640.155000", "091642.155000", "091644.155000", "091646.155000", "091648.155000", "091650.155000", "091652.155000", "091654.155000", "091656.155000", "091658.155000", "091700.155000", "091702.155000", "091704.155000", "091706.155000", "091708.155000", "091710.155000", "091712.155000", "091714.155000", "091716.155000", "091718.155000", "091720.155000", "091722.155000", "091724.155000", "091726.155000", "091728.155000", "091730.155000", "091732.155000", "091734.155000", "091736.155000", "091738.155000", "091740.155000", "091742.155000", "091744.155000", "091746.155000", "091748.155000", "091750.155000", "091752.155000", "091754.155000", "091756.155000", "091758.155000", "091800.155000", "091802.155000", "091804.155000", "091806.155000", "091808.155000", "091810.155000", "091812.155000", "091814.155000", "091816.155000", "091818.155000", "091820.155000", "091822.155000", "091824.155000", "091826.155000", "091828.155000", "091830.155000", "091832.155000", "091834.155000", "091836.155000", "091838.155000", "091840.155000", "091842.155000", "091844.155000", "091846.155000", "091848.155000", "091850.155000", "091852.155000", "091854.155000", "091856.155000", "091858.155000", "091900.155000", "091902.155000", "091904.155000", "091906.155000", "091908.155000", "091910.155000", "091912.155000", "091914.155000", "091916.155000", "091918.155000", "091920.155000", "091922.155000", "091924.155000", "091926.155000", "091928.155000", "091930.155000", "091932.155000", "091934.155000", "091936.155000", "091938.155000", "091940.155000", "091942.155000", "091944.155000", "091946.155000", "091948.155000", "091950.155000", "091952.155000", "091954.155000", "091956.155000", "091958.155000", "092000.155000", "092002.155000", "092004.155000", "092006.155000", "092008.155000", "092010.155000", "092012.155000", "092014.155000", "092016.155000", "092018.155000", "092020.155000", "092022.155000", "092024.155000", "092026.155000", "092028.155000", "092030.155000", "092032.155000", "092034.155000", "092036.155000", "092038.155000", "092040.155000", "092042.155000", "092044.155000", "092046.155000", "092048.155000", "092050.155000", "092052.155000", "092054.155000", "092056.155000", "092058.155000", "092100.155000", "092102.155000", "092104.155000", "092106.155000", "092108.155000", "092110.155000", "092112.155000", "092114.155000", "092116.155000", "092118.155000", "092120.155000", "092122.155000", "092124.155000", "092126.155000", "092128.155000", "092130.155000", "092132.155000", "092134.155000", "092136.155000", "092138.155000", "092140.155000", "092142.155000", "092144.155000", "092146.155000", "092148.155000", "092150.155000", "092152.155000", "092154.155000", "092156.155000", "092158.155000", "092200.155000", "092202.155000", "092204.155000", "092206.155000", "092208.155000", "092210.155000", "092212.155000", "092214.155000", "092216.155000", "092218.155000", "092220.155000", "092222.155000", "092224.155000"],
      "ContentTime": ["091643.636000", "091643.643000", "091643.646000", "091643.648000", "091643.656000", "091643.658000", "091643.661000", "091643.664000", "091643.666000", "091643.669000", "091643.672000", "091643.674000", "091643.677000", "091643.679000", "091643.682000", "091643.685000", "091643.687000", "091643.690000", "091643.692000", "091643.695000", "091643.698000", "091643.701000", "091643.703000", "091643.707000", "091643.710000", "091643.713000", "091643.715000", "091643.718000", "091643.720000", "091723.631000", "091723.634000", "091723.637000", "091723.648000", "091723.651000", "091723.653000", "091723.656000", "091723.659000", "091723.661000", "091723.664000", "091723.666000", "091723.669000", "091723.672000", "091723.674000", "091723.677000", "091723.680000", "091723.682000", "091723.685000", "091723.688000", "091723.690000", "091803.632000", "091803.634000", "091803.637000", "091803.643000", "091803.646000", "091803.661000", "091803.663000", "091803.666000", "091803.669000", "091803.671000", "091803.674000", "091803.677000", "091803.679000", "091803.682000", "091803.685000", "091803.687000", "091803.690000", "091803.693000", "091803.695000", "091803.698000", "091843.632000", "091843.634000", "091843.637000", "091843.640000", "091843.642000", "091843.645000", "091843.648000", "091843.650000", "091843.653000", "091843.656000", "091843.658000", "091843.661000", "091843.664000", "091843.666000", "091843.669000", "091843.671000", "091843.674000", "091843.677000", "091843.679000", "091843.682000", "091923.632000", "091923.634000", "091923.637000", "091923.640000", "091923.642000", "091923.645000", "091923.648000", "091923.650000", "091923.653000", "091923.655000", "091923.658000", "091923.661000", "091923.663000", "091923.666000", "091923.669000", "091923.671000", "091923.674000", "091923.677000", "091923.679000", "091923.682000", "092003.632000", "092003.634000", "092003.637000", "092003.640000", "092003.642000", "092003.645000", "092003.648000", "092003.650000", "092003.653000", "092003.656000", "092003.658000", "092003.661000", "092003.664000", "092003.666000", "092003.669000", "092003.672000", "092003.674000", "092003.677000", "092003.679000", "092003.682000", "092043.630000", "092043.633000", "092043.636000", "092043.639000", "092043.641000", "092043.644000", "092043.647000", "092043.649000", "092043.652000", "092043.655000", "092043.657000", "092043.660000", "092043.663000", "092043.666000", "092043.668000", "092043.671000", "092043.673000", "092043.676000", "092043.679000", "092043.682000", "092123.631000", "092123.634000", "092123.637000", "092123.640000", "092123.642000", "092123.645000", "092123.648000", "092123.650000", "092123.653000", "092123.656000", "092123.658000", "092123.661000", "092123.664000", "092123.666000", "092123.669000", "092123.671000", "092123.674000", "092123.677000", "092123.679000", "092123.682000", "092203.632000", "092203.634000", "092203.637000", "092203.640000", "092203.642000", "092203.645000", "092203.648000", "092203.651000", "092203.653000", "092203.656000", "092203.658000", "092203.661000", "092203.664000", "092203.666000", "092203.669000", "092203.672000", "092203.674000", "092203.677000", "092203.680000", "092203.682000", "092224.895000", "092224.898000", "092224.901000", "092224.903000", "092224.906000", "092224.909000", "092224.912000", "092224.914000", "092224.917000", "092224.920000", "092224.922000"],
      "InstanceCreationTime": ["091643.636000", "091643.643000", "091643.646000", "091643.648000", "091643.656000", "091643.658000", "091643.661000", "091643.664000", "091643.666000", "091643.669000", "091643.672000", "091643.674000", "091643.677000", "091643.679000", "091643.682000", "091643.685000", "091643.687000", "091643.690000", "091643.692000", "091643.695000", "091643.698000", "091643.701000", "091643.703000", "091643.707000", "091643.710000", "091643.713000", "091643.715000", "091643.718000", "091643.720000", "091723.631000", "091723.634000", "091723.637000", "091723.648000", "091723.651000", "091723.653000", "091723.656000", "091723.659000", "091723.661000", "091723.664000", "091723.666000", "091723.669000", "091723.672000", "091723.674000", "091723.677000", "091723.680000", "091723.682000", "091723.685000", "091723.688000", "091723.690000", "091803.632000", "091803.634000", "091803.637000", "091803.643000", "091803.646000", "091803.661000", "091803.663000", "091803.666000", "091803.669000", "091803.671000", "091803.674000", "091803.677000", "091803.679000", "091803.682000", "091803.685000", "091803.687000", "091803.690000", "091803.693000", "091803.695000", "091803.698000", "091843.632000", "091843.634000", "091843.637000", "091843.640000", "091843.642000", "091843.645000", "091843.648000", "091843.650000", "091843.653000", "091843.656000", "091843.658000", "091843.661000", "091843.664000", "091843.666000", "091843.669000", "091843.671000", "091843.674000", "091843.677000", "091843.679000", "091843.682000", "091923.632000", "091923.634000", "091923.637000", "091923.640000", "091923.642000", "091923.645000", "091923.648000", "091923.650000", "091923.653000", "091923.655000", "091923.658000", "091923.661000", "091923.663000", "091923.666000", "091923.669000", "091923.671000", "091923.674000", "091923.677000", "091923.679000", "091923.682000", "092003.632000", "092003.634000", "092003.637000", "092003.640000", "092003.642000", "092003.645000", "092003.648000", "092003.650000", "092003.653000", "092003.656000", "092003.658000", "092003.661000", "092003.664000", "092003.666000", "092003.669000", "092003.672000", "092003.674000", "092003.677000", "092003.679000", "092003.682000", "092043.630000", "092043.633000", "092043.636000", "092043.639000", "092043.641000", "092043.644000", "092043.647000", "092043.649000", "092043.652000", "092043.655000", "092043.657000", "092043.660000", "092043.663000", "092043.666000", "092043.668000", "092043.671000", "092043.673000", "092043.676000", "092043.679000", "092043.682000", "092123.631000", "092123.634000", "092123.637000", "092123.640000", "092123.642000", "092123.645000", "092123.648000", "092123.650000", "092123.653000", "092123.656000", "092123.658000", "092123.661000", "092123.664000", "092123.666000", "092123.669000", "092123.671000", "092123.674000", "092123.677000", "092123.679000", "092123.682000", "092203.632000", "092203.634000", "092203.637000", "092203.640000", "092203.642000", "092203.645000", "092203.648000", "092203.651000", "092203.653000", "092203.656000", "092203.658000", "092203.661000", "092203.664000", "092203.666000", "092203.669000", "092203.672000", "092203.674000", "092203.677000", "092203.680000", "092203.682000", "092224.895000", "092224.898000", "092224.901000", "092224.903000", "092224.906000", "092224.909000", "092224.912000", "092224.914000", "092224.917000", "092224.920000", "092224.922000"],
      "InstanceNumber": [1, 2, 3, 4, 5, 6, 7, 8, 9, 10, 11, 12, 13, 14, 15, 16, 17, 18, 19, 20, 21, 22, 23, 24, 25, 26, 27, 28, 29, 30, 31, 32, 33, 34, 35, 36, 37, 38, 39, 40, 41, 42, 43, 44, 45, 46, 47, 48, 49, 50, 51, 52, 53, 54, 55, 56, 57, 58, 59, 60, 61, 62, 63, 64, 65, 66, 67, 68, 69, 70, 71, 72, 73, 74, 75, 76, 77, 78, 79, 80, 81, 82, 83, 84, 85, 86, 87, 88, 89, 90, 91, 92, 93, 94, 95, 96, 97, 98, 99, 100, 101, 102, 103, 104, 105, 106, 107, 108, 109, 110, 111, 112, 113, 114, 115, 116, 117, 118, 119, 120, 121, 122, 123, 124, 125, 126, 127, 128, 129, 130, 131, 132, 133, 134, 135, 136, 137, 138, 139, 140, 141, 142, 143, 144, 145, 146, 147, 148, 149, 150, 151, 152, 153, 154, 155, 156, 157, 158, 159, 160, 161, 162, 163, 164, 165, 166, 167, 168, 169, 170, 171, 172, 173, 174, 175, 176, 177, 178, 179, 180, 181, 182, 183, 184, 185, 186, 187, 188, 189, 190, 191, 192, 193, 194, 195, 196, 197, 198, 199, 200],
      "LargestImagePixelValue": [1893, 1889, 1892, 1890, 1885, 1891, 1893, 1892, 1898, 1894, 1890, 1899, 1895, 1891, 1890, 1898, 1893, 1889, 1894, 1894, 1895, 1893, 1898, 1893, 1898, 1893, 1897, 1897, 1896, 1896, 1894, 1896, 1891, 1895, 1895, 1897, 1891, 1887, 1891, 1897, 1893, 1898, 1897, 1897, 1895, 1897, 1894, 1894, 1895, 1891, 1899, 1894, 1890, 1901, 1894, 1895, 1893, 1897, 1897, 1894, 1897, 1892, 1890, 1895, 1897, 1895, 1895, 1900, 1894, 1893, 1894, 1901, 1898, 1895, 1894, 1895, 1893, 1890, 1900, 1891, 1892, 1896, 1892, 1896, 1891, 1895, 1902, 1891, 1895, 1894, 1894, 1894, 1898, 1896, 1900, 1888, 1898, 1895, 1897, 1894, 1897, 1900, 1890, 1895, 1898, 1894, 1898, 1901, 1899, 1896, 1892, 1894, 1892, 1900, 1897, 1894, 1891, 1895, 1890, 1898, 1901, 1893, 1893, 1896, 1893, 1895, 1899, 1892, 1892, 1896, 1893, 1898, 1890, 1897, 1896, 1895, 1895, 1896, 1889, 1893, 1895, 1901, 1894, 1899, 1894, 1893, 1900, 1895, 1894, 1891, 1897, 1896, 1892, 1893, 1895, 1897, 1901, 1900, 1899, 1893, 1899, 1894, 1902, 1902, 1888, 1899, 1895, 1899, 1890, 1897, 1897, 1897, 1894, 1894, 1898, 1889, 1894, 1893, 1898, 1899, 1892, 1897, 1897, 1889, 1894, 1900, 1901, 1893, 1898, 1900, 1894, 1901, 1897, 1891, 1902, 1895, 1894, 1900, 1895, 1900],
      "WindowCenter": [897.0, 897.0, 897.0, 897.0, 897.0, 897.0, 897.0, 897.0, 897.0, 897.0, 897.0, 897.0, 897.0, 897.0, 897.0, 897.0, 897.0, 897.0, 897.0, 897.0, 897.0, 897.0, 897.0, 897.0, 897.0, 897.0, 897.0, 897.0, 897.0, 897.0, 897.0, 897.0, 897.0, 897.0, 897.0, 897.0, 897.0, 897.0, 897.0, 897.0, 897.0, 897.0, 897.0, 897.0, 897.0, 897.0, 897.0, 897.0, 897.0, 897.0, 897.0, 897.0, 897.0, 897.0, 897.0, 897.0, 897.0, 897.0, 897.0, 897.0, 897.0, 897.0, 897.0, 897.0, 897.0, 897.0, 897.0, 897.0, 897.0, 897.0, 897.0, 897.0, 897.0, 897.0, 897.0, 897.0, 897.0, 897.0, 897.0, 897.0, 897.0, 897.0, 897.0, 897.0, 897.0, 897.0, 897.0, 897.0, 897.0, 897.0, 897.0, 897.0, 897.0, 897.0, 897.0, 897.0, 897.0, 897.0, 897.0, 897.0, 897.0, 897.0, 897.0, 897.0, 897.0, 897.0, 897.0, 897.0, 897.0, 897.0, 897.0, 897.0, 897.0, 897.0, 897.0, 897.0, 897.0, 897.0, 897.0, 897.0, 897.0, 897.0, 897.0, 897.0, 897.0, 897.0, 897.0, 897.0, 897.0, 897.0, 897.0, 897.0, 897.0, 897.0, 897.0, 897.0, 897.0, 897.0, 897.0, 897.0, 897.0, 897.0, 897.0, 897.0, 897.0, 897.0, 897.0, 897.0, 897.0, 897.0, 897.0, 897.0, 897.0, 897.0, 897.0, 897.0, 897.0, 897.0, 897.0, 897.0, 897.0, 897.0, 897.0, 897.0, 897.0, 897.0, 897.0, 897.0, 897.0, 897.0, 897.0, 897.0, 897.0, 897.0, 897.0, 897.0, 897.0, 897.0, 897.0, 897.0, 897.0, 897.0, 897.0, 897.0, 897.0, 897.0, 898.0, 897.0, 897.0, 897.0, 897.0, 897.0, 897.0, 897.0, 897.0, 897.0, 897.0, 897.0, 897.0, 897.0],
      "WindowWidth": [2011.0, 2011.0, 2011.0, 2011.0, 2011.0, 2011.0, 2011.0, 2011.0, 2011.0, 2011.0, 2012.0, 2011.0, 2011.0, 2011.0, 2011.0, 2011.0, 2011.0, 2011.0, 2011.0, 2011.0, 2011.0, 2011.0, 2011.0, 2011.0, 2011.0, 2011.0, 2011.0, 2011.0, 2011.0, 2011.0, 2011.0, 2011.0, 2011.0, 2011.0, 2011.0, 2012.0, 2012.0, 2011.0, 2011.0, 2011.0, 2011.0, 2012.0, 2012.0, 2011.0, 2012.0, 2012.0, 2012.0, 2012.0, 2012.0, 2011.0, 2011.0, 2011.0, 2011.0, 2011.0, 2011.0, 2012.0, 2011.0, 2012.0, 2011.0, 2012.0, 2012.0, 2011.0, 2012.0, 2012.0, 2011.0, 2011.0, 2012.0, 2012.0, 2012.0, 2012.0, 2012.0, 2012.0, 2012.0, 2012.0, 2012.0, 2012.0, 2012.0, 2012.0, 2012.0, 2012.0, 2012.0, 2012.0, 2012.0, 2011.0, 2011.0, 2012.0, 2012.0, 2012.0, 2011.0, 2012.0, 2012.0, 2011.0, 2012.0, 2012.0, 2012.0, 2012.0, 2012.0, 2012.0, 2012.0, 2012.0, 2012.0, 2012.0, 2012.0, 2012.0, 2012.0, 2012.0, 2012.0, 2012.0, 2012.0, 2012.0, 2012.0, 2012.0, 2012.0, 2012.0, 2012.0, 2012.0, 2012.0, 2012.0, 2012.0, 2012.0, 2012.0, 2011.0, 2012.0, 2012.0, 2012.0, 2012.0, 2012.0, 2012.0, 2012.0, 2012.0, 2012.0, 2012.0, 2012.0, 2012.0, 2012.0, 2012.0, 2012.0, 2012.0, 2012.0, 2012.0, 2012.0, 2012.0, 2012.0, 2012.0, 2012.0, 2012.0, 2012.0, 2012.0, 2012.0, 2012.0, 2011.0, 2012.0, 2011.0, 2012.0, 2012.0, 2012.0, 2012.0, 2012.0, 2012.0, 2012.0, 2012.0, 2012.0, 2012.0, 2012.0, 2012.0, 2012.0, 2012.0, 2012.0, 2012.0, 2012.0, 2012.0, 2012.0, 2012.0, 2012.0, 2012.0, 2012.0, 2012.0, 2012.0, 2012.0, 2012.0, 2012.0, 2012.0, 2012.0, 2012.0, 2012.0, 2012.0, 2012.0, 2012.0, 2012.0, 2012.0, 2012.0, 2012.0, 2012.0, 2012.0, 2011.0, 2012.0, 2011.0, 2012.0, 2012.0, 2012.0]
    },
    "slices": {}
  }
}