{
  "AcquisitionMatrixPE": 80,
  "AcquisitionNumber": 1,
  "AcquisitionTime": "09:30:25.510000",
  "BandwidthPerPixelPhaseEncode": 25,
  "BaseResolution": 80,
  "BodyPartExamined": "BRAIN",
  "CoilCombinationMethod": "Sum of Squares",
  "ConsistencyInfo": "N4_VE11C_LATEST_20160120",
  "ConversionSoftware": "dcm2niix",
  "ConversionSoftwareVersion": "v1.0.20220720",
  "DerivedVendorReportedEchoSpacing": 0.0005,
  "DeviceSerialNumber": "66112",
  "DwellTime": 2.7e-06,
  "EchoTime": 0.03,
  "EchoTrainLength": 80,
  "EffectiveEchoSpacing": 0.0005,
  "FlipAngle": 10,
  "HeudiconvVersion": "0.13.1",
  "ImageComments": "Reference volume for motion correction.",
  "ImageOrientationPatientDICOM": [0.999958, 0.00630484, 0.00668468, -0.00802834, 0.953343, 0.301784],
  "ImageOrientationText": "Tra>Cor(17.6)>Sag(0.3)",
  "ImageType": [
    "ORIGINAL",
    "PRIMARY",
    "M",
    "ND",
    "NORM",
    "MOCO",
    "MOSAIC"
],
  "ImagingFrequency": 123.252,
  "InPlanePhaseEncodingDirectionDICOM": "COL",
  "InstitutionAddress": "Maynard 3,Hanover,NH,US,03755",
  "InstitutionName": "Dartmouth College - PBS",
  "InstitutionalDepartmentName": "Department",
  "MRAcquisitionType": "2D",
  "MagneticFieldStrength": 3,
  "Manufacturer": "Siemens",
  "ManufacturersModelName": "Prisma",
  "MatrixCoilMode": "SENSE",
  "Modality": "MR",
  "NonlinearGradientCorrection": false,
  "PartialFourier": 1,
  "PatientPosition": "HFS",
  "PercentPhaseFOV": 100,
  "PercentSampling": 100,
  "PhaseEncodingDirection": "j-",
  "PhaseEncodingSteps": 80,
  "PhaseResolution": 1,
  "PixelBandwidth": 2315,
  "ProcedureStepDescription": "dbic^QA",
  "ProtocolName": "func-bold_acq-32ch-10flip_MoCo",
  "PulseSequenceDetails": "%SiemensSeq%\\ep2d_bold",
  "ReceiveCoilActiveElements": "HEA;HEP",
  "ReceiveCoilName": "Head_32",
  "ReconMatrixPE": 80,
  "RepetitionTime": 2,
  "SAR": 0.0117131,
  "ScanOptions": "FS",
  "ScanningSequence": "EP",
  "SequenceName": "*epfid2d1_80",
  "SequenceVariant": "SK",
  "SeriesDescription": "MoCoSeries",
  "SeriesNumber": 11,
  "ShimSetting": [4146, -7686, -7512, 260, -55, -39, -68, 81],
  "SliceThickness": 3.5,
  "SliceTiming": [0.99, 0, 1.055, 0.065, 1.12, 0.13, 1.1875, 0.1975, 1.2525, 0.2625, 1.32, 0.33, 1.385, 0.395, 1.45, 0.46, 1.5175, 0.5275, 1.5825, 0.5925, 1.65, 0.66, 1.715, 0.725, 1.78, 0.79, 1.8475, 0.8575, 1.9125, 0.9225],
  "SoftwareVersions": "syngo MR E11",
  "SpacingBetweenSlices": 3.99,
  "StationName": "AWP66112",
  "TotalReadoutTime": 0.0395,
  "TxRefAmp": 234.558,
  "dcmmeta_affine": [
    [-2.999873399734497, -0.024085013195872307, 0.017835691571235657, 119.1383285522461],
    [-0.018914513289928436, 2.860028028488159, 1.2042800188064575, -118.09537506103516],
    [0.020054053515195847, -0.9053508639335632, 3.8038785457611084, -17.186153411865234],
    [0.0, 0.0, 0.0, 1.0]
],
  "dcmmeta_reorient_transform": [
    [0.0, -1.0, 0.0, 79.0],
    [1.0, 0.0, 0.0, 0.0],
    [0.0, 0.0, 1.0, 0.0],
    [0.0, 0.0, 0.0, 1.0]
],
  "dcmmeta_shape": [80, 80, 30, 200],
  "dcmmeta_slice_dim": 2,
  "dcmmeta_version": 0.6,
  "global": {
    "const": {
      "AccessionNumber": "qa",
      "AcquisitionMatrix": [80, 0, 0, 80],
      "AngioFlag": "N",
      "BitsAllocated": 16,
      "BitsStored": 12,
      "BodyPartExamined": "BRAIN",
      "Columns": 480,
      "EchoNumbers": 1,
      "EchoTime": 30.0,
      "EchoTrainLength": 80,
      "FlipAngle": 10.0,
      "HighBit": 11,
      "ImageOrientationPatient": [0.99995778111726, 0.0063048376439, 0.0066846843849, -0.0080283378119, 0.95334263919039, 0.30178362794143],
      "ImagePositionPatient": [-712.39328143047, -683.63531601112, -273.78986141915],
      "ImageType": [
        "ORIGINAL",
        "PRIMARY",
        "M",
        "ND",
        "NORM",
        "MOCO",
        "MOSAIC"
],
      "ImagedNucleus": "1H",
      "ImagingFrequency": 123.25243,
      "InPlanePhaseEncodingDirection": "COL",
      "MRAcquisitionType": "2D",
      "MagneticFieldStrength": 3.0,
      "Manufacturer": "SIEMENS",
      "ManufacturerModelName": "Prisma",
      "Modality": "MR",
      "NumberOfAverages": 1.0,
      "NumberOfPhaseEncodingSteps": 80,
      "PercentPhaseFieldOfView": 100.0,
      "PercentSampling": 100.0,
      "PerformedProcedureStepStartTime": "090519.417000",
      "PhotometricInterpretation": "MONOCHROME2",
      "PixelBandwidth": 2315.0,
      "PixelRepresentation": 0,
      "PixelSpacing": [3.0, 3.0],
      "ProtocolName": "func-bold_acq-32ch-10flip",
      "RepetitionTime": 2000.0,
      "Rows": 480,
      "SAR": 0.01171308771257,
      "SamplesPerPixel": 1,
      "ScanOptions": "FS",
      "ScanningSequence": "EP",
      "SequenceName": "*epfid2d1_80",
      "SequenceVariant": "SK",
      "SeriesDescription": "MoCoSeries",
      "SeriesNumber": 11,
      "SeriesTime": "093123.672000",
      "SliceLocation": -51.495995841199,
      "SliceThickness": 3.5,
      "SmallestImagePixelValue": 0,
      "SoftwareVersions": "syngo MR E11",
      "SpacingBetweenSlices": 3.9900000287751,
      "SpecificCharacterSet": "ISO_IR 100",
      "StudyID": "8",
      "StudyTime": "090519.315000",
      "TransmitCoilName": "Body",
      "VariableFlipAngleFlag": "N",
      "WindowCenterWidthExplanation": "Algo1",
      "dBdt": 0.0},
    "slices": {}
  },
  "time": {
    "samples": {
      "AcquisitionNumber": [1, 2, 3, 4, 5, 6, 7, 8, 9, 10, 11, 12, 13, 14, 15, 16, 17, 18, 19, 20, 21, 22, 23, 24, 25, 26, 27, 28, 29, 30, 31, 32, 33, 34, 35, 36, 37, 38, 39, 40, 41, 42, 43, 44, 45, 46, 47, 48, 49, 50, 51, 52, 53, 54, 55, 56, 57, 58, 59, 60, 61, 62, 63, 64, 65, 66, 67, 68, 69, 70, 71, 72, 73, 74, 75, 76, 77, 78, 79, 80, 81, 82, 83, 84, 85, 86, 87, 88, 89, 90, 91, 92, 93, 94, 95, 96, 97, 98, 99, 100, 101, 102, 103, 104, 105, 106, 107, 108, 109, 110, 111, 112, 113, 114, 115, 116, 117, 118, 119, 120, 121, 122, 123, 124, 125, 126, 127, 128, 129, 130, 131, 132, 133, 134, 135, 136, 137, 138, 139, 140, 141, 142, 143, 144, 145, 146, 147, 148, 149, 150, 151, 152, 153, 154, 155, 156, 157, 158, 159, 160, 161, 162, 163, 164, 165, 166, 167, 168, 169, 170, 171, 172, 173, 174, 175, 176, 177, 178, 179, 180, 181, 182, 183, 184, 185, 186, 187, 188, 189, 190, 191, 192, 193, 194, 195, 196, 197, 198, 199, 200],
      "AcquisitionTime": ["093025.510000", "093027.510000", "093029.510000", "093031.510000", "093033.510000", "093035.510000", "093037.510000", "093039.510000", "093041.510000", "093043.510000", "093045.510000", "093047.510000", "093049.510000", "093051.510000", "093053.510000", "093055.510000", "093057.510000", "093059.510000", "093101.510000", "093103.510000", "093105.510000", "093107.510000", "093109.510000", "093111.510000", "093113.510000", "093115.510000", "093117.510000", "093119.510000", "093121.510000", "093123.510000", "093125.510000", "093127.510000", "093129.510000", "093131.510000", "093133.510000", "093135.510000", "093137.510000", "093139.510000", "093141.510000", "093143.510000", "093145.510000", "093147.510000", "093149.510000", "093151.510000", "093153.510000", "093155.510000", "093157.510000", "093159.510000", "093201.510000", "093203.510000", "093205.510000", "093207.510000", "093209.510000", "093211.510000", "093213.510000", "093215.510000", "093217.510000", "093219.510000", "093221.510000", "093223.510000", "093225.510000", "093227.510000", "093229.510000", "093231.510000", "093233.510000", "093235.510000", "093237.510000", "093239.510000", "093241.510000", "093243.510000", "093245.510000", "093247.510000", "093249.510000", "093251.510000", "093253.510000", "093255.510000", "093257.510000", "093259.510000", "093301.510000", "093303.510000", "093305.510000", "093307.510000", "093309.510000", "093311.510000", "093313.510000", "093315.510000", "093317.510000", "093319.510000", "093321.510000", "093323.510000", "093325.510000", "093327.510000", "093329.510000", "093331.510000", "093333.510000", "093335.510000", "093337.510000", "093339.510000", "093341.510000", "093343.510000", "093345.510000", "093347.510000", "093349.510000", "093351.510000", "093353.510000", "093355.510000", "093357.510000", "093359.510000", "093401.510000", "093403.510000", "093405.510000", "093407.510000", "093409.510000", "093411.510000", "093413.510000", "093415.510000", "093417.510000", "093419.510000", "093421.510000", "093423.510000", "093425.510000", "093427.510000", "093429.510000", "093431.510000", "093433.510000", "093435.510000", "093437.510000", "093439.510000", "093441.510000", "093443.510000", "093445.510000", "093447.510000", "093449.510000", "093451.510000", "093453.510000", "093455.510000", "093457.510000", "093459.510000", "093501.510000", "093503.510000", "093505.510000", "093507.510000", "093509.510000", "093511.510000", "093513.510000", "093515.510000", "093517.510000", "093519.510000", "093521.510000", "093523.510000", "093525.510000", "093527.510000", "093529.510000", "093531.510000", "093533.510000", "093535.510000", "093537.510000", "093539.510000", "093541.510000", "093543.510000", "093545.510000", "093547.510000", "093549.510000", "093551.510000", "093553.510000", "093555.510000", "093557.510000", "093559.510000", "093601.510000", "093603.510000", "093605.510000", "093607.510000", "093609.510000", "093611.510000", "093613.510000", "093615.510000", "093617.510000", "093619.510000", "093621.510000", "093623.510000", "093625.510000", "093627.510000", "093629.510000", "093631.510000", "093633.510000", "093635.510000", "093637.510000", "093639.510000", "093641.510000", "093643.510000", "093645.510000", "093647.510000", "093649.510000", "093651.510000", "093653.510000", "093655.510000", "093657.510000", "093659.510000", "093701.510000", "093703.510000"],
      "ContentTime": ["093123.674000", "093123.677000", "093123.679000", "093123.688000", "093123.690000", "093123.693000", "093123.695000", "093123.698000", "093123.701000", "093123.703000", "093123.706000", "093123.708000", "093123.711000", "093123.714000", "093123.716000", "093123.719000", "093123.722000", "093123.724000", "093123.727000", "093123.730000", "093123.732000", "093123.735000", "093123.738000", "093123.740000", "093123.743000", "093123.745000", "093123.748000", "093123.751000", "093123.753000", "093203.642000", "093203.644000", "093203.647000", "093203.650000", "093203.652000", "093203.655000", "093203.658000", "093203.660000", "093203.663000", "093203.665000", "093203.668000", "093203.671000", "093203.673000", "093203.676000", "093203.678000", "093203.681000", "093203.684000", "093203.686000", "093203.689000", "093203.691000", "093243.642000", "093243.645000", "093243.648000", "093243.650000", "093243.653000", "093243.656000", "093243.658000", "093243.661000", "093243.663000", "093243.666000", "093243.669000", "093243.671000", "093243.674000", "093243.676000", "093243.694000", "093243.697000", "093243.700000", "093243.702000", "093243.705000", "093243.721000", "093323.633000", "093323.636000", "093323.639000", "093323.641000", "093323.644000", "093323.657000", "093323.660000", "093323.662000", "093323.665000", "093323.668000", "093323.670000", "093323.673000", "093323.675000", "093323.678000", "093323.681000", "093323.683000", "093323.686000", "093323.688000", "093323.691000", "093323.694000", "093403.643000", "093403.646000", "093403.648000", "093403.651000", "093403.654000", "093403.656000", "093403.659000", "093403.662000", "093403.664000", "093403.667000", "093403.669000", "093403.672000", "093403.681000", "093403.683000", "093403.686000", "093403.689000", "093403.691000", "093403.694000", "093403.696000", "093403.744000", "093423.607000", "093423.610000", "093423.613000", "093423.615000", "093423.618000", "093423.621000", "093423.623000", "093423.626000", "093423.629000", "093423.631000", "093503.641000", "093503.644000", "093503.646000", "093503.649000", "093503.652000", "093503.654000", "093503.657000", "093503.660000", "093503.662000", "093503.665000", "093503.668000", "093503.670000", "093503.673000", "093503.676000", "093503.678000", "093503.681000", "093503.684000", "093503.686000", "093503.689000", "093503.692000", "093543.640000", "093543.643000", "093543.645000", "093543.648000", "093543.651000", "093543.653000", "093543.656000", "093543.659000", "093543.661000", "093543.664000", "093543.667000", "093543.669000", "093543.672000", "093543.675000", "093543.678000", "093543.680000", "093543.683000", "093543.686000", "093543.688000", "093543.691000", "093623.637000", "093623.640000", "093623.647000", "093623.649000", "093623.652000", "093623.655000", "093623.657000", "093623.660000", "093623.663000", "093623.665000", "093623.668000", "093623.671000", "093623.674000", "093623.676000", "093623.679000", "093623.682000", "093623.684000", "093623.687000", "093623.690000", "093623.692000", "093703.635000", "093703.638000", "093703.641000", "093703.643000", "093703.646000", "093703.649000", "093703.651000", "093703.654000", "093703.657000", "093703.659000", "093703.662000", "093703.665000", "093703.667000", "093703.670000", "093703.673000", "093703.675000", "093703.678000", "093703.681000", "093703.683000", "093703.686000", "093705.233000"],
      "InstanceCreationTime": ["093123.674000", "093123.677000", "093123.679000", "093123.688000", "093123.690000", "093123.693000", "093123.695000", "093123.698000", "093123.701000", "093123.703000", "093123.706000", "093123.708000", "093123.711000", "093123.714000", "093123.716000", "093123.719000", "093123.722000", "093123.724000", "093123.727000", "093123.730000", "093123.732000", "093123.735000", "093123.738000", "093123.740000", "093123.743000", "093123.745000", "093123.748000", "093123.751000", "093123.753000", "093203.642000", "093203.644000", "093203.647000", "093203.650000", "093203.652000", "093203.655000", "093203.658000", "093203.660000", "093203.663000", "093203.665000", "093203.668000", "093203.671000", "093203.673000", "093203.676000", "093203.678000", "093203.681000", "093203.684000", "093203.686000", "093203.689000", "093203.691000", "093243.642000", "093243.645000", "093243.648000", "093243.650000", "093243.653000", "093243.656000", "093243.658000", "093243.661000", "093243.663000", "093243.666000", "093243.669000", "093243.671000", "093243.674000", "093243.676000", "093243.694000", "093243.697000", "093243.700000", "093243.702000", "093243.705000", "093243.721000", "093323.633000", "093323.636000", "093323.639000", "093323.641000", "093323.644000", "093323.657000", "093323.660000", "093323.662000", "093323.665000", "093323.668000", "093323.670000", "093323.673000", "093323.675000", "093323.678000", "093323.681000", "093323.683000", "093323.686000", "093323.688000", "093323.691000", "093323.694000", "093403.643000", "093403.646000", "093403.648000", "093403.651000", "093403.654000", "093403.656000", "093403.659000", "093403.662000", "093403.664000", "093403.667000", "093403.669000", "093403.672000", "093403.681000", "093403.683000", "093403.686000", "093403.689000", "093403.691000", "093403.694000", "093403.696000", "093403.744000", "093423.607000", "093423.610000", "093423.613000", "093423.615000", "093423.618000", "093423.621000", "093423.623000", "093423.626000", "093423.629000", "093423.631000", "093503.641000", "093503.644000", "093503.646000", "093503.649000", "093503.652000", "093503.654000", "093503.657000", "093503.660000", "093503.662000", "093503.665000", "093503.668000", "093503.670000", "093503.673000", "093503.676000", "093503.678000", "093503.681000", "093503.684000", "093503.686000", "093503.689000", "093503.692000", "093543.640000", "093543.643000", "093543.645000", "093543.648000", "093543.651000", "093543.653000", "093543.656000", "093543.659000", "093543.661000", "093543.664000", "093543.667000", "093543.669000", "093543.672000", "093543.675000", "093543.678000", "093543.680000", "093543.683000", "093543.686000", "093543.688000", "093543.691000", "093623.637000", "093623.640000", "093623.647000", "093623.649000", "093623.652000", "093623.655000", "093623.657000", "093623.660000", "093623.663000", "093623.665000", "093623.668000", "093623.671000", "093623.674000", "093623.676000", "093623.679000", "093623.682000", "093623.684000", "093623.687000", "093623.690000", "093623.692000", "093703.635000", "093703.638000", "093703.641000", "093703.643000", "093703.646000", "093703.649000", "093703.651000", "093703.654000", "093703.657000", "093703.659000", "093703.662000", "093703.665000", "093703.667000", "093703.670000", "093703.673000", "093703.675000", "093703.678000", "093703.681000", "093703.683000", "093703.686000", "093705.233000"],
      "InstanceNumber": [1, 2, 3, 4, 5, 6, 7, 8, 9, 10, 11, 12, 13, 14, 15, 16, 17, 18, 19, 20, 21, 22, 23, 24, 25, 26, 27, 28, 29, 30, 31, 32, 33, 34, 35, 36, 37, 38, 39, 40, 41, 42, 43, 44, 45, 46, 47, 48, 49, 50, 51, 52, 53, 54, 55, 56, 57, 58, 59, 60, 61, 62, 63, 64, 65, 66, 67, 68, 69, 70, 71, 72, 73, 74, 75, 76, 77, 78, 79, 80, 81, 82, 83, 84, 85, 86, 87, 88, 89, 90, 91, 92, 93, 94, 95, 96, 97, 98, 99, 100, 101, 102, 103, 104, 105, 106, 107, 108, 109, 110, 111, 112, 113, 114, 115, 116, 117, 118, 119, 120, 121, 122, 123, 124, 125, 126, 127, 128, 129, 130, 131, 132, 133, 134, 135, 136, 137, 138, 139, 140, 141, 142, 143, 144, 145, 146, 147, 148, 149, 150, 151, 152, 153, 154, 155, 156, 157, 158, 159, 160, 161, 162, 163, 164, 165, 166, 167, 168, 169, 170, 171, 172, 173, 174, 175, 176, 177, 178, 179, 180, 181, 182, 183, 184, 185, 186, 187, 188, 189, 190, 191, 192, 193, 194, 195, 196, 197, 198, 199, 200],
      "LargestImagePixelValue": [322, 322, 322, 322, 323, 322, 323, 323, 323, 322, 322, 324, 323, 323, 321, 323, 321, 323, 322, 323, 324, 324, 323, 323, 322, 322, 323, 322, 322, 322, 322, 322, 323, 322, 322, 322, 324, 322, 323, 323, 322, 323, 322, 323, 322, 322, 322, 323, 322, 324, 322, 323, 322, 323, 323, 321, 322, 322, 323, 324, 323, 322, 323, 321, 322, 324, 322, 322, 323, 322, 323, 322, 324, 324, 324, 322, 323, 324, 322, 324, 322, 323, 321, 322, 323, 324, 323, 323, 324, 322, 323, 324, 323, 323, 325, 323, 322, 320, 322, 323, 323, 323, 323, 322, 322, 322, 323, 322, 322, 324, 323, 321, 324, 322, 324, 322, 322, 322, 322, 323, 323, 323, 324, 322, 323, 323, 322, 324, 322, 325, 323, 321, 323, 321, 322, 322, 322, 322, 322, 323, 321, 322, 323, 322, 323, 323, 323, 323, 323, 323, 324, 323, 323, 322, 323, 323, 322, 322, 323, 322, 322, 323, 322, 322, 323, 322, 322, 324, 323, 323, 323, 323, 324, 322, 323, 323, 324, 322, 324, 322, 322, 325, 325, 324, 322, 322, 322, 321, 325, 322, 324, 322, 325, 324, 323, 323, 323, 322, 322, 322],
      "WindowCenter": [266.0, 265.0, 265.0, 265.0, 265.0, 265.0, 265.0, 266.0, 265.0, 265.0, 265.0, 265.0, 265.0, 265.0, 265.0, 265.0, 265.0, 265.0, 265.0, 265.0, 265.0, 265.0, 265.0, 265.0, 265.0, 266.0, 265.0, 265.0, 265.0, 265.0, 265.0, 265.0, 265.0, 265.0, 266.0, 265.0, 265.0, 265.0, 266.0, 265.0, 266.0, 265.0, 265.0, 265.0, 265.0, 265.0, 265.0, 265.0, 265.0, 265.0, 266.0, 265.0, 265.0, 265.0, 265.0, 266.0, 266.0, 265.0, 265.0, 266.0, 266.0, 265.0, 265.0, 265.0, 265.0, 265.0, 265.0, 265.0, 265.0, 266.0, 265.0, 265.0, 265.0, 265.0, 265.0, 265.0, 265.0, 265.0, 265.0, 265.0, 265.0, 265.0, 265.0, 265.0, 265.0, 265.0, 265.0, 265.0, 265.0, 265.0, 265.0, 265.0, 265.0, 265.0, 265.0, 266.0, 265.0, 265.0, 265.0, 265.0, 265.0, 265.0, 265.0, 265.0, 265.0, 265.0, 265.0, 265.0, 265.0, 265.0, 265.0, 265.0, 265.0, 265.0, 265.0, 265.0, 265.0, 265.0, 265.0, 265.0, 265.0, 265.0, 265.0, 265.0, 265.0, 265.0, 265.0, 265.0, 265.0, 265.0, 265.0, 265.0, 265.0, 265.0, 265.0, 265.0, 265.0, 265.0, 265.0, 265.0, 266.0, 265.0, 265.0, 265.0, 265.0, 265.0, 265.0, 265.0, 265.0, 265.0, 265.0, 265.0, 265.0, 265.0, 265.0, 265.0, 265.0, 265.0, 265.0, 265.0, 265.0, 265.0, 265.0, 265.0, 265.0, 265.0, 265.0, 265.0, 265.0, 265.0, 265.0, 265.0, 265.0, 265.0, 265.0, 265.0, 265.0, 265.0, 265.0, 265.0, 265.0, 265.0, 265.0, 265.0, 265.0, 265.0, 265.0, 265.0, 265.0, 265.0, 265.0, 265.0, 265.0, 265.0, 265.0, 265.0, 265.0, 265.0, 265.0, 265.0],
      "WindowWidth": [585.0, 585.0, 585.0, 584.0, 585.0, 585.0, 585.0, 585.0, 585.0, 584.0, 585.0, 585.0, 585.0, 584.0, 584.0, 585.0, 585.0, 584.0, 585.0, 584.0, 585.0, 584.0, 585.0, 584.0, 585.0, 585.0, 584.0, 585.0, 584.0, 585.0, 584.0, 584.0, 585.0, 584.0, 585.0, 585.0, 584.0, 585.0, 585.0, 584.0, 585.0, 584.0, 584.0, 584.0, 584.0, 585.0, 584.0, 584.0, 585.0, 585.0, 585.0, 584.0, 585.0, 584.0, 584.0, 585.0, 585.0, 584.0, 584.0, 585.0, 585.0, 584.0, 584.0, 584.0, 584.0, 584.0, 584.0, 584.0, 584.0, 585.0, 584.0, 584.0, 584.0, 584.0, 584.0, 584.0, 584.0, 584.0, 584.0, 585.0, 584.0, 584.0, 584.0, 584.0, 584.0, 584.0, 584.0, 584.0, 584.0, 585.0, 584.0, 584.0, 584.0, 584.0, 584.0, 585.0, 584.0, 584.0, 584.0, 584.0, 584.0, 584.0, 584.0, 585.0, 584.0, 584.0, 584.0, 584.0, 585.0, 584.0, 584.0, 584.0, 584.0, 584.0, 584.0, 584.0, 584.0, 584.0, 584.0, 584.0, 584.0, 584.0, 584.0, 584.0, 584.0, 584.0, 584.0, 584.0, 584.0, 584.0, 584.0, 584.0, 584.0, 584.0, 584.0, 584.0, 584.0, 584.0, 584.0, 584.0, 585.0, 584.0, 584.0, 584.0, 584.0, 584.0, 584.0, 584.0, 584.0, 584.0, 584.0, 584.0, 584.0, 584.0, 584.0, 584.0, 584.0, 584.0, 584.0, 584.0, 584.0, 584.0, 584.0, 584.0, 584.0, 584.0, 584.0, 584.0, 584.0, 584.0, 584.0, 584.0, 584.0, 584.0, 584.0, 584.0, 584.0, 584.0, 584.0, 584.0, 584.0, 584.0, 584.0, 584.0, 584.0, 584.0, 584.0, 584.0, 584.0, 584.0, 584.0, 584.0, 584.0, 584.0, 584.0, 584.0, 584.0, 584.0, 584.0, 584.0]
    },
    "slices": {}
  }
}