{
  "AcquisitionMatrixPE": 80,
  "AcquisitionNumber": 1,
  "AcquisitionTime": "09:55:24.452500",
  "BandwidthPerPixelPhaseEncode": 25,
  "BaseResolution": 80,
  "BodyPartExamined": "BRAIN",
  "CoilCombinationMethod": "Sum of Squares",
  "ConsistencyInfo": "N4_VE11E_LATEST_20181129",
  "ConversionSoftware": "dcm2niix",
  "ConversionSoftwareVersion": "v1.0.20220720",
  "DerivedVendorReportedEchoSpacing": 0.0005,
  "DeviceSerialNumber": "66112",
  "DwellTime": 2.7e-06,
  "EchoTime": 0.03,
  "EchoTrainLength": 80,
  "EffectiveEchoSpacing": 0.0005,
  "FlipAngle": 77,
  "HeudiconvVersion": "0.13.1",
  "ImageOrientationPatientDICOM": [0.99981, 0.0191433, 0.00370285, -0.0193719, 0.953682, 0.300192],
  "ImageOrientationText": "Tra>Cor(17.5)>Sag(-0.1)",
  "ImageType": [
    "ORIGINAL",
    "PRIMARY",
    "M",
    "ND",
    "NORM",
    "MOSAIC"
],
  "ImagingFrequency": 123.261,
  "InPlanePhaseEncodingDirectionDICOM": "COL",
  "InstitutionAddress": "Maynard 3,Hanover,NH,US,03755",
  "InstitutionName": "Dartmouth College - PBS",
  "InstitutionalDepartmentName": "Department",
  "MRAcquisitionType": "2D",
  "MagneticFieldStrength": 3,
  "Manufacturer": "Siemens",
  "ManufacturersModelName": "Prisma",
  "MatrixCoilMode": "SENSE",
  "Modality": "MR",
  "NonlinearGradientCorrection": false,
  "PartialFourier": 1,
  "PatientPosition": "HFS",
  "PercentPhaseFOV": 100,
  "PercentSampling": 100,
  "PhaseEncodingDirection": "j-",
  "PhaseEncodingSteps": 80,
  "PhaseResolution": 1,
  "PixelBandwidth": 2315,
  "ProcedureStepDescription": "dbic^QA",
  "ProtocolName": "func-bold_fa-77",
  "PulseSequenceDetails": "%SiemensSeq%\\ep2d_bold",
  "ReceiveCoilActiveElements": "HEA;HEP",
  "ReceiveCoilName": "Head_32",
  "ReconMatrixPE": 80,
  "RepetitionTime": 2,
  "SAR": 0.0368557,
  "ScanOptions": "FS",
  "ScanningSequence": "EP",
  "SequenceName": "*epfid2d1_80",
  "SequenceVariant": "SK",
  "SeriesDescription": "func-bold_fa-77",
  "SeriesNumber": 7,
  "ShimSetting": [4247, -7732, -7485, -12, -179, -93, -8, 81],
  "SliceThickness": 3.5,
  "SliceTiming": [0.99, 0, 1.0575, 0.0675, 1.1225, 0.1325, 1.1875, 0.1975, 1.255, 0.265, 1.32, 0.33, 1.3875, 0.3975, 1.4525, 0.4625, 1.5175, 0.5275, 1.585, 0.595, 1.65, 0.66, 1.7175, 0.7275, 1.7825, 0.7925, 1.8475, 0.8575, 1.915, 0.925],
  "SoftwareVersions": "syngo MR E11",
  "SpacingBetweenSlices": 3.99,
  "StationName": "AWP66112",
  "TotalReadoutTime": 0.0395,
  "TxRefAmp": 223.045,
  "dcmmeta_affine": [
    [-2.999429702758789, -0.05811573565006256, -0.008839212357997894, 123.74590301513672],
    [-0.05743002891540527, 2.8610458374023438, 1.1978262662887573, -126.87501525878906],
    [0.011108563281595707, -0.9005772471427917, 3.8059473037719727, -26.941484451293945],
    [0.0, 0.0, 0.0, 1.0]
],
  "dcmmeta_reorient_transform": [
    [0.0, -1.0, 0.0, 79.0],
    [1.0, 0.0, 0.0, 0.0],
    [0.0, 0.0, 1.0, 0.0],
    [0.0, 0.0, 0.0, 1.0]
],
  "dcmmeta_shape": [80, 80, 30, 200],
  "dcmmeta_slice_dim": 2,
  "dcmmeta_version": 0.6,
  "global": {
    "const": {
      "AccessionNumber": "qa",
      "AcquisitionMatrix": [80, 0, 0, 80],
      "AngioFlag": "N",
      "BitsAllocated": 16,
      "BitsStored": 12,
      "BodyPartExamined": "BRAIN",
      "Columns": 480,
      "EchoNumbers": 1,
      "EchoTime": 30.0,
      "EchoTrainLength": 80,
      "FlipAngle": 77.0,
      "HighBit": 11,
      "ImageOrientationPatient": [0.99980989257286, 0.01914334305393, 0.00370285432798, -0.0193719120484, 0.95368193690785, 0.30019242535296],
      "ImagePositionPatient": [-707.41754944214, -682.84277090842, -280.42425697941],
      "ImageType": [
        "ORIGINAL",
        "PRIMARY",
        "M",
        "ND",
        "NORM",
        "MOSAIC"
],
      "ImagedNucleus": "1H",
      "ImagingFrequency": 123.26126,
      "InPlanePhaseEncodingDirection": "COL",
      "MRAcquisitionType": "2D",
      "MagneticFieldStrength": 3.0,
      "Manufacturer": "SIEMENS",
      "ManufacturerModelName": "Prisma",
      "Modality": "MR",
      "NumberOfAverages": 1.0,
      "NumberOfPhaseEncodingSteps": 80,
      "PercentPhaseFieldOfView": 100.0,
      "PercentSampling": 100.0,
      "PerformedProcedureStepStartTime": "093739.062000",
      "PhotometricInterpretation": "MONOCHROME2",
      "PixelBandwidth": 2315.0,
      "PixelRepresentation": 0,
      "PixelSpacing": [3.0, 3.0],
      "ProtocolName": "func-bold_fa-77",
      "RepetitionTime": 2000.0,
      "Rows": 480,
      "SAR": 0.03685566724275,
      "SamplesPerPixel": 1,
      "ScanOptions": "FS",
      "ScanningSequence": "EP",
      "SequenceName": "*epfid2d1_80",
      "SequenceVariant": "SK",
      "SeriesDescription": "func-bold_fa-77",
      "SeriesNumber": 7,
      "SeriesTime": "095621.776000",
      "SliceLocation": -64.06163203782,
      "SliceThickness": 3.5,
      "SmallestImagePixelValue": 0,
      "SoftwareVersions": "syngo MR E11",
      "SpacingBetweenSlices": 3.9900000620357,
      "SpecificCharacterSet": "ISO_IR 100",
      "StudyID": "38",
      "StudyTime": "093739.011000",
      "TransmitCoilName": "Body",
      "VariableFlipAngleFlag": "N",
      "WindowCenterWidthExplanation": "Algo1"
    },
    "slices": {}
  },
  "time": {
    "samples": {
      "AcquisitionNumber": [1, 2, 3, 4, 5, 6, 7, 8, 9, 10, 11, 12, 13, 14, 15, 16, 17, 18, 19, 20, 21, 22, 23, 24, 25, 26, 27, 28, 29, 30, 31, 32, 33, 34, 35, 36, 37, 38, 39, 40, 41, 42, 43, 44, 45, 46, 47, 48, 49, 50, 51, 52, 53, 54, 55, 56, 57, 58, 59, 60, 61, 62, 63, 64, 65, 66, 67, 68, 69, 70, 71, 72, 73, 74, 75, 76, 77, 78, 79, 80, 81, 82, 83, 84, 85, 86, 87, 88, 89, 90, 91, 92, 93, 94, 95, 96, 97, 98, 99, 100, 101, 102, 103, 104, 105, 106, 107, 108, 109, 110, 111, 112, 113, 114, 115, 116, 117, 118, 119, 120, 121, 122, 123, 124, 125, 126, 127, 128, 129, 130, 131, 132, 133, 134, 135, 136, 137, 138, 139, 140, 141, 142, 143, 144, 145, 146, 147, 148, 149, 150, 151, 152, 153, 154, 155, 156, 157, 158, 159, 160, 161, 162, 163, 164, 165, 166, 167, 168, 169, 170, 171, 172, 173, 174, 175, 176, 177, 178, 179, 180, 181, 182, 183, 184, 185, 186, 187, 188, 189, 190, 191, 192, 193, 194, 195, 196, 197, 198, 199, 200],
      "AcquisitionTime": ["095524.452500", "095526.452500", "095528.452500", "095530.452500", "095532.452500", "095534.452500", "095536.452500", "095538.452500", "095540.452500", "095542.452500", "095544.452500", "095546.452500", "095548.452500", "095550.452500", "095552.452500", "095554.452500", "095556.452500", "095558.452500", "095600.452500", "095602.452500", "095604.452500", "095606.452500", "095608.452500", "095610.452500", "095612.452500", "095614.452500", "095616.452500", "095618.452500", "095620.452500", "095622.452500", "095624.452500", "095626.452500", "095628.452500", "095630.452500", "095632.452500", "095634.452500", "095636.452500", "095638.452500", "095640.452500", "095642.452500", "095644.452500", "095646.452500", "095648.452500", "095650.452500", "095652.452500", "095654.452500", "095656.452500", "095658.452500", "095700.452500", "095702.452500", "095704.452500", "095706.452500", "095708.452500", "095710.452500", "095712.452500", "095714.452500", "095716.452500", "095718.452500", "095720.452500", "095722.452500", "095724.452500", "095726.452500", "095728.452500", "095730.452500", "095732.452500", "095734.452500", "095736.452500", "095738.452500", "095740.452500", "095742.452500", "095744.452500", "095746.452500", "095748.452500", "095750.452500", "095752.452500", "095754.452500", "095756.452500", "095758.452500", "095800.452500", "095802.452500", "095804.452500", "095806.452500", "095808.452500", "095810.452500", "095812.452500", "095814.452500", "095816.452500", "095818.452500", "095820.452500", "095822.452500", "095824.452500", "095826.452500", "095828.452500", "095830.452500", "095832.452500", "095834.452500", "095836.452500", "095838.452500", "095840.452500", "095842.452500", "095844.452500", "095846.452500", "095848.452500", "095850.452500", "095852.452500", "095854.452500", "095856.452500", "095858.452500", "095900.452500", "095902.452500", "095904.452500", "095906.452500", "095908.452500", "095910.452500", "095912.452500", "095914.452500", "095916.452500", "095918.452500", "095920.452500", "095922.452500", "095924.452500", "095926.452500", "095928.452500", "095930.452500", "095932.452500", "095934.452500", "095936.452500", "095938.452500", "095940.452500", "095942.452500", "095944.452500", "095946.452500", "095948.452500", "095950.452500", "095952.452500", "095954.452500", "095956.452500", "095958.452500", "100000.452500", "100002.452500", "100004.452500", "100006.452500", "100008.452500", "100010.452500", "100012.452500", "100014.452500", "100016.452500", "100018.452500", "100020.452500", "100022.452500", "100024.452500", "100026.452500", "100028.452500", "100030.452500", "100032.452500", "100034.452500", "100036.452500", "100038.452500", "100040.452500", "100042.452500", "100044.452500", "100046.452500", "100048.452500", "100050.452500", "100052.452500", "100054.452500", "100056.452500", "100058.452500", "100100.452500", "100102.452500", "100104.452500", "100106.452500", "100108.452500", "100110.452500", "100112.452500", "100114.452500", "100116.452500", "100118.452500", "100120.452500", "100122.452500", "100124.452500", "100126.452500", "100128.452500", "100130.452500", "100132.452500", "100134.452500", "100136.452500", "100138.452500", "100140.452500", "100142.452500", "100144.452500", "100146.452500", "100148.452500", "100150.452500", "100152.452500", "100154.452500", "100156.452500", "100158.452500", "100200.452500", "100202.452500"],
      "ContentTime": ["095621.779000", "095621.782000", "095621.784000", "095621.787000", "095621.789000", "095621.791000", "095621.793000", "095621.796000", "095621.798000", "095621.800000", "095621.802000", "095621.805000", "095621.807000", "095621.809000", "095621.812000", "095621.814000", "095621.816000", "095621.818000", "095621.821000", "095621.823000", "095621.825000", "095621.828000", "095621.830000", "095621.832000", "095621.834000", "095621.837000", "095621.839000", "095621.841000", "095701.774000", "095701.777000", "095701.779000", "095701.781000", "095701.784000", "095701.786000", "095701.788000", "095701.790000", "095701.793000", "095701.795000", "095701.797000", "095701.800000", "095701.802000", "095701.804000", "095701.806000", "095701.809000", "095701.811000", "095701.813000", "095701.816000", "095701.818000", "095741.774000", "095741.777000", "095741.779000", "095741.781000", "095741.783000", "095741.786000", "095741.788000", "095741.790000", "095741.792000", "095741.795000", "095741.797000", "095741.799000", "095741.802000", "095741.804000", "095741.806000", "095741.808000", "095741.811000", "095741.813000", "095741.815000", "095741.818000", "095821.774000", "095821.777000", "095821.779000", "095821.782000", "095821.784000", "095821.786000", "095821.789000", "095821.791000", "095821.793000", "095821.796000", "095821.798000", "095821.800000", "095821.802000", "095821.805000", "095821.807000", "095821.809000", "095821.812000", "095821.840000", "095821.842000", "095821.844000", "095901.774000", "095901.777000", "095901.779000", "095901.781000", "095901.784000", "095901.786000", "095901.788000", "095901.790000", "095901.793000", "095901.795000", "095901.797000", "095901.800000", "095901.802000", "095901.804000", "095901.806000", "095901.809000", "095901.811000", "095901.813000", "095901.815000", "095901.818000", "095941.774000", "095941.777000", "095941.779000", "095941.781000", "095941.783000", "095941.786000", "095941.788000", "095941.790000", "095941.793000", "095941.795000", "095941.797000", "095941.799000", "095941.802000", "095941.804000", "095941.806000", "095941.809000", "095941.811000", "095941.813000", "095941.816000", "095941.818000", "100021.775000", "100021.778000", "100021.780000", "100021.782000", "100021.785000", "100021.787000", "100021.789000", "100021.792000", "100021.794000", "100021.796000", "100021.798000", "100021.801000", "100021.803000", "100021.805000", "100021.807000", "100021.810000", "100021.812000", "100021.814000", "100021.817000", "100021.819000", "100101.774000", "100101.777000", "100101.779000", "100101.781000", "100101.784000", "100101.786000", "100101.788000", "100101.791000", "100101.793000", "100101.795000", "100101.797000", "100101.800000", "100101.802000", "100101.804000", "100101.807000", "100101.809000", "100101.811000", "100101.813000", "100101.816000", "100101.818000", "100141.774000", "100141.777000", "100141.779000", "100141.781000", "100141.783000", "100141.786000", "100141.788000", "100141.790000", "100141.793000", "100141.795000", "100141.797000", "100141.799000", "100141.802000", "100141.804000", "100141.806000", "100141.809000", "100141.811000", "100141.813000", "100141.815000", "100141.818000", "100203.957000", "100203.960000", "100203.963000", "100203.965000", "100203.968000", "100203.970000", "100203.972000", "100203.975000", "100203.977000", "100203.979000", "100203.982000", "100203.984000"],
      "InstanceCreationTime": ["095621.779000", "095621.782000", "095621.784000", "095621.787000", "095621.789000", "095621.791000", "095621.793000", "095621.796000", "095621.798000", "095621.800000", "095621.802000", "095621.805000", "095621.807000", "095621.809000", "095621.812000", "095621.814000", "095621.816000", "095621.818000", "095621.821000", "095621.823000", "095621.825000", "095621.828000", "095621.830000", "095621.832000", "095621.834000", "095621.837000", "095621.839000", "095621.841000", "095701.774000", "095701.777000", "095701.779000", "095701.781000", "095701.784000", "095701.786000", "095701.788000", "095701.790000", "095701.793000", "095701.795000", "095701.797000", "095701.800000", "095701.802000", "095701.804000", "095701.806000", "095701.809000", "095701.811000", "095701.813000", "095701.816000", "095701.818000", "095741.774000", "095741.777000", "095741.779000", "095741.781000", "095741.783000", "095741.786000", "095741.788000", "095741.790000", "095741.792000", "095741.795000", "095741.797000", "095741.799000", "095741.802000", "095741.804000", "095741.806000", "095741.808000", "095741.811000", "095741.813000", "095741.815000", "095741.818000", "095821.774000", "095821.777000", "095821.779000", "095821.782000", "095821.784000", "095821.786000", "095821.789000", "095821.791000", "095821.793000", "095821.796000", "095821.798000", "095821.800000", "095821.802000", "095821.805000", "095821.807000", "095821.809000", "095821.812000", "095821.840000", "095821.842000", "095821.844000", "095901.774000", "095901.777000", "095901.779000", "095901.781000", "095901.784000", "095901.786000", "095901.788000", "095901.790000", "095901.793000", "095901.795000", "095901.797000", "095901.800000", "095901.802000", "095901.804000", "095901.806000", "095901.809000", "095901.811000", "095901.813000", "095901.815000", "095901.818000", "095941.774000", "095941.777000", "095941.779000", "095941.781000", "095941.783000", "095941.786000", "095941.788000", "095941.790000", "095941.793000", "095941.795000", "095941.797000", "095941.799000", "095941.802000", "095941.804000", "095941.806000", "095941.809000", "095941.811000", "095941.813000", "095941.816000", "095941.818000", "100021.775000", "100021.778000", "100021.780000", "100021.782000", "100021.785000", "100021.787000", "100021.789000", "100021.792000", "100021.794000", "100021.796000", "100021.798000", "100021.801000", "100021.803000", "100021.805000", "100021.807000", "100021.810000", "100021.812000", "100021.814000", "100021.817000", "100021.819000", "100101.774000", "100101.777000", "100101.779000", "100101.781000", "100101.784000", "100101.786000", "100101.788000", "100101.791000", "100101.793000", "100101.795000", "100101.797000", "100101.800000", "100101.802000", "100101.804000", "100101.807000", "100101.809000", "100101.811000", "100101.813000", "100101.816000", "100101.818000", "100141.774000", "100141.777000", "100141.779000", "100141.781000", "100141.783000", "100141.786000", "100141.788000", "100141.790000", "100141.793000", "100141.795000", "100141.797000", "100141.799000", "100141.802000", "100141.804000", "100141.806000", "100141.809000", "100141.811000", "100141.813000", "100141.815000", "100141.818000", "100203.957000", "100203.960000", "100203.963000", "100203.965000", "100203.968000", "100203.970000", "100203.972000", "100203.975000", "100203.977000", "100203.979000", "100203.982000", "100203.984000"],
      "InstanceNumber": [1, 2, 3, 4, 5, 6, 7, 8, 9, 10, 11, 12, 13, 14, 15, 16, 17, 18, 19, 20, 21, 22, 23, 24, 25, 26, 27, 28, 29, 30, 31, 32, 33, 34, 35, 36, 37, 38, 39, 40, 41, 42, 43, 44, 45, 46, 47, 48, 49, 50, 51, 52, 53, 54, 55, 56, 57, 58, 59, 60, 61, 62, 63, 64, 65, 66, 67, 68, 69, 70, 71, 72, 73, 74, 75, 76, 77, 78, 79, 80, 81, 82, 83, 84, 85, 86, 87, 88, 89, 90, 91, 92, 93, 94, 95, 96, 97, 98, 99, 100, 101, 102, 103, 104, 105, 106, 107, 108, 109, 110, 111, 112, 113, 114, 115, 116, 117, 118, 119, 120, 121, 122, 123, 124, 125, 126, 127, 128, 129, 130, 131, 132, 133, 134, 135, 136, 137, 138, 139, 140, 141, 142, 143, 144, 145, 146, 147, 148, 149, 150, 151, 152, 153, 154, 155, 156, 157, 158, 159, 160, 161, 162, 163, 164, 165, 166, 167, 168, 169, 170, 171, 172, 173, 174, 175, 176, 177, 178, 179, 180, 181, 182, 183, 184, 185, 186, 187, 188, 189, 190, 191, 192, 193, 194, 195, 196, 197, 198, 199, 200],
      "LargestImagePixelValue": [2252, 2254, 2252, 2252, 2252, 2252, 2253, 2253, 2252, 2252, 2252, 2253, 2252, 2253, 2255, 2252, 2252, 2254, 2253, 2253, 2254, 2253, 2253, 2252, 2253, 2254, 2253, 2253, 2251, 2252, 2253, 2252, 2251, 2253, 2252, 2253, 2255, 2254, 2254, 2251, 2254, 2252, 2254, 2251, 2254, 2253, 2252, 2252, 2252, 2252, 2254, 2253, 2253, 2254, 2254, 2255, 2253, 2254, 2252, 2252, 2254, 2252, 2254, 2253, 2250, 2252, 2252, 2253, 2252, 2252, 2252, 2249, 2252, 2251, 2250, 2252, 2250, 2249, 2252, 2253, 2251, 2249, 2249, 2252, 2250, 2251, 2251, 2250, 2251, 2251, 2252, 2252, 2253, 2250, 2252, 2253, 2251, 2251, 2252, 2253, 2252, 2253, 2251, 2251, 2249, 2252, 2252, 2252, 2251, 2253, 2251, 2252, 2254, 2252, 2253, 2251, 2252, 2254, 2253, 2254, 2251, 2252, 2250, 2251, 2251, 2253, 2252, 2251, 2252, 2249, 2251, 2251, 2252, 2253, 2254, 2252, 2251, 2253, 2254, 2251, 2253, 2251, 2251, 2252, 2252, 2252, 2252, 2252, 2252, 2252, 2252, 2251, 2252, 2254, 2252, 2250, 2253, 2249, 2252, 2252, 2252, 2253, 2251, 2251, 2251, 2250, 2251, 2250, 2251, 2252, 2251, 2251, 2252, 2251, 2252, 2252, 2251, 2252, 2248, 2252, 2251, 2251, 2251, 2251, 2251, 2252, 2252, 2252, 2253, 2251, 2251, 2252, 2251, 2251, 2250, 2249, 2250, 2249, 2250, 2247],
      "WindowCenter": [1015.0, 1015.0, 1015.0, 1015.0, 1014.0, 1015.0, 1014.0, 1015.0, 1015.0, 1014.0, 1015.0, 1015.0, 1014.0, 1014.0, 1014.0, 1015.0, 1015.0, 1015.0, 1015.0, 1015.0, 1015.0, 1014.0, 1015.0, 1015.0, 1015.0, 1015.0, 1014.0, 1015.0, 1015.0, 1015.0, 1015.0, 1015.0, 1015.0, 1015.0, 1015.0, 1014.0, 1014.0, 1015.0, 1015.0, 1015.0, 1014.0, 1014.0, 1014.0, 1014.0, 1014.0, 1014.0, 1014.0, 1013.0, 1014.0, 1014.0, 1014.0, 1014.0, 1014.0, 1014.0, 1014.0, 1014.0, 1014.0, 1013.0, 1014.0, 1014.0, 1014.0, 1013.0, 1013.0, 1014.0, 1014.0, 1014.0, 1014.0, 1013.0, 1013.0, 1014.0, 1014.0, 1014.0, 1014.0, 1014.0, 1014.0, 1014.0, 1014.0, 1014.0, 1014.0, 1014.0, 1014.0, 1014.0, 1014.0, 1014.0, 1014.0, 1014.0, 1014.0, 1014.0, 1014.0, 1013.0, 1014.0, 1013.0, 1014.0, 1013.0, 1014.0, 1014.0, 1013.0, 1014.0, 1014.0, 1014.0, 1014.0, 1014.0, 1014.0, 1013.0, 1015.0, 1014.0, 1014.0, 1013.0, 1013.0, 1014.0, 1014.0, 1013.0, 1014.0, 1014.0, 1014.0, 1014.0, 1014.0, 1014.0, 1014.0, 1013.0, 1014.0, 1014.0, 1013.0, 1014.0, 1013.0, 1014.0, 1013.0, 1013.0, 1014.0, 1014.0, 1013.0, 1013.0, 1013.0, 1013.0, 1013.0, 1013.0, 1013.0, 1013.0, 1013.0, 1013.0, 1013.0, 1013.0, 1012.0, 1012.0, 1013.0, 1013.0, 1013.0, 1013.0, 1013.0, 1012.0, 1013.0, 1013.0, 1013.0, 1013.0, 1013.0, 1013.0, 1013.0, 1013.0, 1013.0, 1013.0, 1012.0, 1012.0, 1013.0, 1013.0, 1013.0, 1013.0, 1013.0, 1013.0, 1012.0, 1013.0, 1013.0, 1013.0, 1012.0, 1012.0, 1013.0, 1013.0, 1013.0, 1013.0, 1013.0, 1012.0, 1013.0, 1013.0, 1013.0, 1013.0, 1013.0, 1012.0, 1013.0, 1013.0, 1012.0, 1013.0, 1013.0, 1013.0, 1013.0, 1012.0, 1013.0, 1013.0, 1013.0, 1013.0, 1012.0, 1013.0],
      "WindowWidth": [2274.0, 2274.0, 2274.0, 2274.0, 2273.0, 2274.0, 2273.0, 2274.0, 2274.0, 2273.0, 2274.0, 2274.0, 2273.0, 2273.0, 2273.0, 2274.0, 2274.0, 2274.0, 2274.0, 2273.0, 2274.0, 2273.0, 2273.0, 2273.0, 2273.0, 2274.0, 2273.0, 2273.0, 2273.0, 2274.0, 2273.0, 2273.0, 2273.0, 2274.0, 2273.0, 2272.0, 2273.0, 2273.0, 2273.0, 2273.0, 2273.0, 2273.0, 2273.0, 2273.0, 2272.0, 2273.0, 2273.0, 2272.0, 2273.0, 2273.0, 2273.0, 2273.0, 2273.0, 2273.0, 2273.0, 2272.0, 2273.0, 2272.0, 2273.0, 2273.0, 2272.0, 2272.0, 2272.0, 2272.0, 2272.0, 2272.0, 2272.0, 2272.0, 2272.0, 2272.0, 2272.0, 2272.0, 2272.0, 2272.0, 2272.0, 2272.0, 2272.0, 2272.0, 2272.0, 2272.0, 2272.0, 2272.0, 2272.0, 2272.0, 2272.0, 2272.0, 2272.0, 2272.0, 2272.0, 2271.0, 2272.0, 2271.0, 2272.0, 2271.0, 2272.0, 2272.0, 2271.0, 2271.0, 2271.0, 2271.0, 2271.0, 2271.0, 2271.0, 2271.0, 2272.0, 2271.0, 2271.0, 2271.0, 2271.0, 2271.0, 2271.0, 2271.0, 2271.0, 2271.0, 2271.0, 2271.0, 2271.0, 2271.0, 2271.0, 2270.0, 2271.0, 2271.0, 2270.0, 2271.0, 2271.0, 2271.0, 2271.0, 2271.0, 2271.0, 2271.0, 2271.0, 2271.0, 2271.0, 2271.0, 2271.0, 2271.0, 2271.0, 2271.0, 2271.0, 2271.0, 2271.0, 2271.0, 2270.0, 2270.0, 2270.0, 2271.0, 2271.0, 2271.0, 2271.0, 2270.0, 2271.0, 2271.0, 2270.0, 2270.0, 2270.0, 2270.0, 2270.0, 2270.0, 2270.0, 2271.0, 2270.0, 2270.0, 2271.0, 2270.0, 2271.0, 2271.0, 2271.0, 2271.0, 2270.0, 2271.0, 2270.0, 2271.0, 2270.0, 2270.0, 2270.0, 2270.0, 2270.0, 2271.0, 2270.0, 2269.0, 2270.0, 2270.0, 2270.0, 2270.0, 2270.0, 2269.0, 2270.0, 2270.0, 2269.0, 2270.0, 2270.0, 2270.0, 2270.0, 2269.0, 2270.0, 2270.0, 2270.0, 2270.0, 2269.0, 2270.0]
    },
    "slices": {}
  }
}