{
  "AcquisitionMatrixPE": 80,
  "AcquisitionNumber": 1,
  "AcquisitionTime": "09:41:40.792500",
  "BandwidthPerPixelPhaseEncode": 48.077,
  "BaseResolution": 80,
  "BodyPartExamined": "BRAIN",
  "CoilCombinationMethod": "Sum of Squares",
  "ConsistencyInfo": "N4_VE11E_LATEST_20181129",
  "ConversionSoftware": "dcm2niix",
  "ConversionSoftwareVersion": "v1.0.20220720",
  "DerivedVendorReportedEchoSpacing": 0.000519999,
  "DeviceSerialNumber": "66112",
  "DwellTime": 2.7e-06,
  "EchoTime": 0.035,
  "EchoTrainLength": 39,
  "EffectiveEchoSpacing": 0.00026,
  "FlipAngle": 90,
  "HeudiconvVersion": "0.13.1",
  "ImageOrientationPatientDICOM": [0.99981, 0.0191433, 0.00370285, -0.0193719, 0.953682, 0.300192],
  "ImageOrientationText": "Tra>Cor(17.5)>Sag(-0.1)",
  "ImageType": [
    "ORIGINAL",
    "PRIMARY",
    "M",
    "ND",
    "NORM",
    "MOSAIC"
],
  "ImagingFrequency": 123.261,
  "InPlanePhaseEncodingDirectionDICOM": "COL",
  "InstitutionAddress": "Maynard 3,Hanover,NH,US,03755",
  "InstitutionName": "Dartmouth College - PBS",
  "InstitutionalDepartmentName": "Department",
  "MRAcquisitionType": "2D",
  "MagneticFieldStrength": 3,
  "Manufacturer": "Siemens",
  "ManufacturersModelName": "Prisma",
  "MatrixCoilMode": "GRAPPA",
  "Modality": "MR",
  "NonlinearGradientCorrection": false,
  "ParallelReductionFactorInPlane": 2,
  "PartialFourier": 1,
  "PatientPosition": "HFS",
  "PercentPhaseFOV": 100,
  "PercentSampling": 100,
  "PhaseEncodingDirection": "j-",
  "PhaseEncodingSteps": 79,
  "PhaseResolution": 1,
  "PixelBandwidth": 2315,
  "ProcedureStepDescription": "dbic^QA",
  "ProtocolName": "func-bold_task-rest_acq-p2",
  "PulseSequenceDetails": "%SiemensSeq%\\ep2d_bold",
  "ReceiveCoilActiveElements": "HEA;HEP",
  "ReceiveCoilName": "Head_32",
  "ReconMatrixPE": 80,
  "RefLinesPE": 24,
  "RepetitionTime": 2,
  "SAR": 0.0468991,
  "ScanOptions": "FS",
  "ScanningSequence": "EP",
  "SequenceName": "*epfid2d1_80",
  "SequenceVariant": "SK",
  "SeriesDescription": "func-bold_task-rest_acq-p2",
  "SeriesNumber": 5,
  "ShimSetting": [4247, -7732, -7486, -14, -181, -99, -10, 81],
  "SliceThickness": 3.5,
  "SliceTiming": [0.99, 0, 1.0575, 0.0675, 1.1225, 0.1325, 1.19, 0.2, 1.255, 0.265, 1.32, 0.33, 1.3875, 0.3975, 1.4525, 0.4625, 1.5175, 0.53, 1.585, 0.595, 1.65, 0.66, 1.7175, 0.7275, 1.7825, 0.7925, 1.8475, 0.86, 1.915, 0.925],
  "SoftwareVersions": "syngo MR E11",
  "SpacingBetweenSlices": 3.99,
  "StationName": "AWP66112",
  "TaskName": "rest",
  "TotalReadoutTime": 0.02054,
  "TxRefAmp": 223.045,
  "dcmmeta_affine": [
    [-2.999429702758789, -0.05811573565006256, -0.008839212357997894, 123.80414581298828],
    [-0.05743002891540527, 2.8610458374023438, 1.1978262662887573, -130.46861267089844],
    [0.011108563281595707, -0.9005772471427917, 3.8059473037719727, -29.84132194519043],
    [0.0, 0.0, 0.0, 1.0]
],
  "dcmmeta_reorient_transform": [
    [0.0, -1.0, 0.0, 79.0],
    [1.0, 0.0, 0.0, 0.0],
    [0.0, 0.0, 1.0, 0.0],
    [0.0, 0.0, 0.0, 1.0]
],
  "dcmmeta_shape": [80, 80, 30, 200],
  "dcmmeta_slice_dim": 2,
  "dcmmeta_version": 0.6,
  "global": {
    "const": {
      "AccessionNumber": "qa",
      "AcquisitionMatrix": [80, 0, 0, 80],
      "AngioFlag": "N",
      "BitsAllocated": 16,
      "BitsStored": 12,
      "BodyPartExamined": "BRAIN",
      "Columns": 480,
      "EchoNumbers": 1,
      "EchoTime": 35.0,
      "EchoTrainLength": 39,
      "FlipAngle": 90.0,
      "HighBit": 11,
      "ImageOrientationPatient": [0.99980989257286, 0.01914334305393, 0.00370285432798, -0.0193719120484, 0.95368193690785, 0.30019242535296],
      "ImagePositionPatient": [-707.47578735241, -679.24917349631, -283.3240944733],
      "ImageType": [
        "ORIGINAL",
        "PRIMARY",
        "M",
        "ND",
        "NORM",
        "MOSAIC"
],
      "ImagedNucleus": "1H",
      "ImagingFrequency": 123.261264,
      "InPlanePhaseEncodingDirection": "COL",
      "MRAcquisitionType": "2D",
      "MagneticFieldStrength": 3.0,
      "Manufacturer": "SIEMENS",
      "ManufacturerModelName": "Prisma",
      "Modality": "MR",
      "NumberOfAverages": 1.0,
      "NumberOfPhaseEncodingSteps": 79,
      "PercentPhaseFieldOfView": 100.0,
      "PercentSampling": 100.0,
      "PerformedProcedureStepStartTime": "093739.062000",
      "PhotometricInterpretation": "MONOCHROME2",
      "PixelBandwidth": 2315.0,
      "PixelRepresentation": 0,
      "PixelSpacing": [3.0, 3.0],
      "ProtocolName": "func-bold_task-rest_acq-p2",
      "RepetitionTime": 2000.0,
      "Rows": 480,
      "SAR": 0.04689911605936,
      "SamplesPerPixel": 1,
      "ScanOptions": "FS",
      "ScanningSequence": "EP",
      "SequenceName": "*epfid2d1_80",
      "SequenceVariant": "SK",
      "SeriesDescription": "func-bold_task-rest_acq-p2",
      "SeriesNumber": 5,
      "SeriesTime": "094221.864000",
      "SliceLocation": -67.906656745281,
      "SliceThickness": 3.5,
      "SmallestImagePixelValue": 0,
      "SoftwareVersions": "syngo MR E11",
      "SpacingBetweenSlices": 3.9900000817896,
      "SpecificCharacterSet": "ISO_IR 100",
      "StudyID": "38",
      "StudyTime": "093739.011000",
      "TransmitCoilName": "Body",
      "VariableFlipAngleFlag": "N",
      "WindowCenterWidthExplanation": "Algo1"
    },
    "slices": {}
  },
  "time": {
    "samples": {
      "AcquisitionNumber": [1, 2, 3, 4, 5, 6, 7, 8, 9, 10, 11, 12, 13, 14, 15, 16, 17, 18, 19, 20, 21, 22, 23, 24, 25, 26, 27, 28, 29, 30, 31, 32, 33, 34, 35, 36, 37, 38, 39, 40, 41, 42, 43, 44, 45, 46, 47, 48, 49, 50, 51, 52, 53, 54, 55, 56, 57, 58, 59, 60, 61, 62, 63, 64, 65, 66, 67, 68, 69, 70, 71, 72, 73, 74, 75, 76, 77, 78, 79, 80, 81, 82, 83, 84, 85, 86, 87, 88, 89, 90, 91, 92, 93, 94, 95, 96, 97, 98, 99, 100, 101, 102, 103, 104, 105, 106, 107, 108, 109, 110, 111, 112, 113, 114, 115, 116, 117, 118, 119, 120, 121, 122, 123, 124, 125, 126, 127, 128, 129, 130, 131, 132, 133, 134, 135, 136, 137, 138, 139, 140, 141, 142, 143, 144, 145, 146, 147, 148, 149, 150, 151, 152, 153, 154, 155, 156, 157, 158, 159, 160, 161, 162, 163, 164, 165, 166, 167, 168, 169, 170, 171, 172, 173, 174, 175, 176, 177, 178, 179, 180, 181, 182, 183, 184, 185, 186, 187, 188, 189, 190, 191, 192, 193, 194, 195, 196, 197, 198, 199, 200],
      "AcquisitionTime": ["094140.792500", "094142.792500", "094144.792500", "094146.792500", "094148.792500", "094150.792500", "094152.792500", "094154.792500", "094156.792500", "094158.792500", "094200.792500", "094202.792500", "094204.792500", "094206.792500", "094208.792500", "094210.792500", "094212.792500", "094214.792500", "094216.792500", "094218.792500", "094220.792500", "094222.792500", "094224.792500", "094226.792500", "094228.792500", "094230.792500", "094232.792500", "094234.792500", "094236.792500", "094238.792500", "094240.792500", "094242.792500", "094244.792500", "094246.792500", "094248.792500", "094250.792500", "094252.792500", "094254.792500", "094256.792500", "094258.792500", "094300.792500", "094302.792500", "094304.792500", "094306.792500", "094308.792500", "094310.792500", "094312.792500", "094314.792500", "094316.792500", "094318.792500", "094320.792500", "094322.792500", "094324.792500", "094326.792500", "094328.792500", "094330.792500", "094332.792500", "094334.792500", "094336.792500", "094338.792500", "094340.792500", "094342.792500", "094344.792500", "094346.792500", "094348.792500", "094350.792500", "094352.792500", "094354.792500", "094356.792500", "094358.792500", "094400.792500", "094402.792500", "094404.792500", "094406.792500", "094408.792500", "094410.792500", "094412.792500", "094414.792500", "094416.792500", "094418.792500", "094420.792500", "094422.792500", "094424.792500", "094426.792500", "094428.792500", "094430.792500", "094432.792500", "094434.792500", "094436.792500", "094438.792500", "094440.792500", "094442.792500", "094444.792500", "094446.792500", "094448.792500", "094450.792500", "094452.792500", "094454.792500", "094456.792500", "094458.792500", "094500.792500", "094502.792500", "094504.792500", "094506.792500", "094508.792500", "094510.792500", "094512.792500", "094514.792500", "094516.792500", "094518.792500", "094520.792500", "094522.792500", "094524.792500", "094526.792500", "094528.792500", "094530.792500", "094532.792500", "094534.792500", "094536.792500", "094538.792500", "094540.792500", "094542.792500", "094544.792500", "094546.792500", "094548.792500", "094550.792500", "094552.792500", "094554.792500", "094556.792500", "094558.792500", "094600.792500", "094602.792500", "094604.792500", "094606.792500", "094608.792500", "094610.792500", "094612.792500", "094614.792500", "094616.792500", "094618.792500", "094620.792500", "094622.792500", "094624.792500", "094626.792500", "094628.792500", "094630.792500", "094632.792500", "094634.792500", "094636.792500", "094638.792500", "094640.792500", "094642.792500", "094644.792500", "094646.792500", "094648.792500", "094650.792500", "094652.792500", "094654.792500", "094656.792500", "094658.792500", "094700.792500", "094702.792500", "094704.792500", "094706.792500", "094708.792500", "094710.792500", "094712.792500", "094714.792500", "094716.792500", "094718.792500", "094720.792500", "094722.792500", "094724.792500", "094726.792500", "094728.792500", "094730.792500", "094732.792500", "094734.792500", "094736.792500", "094738.792500", "094740.792500", "094742.792500", "094744.792500", "094746.792500", "094748.792500", "094750.792500", "094752.792500", "094754.792500", "094756.792500", "094758.792500", "094800.792500", "094802.792500", "094804.792500", "094806.792500", "094808.792500", "094810.792500", "094812.792500", "094814.792500", "094816.792500", "094818.792500"],
      "ContentTime": ["094221.867000", "094221.870000", "094221.872000", "094221.875000", "094221.885000", "094221.887000", "094221.889000", "094221.891000", "094221.894000", "094221.896000", "094221.898000", "094221.901000", "094221.909000", "094221.914000", "094221.916000", "094221.919000", "094221.921000", "094221.923000", "094221.925000", "094221.928000", "094301.862000", "094301.865000", "094301.867000", "094301.869000", "094301.872000", "094301.874000", "094301.876000", "094301.879000", "094301.881000", "094301.883000", "094301.886000", "094301.888000", "094301.890000", "094301.893000", "094301.895000", "094301.898000", "094301.900000", "094301.902000", "094301.905000", "094301.907000", "094341.862000", "094341.865000", "094341.879000", "094341.882000", "094341.884000", "094341.886000", "094341.889000", "094341.891000", "094341.894000", "094341.904000", "094341.906000", "094341.909000", "094341.911000", "094341.913000", "094341.916000", "094341.918000", "094341.921000", "094341.923000", "094341.925000", "094341.928000", "094421.862000", "094421.865000", "094421.867000", "094421.870000", "094421.872000", "094421.874000", "094421.877000", "094421.879000", "094421.881000", "094421.884000", "094421.886000", "094421.888000", "094421.891000", "094421.893000", "094421.895000", "094421.898000", "094421.900000", "094421.902000", "094421.905000", "094421.907000", "094501.862000", "094501.865000", "094501.867000", "094501.869000", "094501.872000", "094501.874000", "094501.877000", "094501.879000", "094501.881000", "094501.884000", "094501.886000", "094501.889000", "094501.891000", "094501.893000", "094501.896000", "094501.898000", "094501.900000", "094501.903000", "094501.905000", "094501.907000", "094541.862000", "094541.873000", "094541.876000", "094541.878000", "094541.881000", "094541.883000", "094541.886000", "094541.888000", "094541.890000", "094541.893000", "094541.895000", "094541.897000", "094541.900000", "094541.902000", "094541.904000", "094541.907000", "094541.909000", "094541.911000", "094541.914000", "094541.916000", "094621.863000", "094621.866000", "094621.868000", "094621.870000", "094621.873000", "094621.875000", "094621.877000", "094621.880000", "094621.882000", "094621.884000", "094621.887000", "094621.889000", "094621.891000", "094621.894000", "094621.896000", "094621.898000", "094621.901000", "094621.903000", "094621.905000", "094621.908000", "094701.862000", "094701.865000", "094701.867000", "094701.869000", "094701.872000", "094701.874000", "094701.876000", "094701.879000", "094701.881000", "094701.883000", "094701.886000", "094701.888000", "094701.890000", "094701.893000", "094701.895000", "094701.897000", "094701.900000", "094701.902000", "094701.904000", "094701.906000", "094741.862000", "094741.865000", "094741.867000", "094741.869000", "094741.872000", "094741.874000", "094741.876000", "094741.879000", "094741.881000", "094741.883000", "094741.886000", "094741.888000", "094741.890000", "094741.892000", "094741.895000", "094741.897000", "094741.899000", "094741.902000", "094741.904000", "094741.906000", "094820.063000", "094820.075000", "094820.078000", "094820.081000", "094820.093000", "094820.096000", "094820.101000", "094820.104000", "094820.107000", "094820.110000", "094820.113000", "094820.116000", "094820.119000", "094820.122000", "094820.125000", "094820.128000", "094820.131000", "094820.134000", "094820.137000", "094820.139000"],
      "InstanceCreationTime": ["094221.867000", "094221.870000", "094221.872000", "094221.875000", "094221.885000", "094221.887000", "094221.889000", "094221.891000", "094221.894000", "094221.896000", "094221.898000", "094221.901000", "094221.909000", "094221.914000", "094221.916000", "094221.919000", "094221.921000", "094221.923000", "094221.925000", "094221.928000", "094301.862000", "094301.865000", "094301.867000", "094301.869000", "094301.872000", "094301.874000", "094301.876000", "094301.879000", "094301.881000", "094301.883000", "094301.886000", "094301.888000", "094301.890000", "094301.893000", "094301.895000", "094301.898000", "094301.900000", "094301.902000", "094301.905000", "094301.907000", "094341.862000", "094341.865000", "094341.879000", "094341.882000", "094341.884000", "094341.886000", "094341.889000", "094341.891000", "094341.894000", "094341.904000", "094341.906000", "094341.909000", "094341.911000", "094341.913000", "094341.916000", "094341.918000", "094341.921000", "094341.923000", "094341.925000", "094341.928000", "094421.862000", "094421.865000", "094421.867000", "094421.870000", "094421.872000", "094421.874000", "094421.877000", "094421.879000", "094421.881000", "094421.884000", "094421.886000", "094421.888000", "094421.891000", "094421.893000", "094421.895000", "094421.898000", "094421.900000", "094421.902000", "094421.905000", "094421.907000", "094501.862000", "094501.865000", "094501.867000", "094501.869000", "094501.872000", "094501.874000", "094501.877000", "094501.879000", "094501.881000", "094501.884000", "094501.886000", "094501.889000", "094501.891000", "094501.893000", "094501.896000", "094501.898000", "094501.900000", "094501.903000", "094501.905000", "094501.907000", "094541.862000", "094541.873000", "094541.876000", "094541.878000", "094541.881000", "094541.883000", "094541.886000", "094541.888000", "094541.890000", "094541.893000", "094541.895000", "094541.897000", "094541.900000", "094541.902000", "094541.904000", "094541.907000", "094541.909000", "094541.911000", "094541.914000", "094541.916000", "094621.863000", "094621.866000", "094621.868000", "094621.870000", "094621.873000", "094621.875000", "094621.877000", "094621.880000", "094621.882000", "094621.884000", "094621.887000", "094621.889000", "094621.891000", "094621.894000", "094621.896000", "094621.898000", "094621.901000", "094621.903000", "094621.905000", "094621.908000", "094701.862000", "094701.865000", "094701.867000", "094701.869000", "094701.872000", "094701.874000", "094701.876000", "094701.879000", "094701.881000", "094701.883000", "094701.886000", "094701.888000", "094701.890000", "094701.893000", "094701.895000", "094701.897000", "094701.900000", "094701.902000", "094701.904000", "094701.906000", "094741.862000", "094741.865000", "094741.867000", "094741.869000", "094741.872000", "094741.874000", "094741.876000", "094741.879000", "094741.881000", "094741.883000", "094741.886000", "094741.888000", "094741.890000", "094741.892000", "094741.895000", "094741.897000", "094741.899000", "094741.902000", "094741.904000", "094741.906000", "094820.063000", "094820.075000", "094820.078000", "094820.081000", "094820.093000", "094820.096000", "094820.101000", "094820.104000", "094820.107000", "094820.110000", "094820.113000", "094820.116000", "094820.119000", "094820.122000", "094820.125000", "094820.128000", "094820.131000", "094820.134000", "094820.137000", "094820.139000"],
      "InstanceNumber": [1, 2, 3, 4, 5, 6, 7, 8, 9, 10, 11, 12, 13, 14, 15, 16, 17, 18, 19, 20, 21, 22, 23, 24, 25, 26, 27, 28, 29, 30, 31, 32, 33, 34, 35, 36, 37, 38, 39, 40, 41, 42, 43, 44, 45, 46, 47, 48, 49, 50, 51, 52, 53, 54, 55, 56, 57, 58, 59, 60, 61, 62, 63, 64, 65, 66, 67, 68, 69, 70, 71, 72, 73, 74, 75, 76, 77, 78, 79, 80, 81, 82, 83, 84, 85, 86, 87, 88, 89, 90, 91, 92, 93, 94, 95, 96, 97, 98, 99, 100, 101, 102, 103, 104, 105, 106, 107, 108, 109, 110, 111, 112, 113, 114, 115, 116, 117, 118, 119, 120, 121, 122, 123, 124, 125, 126, 127, 128, 129, 130, 131, 132, 133, 134, 135, 136, 137, 138, 139, 140, 141, 142, 143, 144, 145, 146, 147, 148, 149, 150, 151, 152, 153, 154, 155, 156, 157, 158, 159, 160, 161, 162, 163, 164, 165, 166, 167, 168, 169, 170, 171, 172, 173, 174, 175, 176, 177, 178, 179, 180, 181, 182, 183, 184, 185, 186, 187, 188, 189, 190, 191, 192, 193, 194, 195, 196, 197, 198, 199, 200],
      "LargestImagePixelValue": [2246, 2249, 2247, 2248, 2242, 2246, 2246, 2245, 2250, 2245, 2244, 2246, 2248, 2249, 2248, 2241, 2243, 2247, 2242, 2248, 2243, 2245, 2244, 2249, 2245, 2248, 2245, 2246, 2245, 2242, 2248, 2241, 2245, 2242, 2250, 2244, 2243, 2246, 2244, 2247, 2249, 2244, 2248, 2242, 2246, 2243, 2244, 2246, 2245, 2246, 2238, 2236, 2244, 2247, 2242, 2244, 2244, 2250, 2248, 2242, 2240, 2247, 2248, 2243, 2244, 2241, 2237, 2241, 2248, 2245, 2243, 2243, 2244, 2243, 2236, 2242, 2239, 2238, 2243, 2243, 2240, 2241, 2244, 2241, 2242, 2241, 2236, 2239, 2242, 2236, 2247, 2240, 2238, 2239, 2242, 2237, 2240, 2236, 2236, 2240, 2241, 2239, 2238, 2235, 2239, 2239, 2237, 2235, 2243, 2241, 2239, 2238, 2240, 2240, 2238, 2243, 2240, 2237, 2236, 2237, 2244, 2238, 2241, 2240, 2243, 2238, 2238, 2240, 2242, 2240, 2237, 2236, 2242, 2239, 2242, 2237, 2240, 2238, 2239, 2240, 2235, 2237, 2240, 2236, 2238, 2236, 2235, 2239, 2235, 2235, 2241, 2238, 2233, 2240, 2236, 2237, 2237, 2234, 2239, 2240, 2239, 2234, 2239, 2234, 2235, 2232, 2244, 2232, 2230, 2234, 2237, 2239, 2233, 2237, 2243, 2232, 2234, 2233, 2236, 2232, 2243, 2231, 2238, 2235, 2234, 2236, 2235, 2239, 2235, 2231, 2234, 2241, 2238, 2238, 2244, 2234, 2236, 2236, 2236, 2232],
      "WindowCenter": [1030.0, 1030.0, 1030.0, 1030.0, 1030.0, 1030.0, 1030.0, 1030.0, 1030.0, 1029.0, 1030.0, 1030.0, 1030.0, 1029.0, 1029.0, 1029.0, 1029.0, 1029.0, 1029.0, 1029.0, 1029.0, 1029.0, 1029.0, 1029.0, 1029.0, 1029.0, 1029.0, 1029.0, 1029.0, 1029.0, 1029.0, 1029.0, 1029.0, 1029.0, 1029.0, 1029.0, 1030.0, 1029.0, 1029.0, 1029.0, 1029.0, 1029.0, 1029.0, 1029.0, 1029.0, 1029.0, 1029.0, 1029.0, 1029.0, 1029.0, 1029.0, 1029.0, 1030.0, 1030.0, 1029.0, 1029.0, 1029.0, 1029.0, 1029.0, 1029.0, 1029.0, 1029.0, 1029.0, 1029.0, 1029.0, 1029.0, 1029.0, 1028.0, 1029.0, 1029.0, 1029.0, 1029.0, 1029.0, 1029.0, 1028.0, 1028.0, 1028.0, 1028.0, 1028.0, 1028.0, 1028.0, 1028.0, 1028.0, 1028.0, 1028.0, 1028.0, 1028.0, 1028.0, 1028.0, 1028.0, 1028.0, 1028.0, 1028.0, 1028.0, 1028.0, 1028.0, 1029.0, 1028.0, 1028.0, 1028.0, 1028.0, 1028.0, 1028.0, 1028.0, 1028.0, 1028.0, 1028.0, 1028.0, 1028.0, 1028.0, 1028.0, 1028.0, 1028.0, 1028.0, 1029.0, 1028.0, 1028.0, 1028.0, 1028.0, 1028.0, 1028.0, 1028.0, 1028.0, 1028.0, 1028.0, 1028.0, 1028.0, 1028.0, 1028.0, 1028.0, 1028.0, 1028.0, 1029.0, 1028.0, 1028.0, 1029.0, 1028.0, 1028.0, 1028.0, 1028.0, 1028.0, 1028.0, 1028.0, 1028.0, 1028.0, 1028.0, 1028.0, 1028.0, 1027.0, 1028.0, 1027.0, 1027.0, 1028.0, 1027.0, 1027.0, 1027.0, 1027.0, 1027.0, 1027.0, 1027.0, 1027.0, 1027.0, 1027.0, 1027.0, 1027.0, 1027.0, 1027.0, 1027.0, 1027.0, 1027.0, 1027.0, 1027.0, 1027.0, 1027.0, 1027.0, 1027.0, 1027.0, 1027.0, 1027.0, 1027.0, 1027.0, 1027.0, 1027.0, 1027.0, 1027.0, 1027.0, 1027.0, 1027.0, 1027.0, 1027.0, 1027.0, 1027.0, 1027.0, 1028.0, 1027.0, 1027.0, 1027.0, 1028.0, 1028.0, 1027.0],
      "WindowWidth": [2308.0, 2307.0, 2307.0, 2307.0, 2307.0, 2307.0, 2307.0, 2307.0, 2307.0, 2307.0, 2306.0, 2307.0, 2306.0, 2307.0, 2307.0, 2306.0, 2306.0, 2306.0, 2306.0, 2306.0, 2306.0, 2306.0, 2306.0, 2306.0, 2306.0, 2306.0, 2305.0, 2306.0, 2305.0, 2306.0, 2306.0, 2306.0, 2305.0, 2305.0, 2305.0, 2305.0, 2306.0, 2305.0, 2305.0, 2305.0, 2305.0, 2305.0, 2305.0, 2305.0, 2305.0, 2305.0, 2305.0, 2305.0, 2305.0, 2305.0, 2304.0, 2305.0, 2305.0, 2306.0, 2304.0, 2304.0, 2304.0, 2304.0, 2304.0, 2304.0, 2304.0, 2304.0, 2304.0, 2304.0, 2304.0, 2304.0, 2304.0, 2304.0, 2304.0, 2303.0, 2303.0, 2303.0, 2303.0, 2303.0, 2304.0, 2303.0, 2304.0, 2304.0, 2303.0, 2303.0, 2303.0, 2303.0, 2303.0, 2303.0, 2303.0, 2303.0, 2303.0, 2303.0, 2303.0, 2303.0, 2303.0, 2303.0, 2303.0, 2303.0, 2303.0, 2303.0, 2304.0, 2303.0, 2303.0, 2302.0, 2302.0, 2303.0, 2303.0, 2303.0, 2303.0, 2302.0, 2302.0, 2302.0, 2302.0, 2302.0, 2302.0, 2302.0, 2303.0, 2302.0, 2303.0, 2302.0, 2302.0, 2302.0, 2302.0, 2301.0, 2302.0, 2302.0, 2302.0, 2302.0, 2302.0, 2302.0, 2302.0, 2302.0, 2301.0, 2302.0, 2302.0, 2302.0, 2303.0, 2301.0, 2301.0, 2302.0, 2301.0, 2302.0, 2301.0, 2301.0, 2301.0, 2301.0, 2301.0, 2301.0, 2301.0, 2301.0, 2301.0, 2301.0, 2301.0, 2300.0, 2300.0, 2300.0, 2301.0, 2300.0, 2300.0, 2301.0, 2300.0, 2300.0, 2300.0, 2300.0, 2300.0, 2300.0, 2300.0, 2300.0, 2300.0, 2300.0, 2300.0, 2300.0, 2300.0, 2300.0, 2300.0, 2300.0, 2300.0, 2300.0, 2300.0, 2300.0, 2299.0, 2299.0, 2300.0, 2299.0, 2299.0, 2300.0, 2300.0, 2299.0, 2299.0, 2299.0, 2300.0, 2299.0, 2299.0, 2299.0, 2299.0, 2299.0, 2299.0, 2300.0, 2300.0, 2299.0, 2299.0, 2299.0, 2300.0, 2299.0]
    },
    "slices": {}
  }
}