{
  "AcquisitionMatrixPE": 80,
  "AcquisitionNumber": 1,
  "AcquisitionTime": "10:02:10.445000",
  "BandwidthPerPixelPhaseEncode": 25,
  "BaseResolution": 80,
  "BodyPartExamined": "BRAIN",
  "CoilCombinationMethod": "Sum of Squares",
  "ConsistencyInfo": "N4_VE11E_LATEST_20181129",
  "ConversionSoftware": "dcm2niix",
  "ConversionSoftwareVersion": "v1.0.20220720",
  "DerivedVendorReportedEchoSpacing": 0.0005,
  "DeviceSerialNumber": "66112",
  "DwellTime": 2.7e-06,
  "EchoTime": 0.03,
  "EchoTrainLength": 80,
  "EffectiveEchoSpacing": 0.0005,
  "FlipAngle": 10,
  "HeudiconvVersion": "0.13.1",
  "ImageOrientationPatientDICOM": [0.99981, 0.0191433, 0.00370285, -0.0193719, 0.953682, 0.300192],
  "ImageOrientationText": "Tra>Cor(17.5)>Sag(-0.1)",
  "ImageType": [
    "ORIGINAL",
    "PRIMARY",
    "M",
    "ND",
    "NORM",
    "MOSAIC"
],
  "ImagingFrequency": 123.261,
  "InPlanePhaseEncodingDirectionDICOM": "COL",
  "InstitutionAddress": "Maynard 3,Hanover,NH,US,03755",
  "InstitutionName": "Dartmouth College - PBS",
  "InstitutionalDepartmentName": "Department",
  "MRAcquisitionType": "2D",
  "MagneticFieldStrength": 3,
  "Manufacturer": "Siemens",
  "ManufacturersModelName": "Prisma",
  "MatrixCoilMode": "SENSE",
  "Modality": "MR",
  "NonlinearGradientCorrection": false,
  "PartialFourier": 1,
  "PatientPosition": "HFS",
  "PercentPhaseFOV": 100,
  "PercentSampling": 100,
  "PhaseEncodingDirection": "j-",
  "PhaseEncodingSteps": 80,
  "PhaseResolution": 1,
  "PixelBandwidth": 2315,
  "ProcedureStepDescription": "dbic^QA",
  "ProtocolName": "func-bold_fa-10",
  "PulseSequenceDetails": "%SiemensSeq%\\ep2d_bold",
  "ReceiveCoilActiveElements": "HEA;HEP",
  "ReceiveCoilName": "Head_32",
  "ReconMatrixPE": 80,
  "RepetitionTime": 2,
  "SAR": 0.0098865,
  "ScanOptions": "FS",
  "ScanningSequence": "EP",
  "SequenceName": "*epfid2d1_80",
  "SequenceVariant": "SK",
  "SeriesDescription": "func-bold_fa-10",
  "SeriesNumber": 8,
  "ShimSetting": [4247, -7732, -7485, -12, -179, -93, -8, 81],
  "SliceThickness": 3.5,
  "SliceTiming": [0.99, 0, 1.055, 0.065, 1.1225, 0.1325, 1.1875, 0.1975, 1.255, 0.265, 1.32, 0.33, 1.385, 0.395, 1.4525, 0.4625, 1.5175, 0.5275, 1.585, 0.595, 1.65, 0.66, 1.715, 0.725, 1.7825, 0.7925, 1.8475, 0.8575, 1.915, 0.925],
  "SoftwareVersions": "syngo MR E11",
  "SpacingBetweenSlices": 3.99,
  "StationName": "AWP66112",
  "TotalReadoutTime": 0.0395,
  "TxRefAmp": 223.045,
  "dcmmeta_affine": [
    [-2.999429702758789, -0.05811573565006256, -0.008839212357997894, 123.74590301513672],
    [-0.05743002891540527, 2.8610458374023438, 1.1978262662887573, -126.87501525878906],
    [0.011108563281595707, -0.9005772471427917, 3.8059473037719727, -26.941484451293945],
    [0.0, 0.0, 0.0, 1.0]
],
  "dcmmeta_reorient_transform": [
    [0.0, -1.0, 0.0, 79.0],
    [1.0, 0.0, 0.0, 0.0],
    [0.0, 0.0, 1.0, 0.0],
    [0.0, 0.0, 0.0, 1.0]
],
  "dcmmeta_shape": [80, 80, 30, 200],
  "dcmmeta_slice_dim": 2,
  "dcmmeta_version": 0.6,
  "global": {
    "const": {
      "AccessionNumber": "qa",
      "AcquisitionMatrix": [80, 0, 0, 80],
      "AngioFlag": "N",
      "BitsAllocated": 16,
      "BitsStored": 12,
      "BodyPartExamined": "BRAIN",
      "Columns": 480,
      "EchoNumbers": 1,
      "EchoTime": 30.0,
      "EchoTrainLength": 80,
      "FlipAngle": 10.0,
      "HighBit": 11,
      "ImageOrientationPatient": [0.99980989257286, 0.01914334305393, 0.00370285432798, -0.0193719120484, 0.95368193690785, 0.30019242535296],
      "ImagePositionPatient": [-707.41754944214, -682.84277090842, -280.42425697941],
      "ImageType": [
        "ORIGINAL",
        "PRIMARY",
        "M",
        "ND",
        "NORM",
        "MOSAIC"
],
      "ImagedNucleus": "1H",
      "ImagingFrequency": 123.261262,
      "InPlanePhaseEncodingDirection": "COL",
      "MRAcquisitionType": "2D",
      "MagneticFieldStrength": 3.0,
      "Manufacturer": "SIEMENS",
      "ManufacturerModelName": "Prisma",
      "Modality": "MR",
      "NumberOfAverages": 1.0,
      "NumberOfPhaseEncodingSteps": 80,
      "PercentPhaseFieldOfView": 100.0,
      "PercentSampling": 100.0,
      "PerformedProcedureStepStartTime": "093739.062000",
      "PhotometricInterpretation": "MONOCHROME2",
      "PixelBandwidth": 2315.0,
      "PixelRepresentation": 0,
      "PixelSpacing": [3.0, 3.0],
      "ProtocolName": "func-bold_fa-10",
      "RepetitionTime": 2000.0,
      "Rows": 480,
      "SAR": 0.00988650002321,
      "SamplesPerPixel": 1,
      "ScanOptions": "FS",
      "ScanningSequence": "EP",
      "SequenceName": "*epfid2d1_80",
      "SequenceVariant": "SK",
      "SeriesDescription": "func-bold_fa-10",
      "SeriesNumber": 8,
      "SeriesTime": "100301.864000",
      "SliceLocation": -64.06163203782,
      "SliceThickness": 3.5,
      "SmallestImagePixelValue": 0,
      "SoftwareVersions": "syngo MR E11",
      "SpacingBetweenSlices": 3.9900000620357,
      "SpecificCharacterSet": "ISO_IR 100",
      "StudyID": "38",
      "StudyTime": "093739.011000",
      "TransmitCoilName": "Body",
      "VariableFlipAngleFlag": "N",
      "WindowCenterWidthExplanation": "Algo1"
    },
    "slices": {}
  },
  "time": {
    "samples": {
      "AcquisitionNumber": [1, 2, 3, 4, 5, 6, 7, 8, 9, 10, 11, 12, 13, 14, 15, 16, 17, 18, 19, 20, 21, 22, 23, 24, 25, 26, 27, 28, 29, 30, 31, 32, 33, 34, 35, 36, 37, 38, 39, 40, 41, 42, 43, 44, 45, 46, 47, 48, 49, 50, 51, 52, 53, 54, 55, 56, 57, 58, 59, 60, 61, 62, 63, 64, 65, 66, 67, 68, 69, 70, 71, 72, 73, 74, 75, 76, 77, 78, 79, 80, 81, 82, 83, 84, 85, 86, 87, 88, 89, 90, 91, 92, 93, 94, 95, 96, 97, 98, 99, 100, 101, 102, 103, 104, 105, 106, 107, 108, 109, 110, 111, 112, 113, 114, 115, 116, 117, 118, 119, 120, 121, 122, 123, 124, 125, 126, 127, 128, 129, 130, 131, 132, 133, 134, 135, 136, 137, 138, 139, 140, 141, 142, 143, 144, 145, 146, 147, 148, 149, 150, 151, 152, 153, 154, 155, 156, 157, 158, 159, 160, 161, 162, 163, 164, 165, 166, 167, 168, 169, 170, 171, 172, 173, 174, 175, 176, 177, 178, 179, 180, 181, 182, 183, 184, 185, 186, 187, 188, 189, 190, 191, 192, 193, 194, 195, 196, 197, 198, 199, 200],
      "AcquisitionTime": ["100210.445000", "100212.445000", "100214.445000", "100216.445000", "100218.445000", "100220.445000", "100222.445000", "100224.445000", "100226.445000", "100228.445000", "100230.445000", "100232.445000", "100234.445000", "100236.445000", "100238.445000", "100240.445000", "100242.445000", "100244.445000", "100246.445000", "100248.445000", "100250.445000", "100252.445000", "100254.445000", "100256.445000", "100258.445000", "100300.445000", "100302.445000", "100304.445000", "100306.445000", "100308.445000", "100310.445000", "100312.445000", "100314.445000", "100316.445000", "100318.445000", "100320.445000", "100322.445000", "100324.445000", "100326.445000", "100328.445000", "100330.445000", "100332.445000", "100334.445000", "100336.445000", "100338.445000", "100340.445000", "100342.445000", "100344.445000", "100346.445000", "100348.445000", "100350.445000", "100352.445000", "100354.445000", "100356.445000", "100358.445000", "100400.445000", "100402.445000", "100404.445000", "100406.445000", "100408.445000", "100410.445000", "100412.445000", "100414.445000", "100416.445000", "100418.445000", "100420.445000", "100422.445000", "100424.445000", "100426.445000", "100428.445000", "100430.445000", "100432.445000", "100434.445000", "100436.445000", "100438.445000", "100440.445000", "100442.445000", "100444.445000", "100446.445000", "100448.445000", "100450.445000", "100452.445000", "100454.445000", "100456.445000", "100458.445000", "100500.445000", "100502.445000", "100504.445000", "100506.445000", "100508.445000", "100510.445000", "100512.445000", "100514.445000", "100516.445000", "100518.445000", "100520.445000", "100522.445000", "100524.445000", "100526.445000", "100528.445000", "100530.445000", "100532.445000", "100534.445000", "100536.445000", "100538.445000", "100540.445000", "100542.445000", "100544.445000", "100546.445000", "100548.445000", "100550.445000", "100552.445000", "100554.445000", "100556.445000", "100558.445000", "100600.445000", "100602.445000", "100604.445000", "100606.445000", "100608.445000", "100610.445000", "100612.445000", "100614.445000", "100616.445000", "100618.445000", "100620.445000", "100622.445000", "100624.445000", "100626.445000", "100628.445000", "100630.445000", "100632.445000", "100634.445000", "100636.445000", "100638.445000", "100640.445000", "100642.445000", "100644.445000", "100646.445000", "100648.445000", "100650.445000", "100652.445000", "100654.445000", "100656.445000", "100658.445000", "100700.445000", "100702.445000", "100704.445000", "100706.445000", "100708.445000", "100710.445000", "100712.445000", "100714.445000", "100716.445000", "100718.445000", "100720.445000", "100722.445000", "100724.445000", "100726.445000", "100728.445000", "100730.445000", "100732.445000", "100734.445000", "100736.445000", "100738.445000", "100740.445000", "100742.445000", "100744.445000", "100746.445000", "100748.445000", "100750.445000", "100752.445000", "100754.445000", "100756.445000", "100758.445000", "100800.445000", "100802.445000", "100804.445000", "100806.445000", "100808.445000", "100810.445000", "100812.445000", "100814.445000", "100816.445000", "100818.445000", "100820.445000", "100822.445000", "100824.445000", "100826.445000", "100828.445000", "100830.445000", "100832.445000", "100834.445000", "100836.445000", "100838.445000", "100840.445000", "100842.445000", "100844.445000", "100846.445000", "100848.445000"],
      "ContentTime": ["100301.867000", "100301.870000", "100301.872000", "100301.875000", "100301.877000", "100301.880000", "100301.882000", "100301.884000", "100301.887000", "100301.889000", "100301.891000", "100301.893000", "100301.896000", "100301.898000", "100301.901000", "100301.903000", "100301.905000", "100301.908000", "100301.910000", "100301.912000", "100301.915000", "100301.924000", "100301.926000", "100301.929000", "100301.931000", "100341.862000", "100341.865000", "100341.867000", "100341.870000", "100341.872000", "100341.874000", "100341.877000", "100341.879000", "100341.881000", "100341.884000", "100341.886000", "100341.888000", "100341.891000", "100341.893000", "100341.895000", "100341.898000", "100341.900000", "100341.902000", "100341.905000", "100341.907000", "100421.862000", "100421.865000", "100421.867000", "100421.870000", "100421.872000", "100421.874000", "100421.877000", "100421.879000", "100421.881000", "100421.884000", "100421.886000", "100421.888000", "100421.891000", "100421.893000", "100421.895000", "100421.898000", "100421.900000", "100421.902000", "100421.905000", "100421.907000", "100501.863000", "100501.866000", "100501.868000", "100501.870000", "100501.873000", "100501.875000", "100501.877000", "100501.880000", "100501.882000", "100501.884000", "100501.887000", "100501.889000", "100501.891000", "100501.894000", "100501.896000", "100501.898000", "100501.901000", "100501.903000", "100501.905000", "100501.908000", "100541.863000", "100541.865000", "100541.868000", "100541.870000", "100541.872000", "100541.875000", "100541.877000", "100541.879000", "100541.882000", "100541.884000", "100541.886000", "100541.889000", "100541.891000", "100541.893000", "100541.895000", "100541.898000", "100541.900000", "100541.902000", "100541.905000", "100541.907000", "100621.862000", "100621.865000", "100621.867000", "100621.869000", "100621.872000", "100621.881000", "100621.883000", "100621.885000", "100621.888000", "100621.890000", "100621.892000", "100621.894000", "100621.897000", "100621.899000", "100621.901000", "100621.904000", "100621.906000", "100621.908000", "100621.910000", "100621.913000", "100701.862000", "100701.865000", "100701.867000", "100701.876000", "100701.879000", "100701.881000", "100701.883000", "100701.886000", "100701.888000", "100701.890000", "100701.893000", "100701.895000", "100701.897000", "100701.900000", "100701.902000", "100701.904000", "100701.907000", "100701.909000", "100701.911000", "100701.913000", "100741.862000", "100741.865000", "100741.867000", "100741.869000", "100741.872000", "100741.874000", "100741.876000", "100741.879000", "100741.881000", "100741.883000", "100741.886000", "100741.888000", "100741.890000", "100741.892000", "100741.895000", "100741.897000", "100741.899000", "100741.901000", "100741.904000", "100741.906000", "100821.862000", "100821.865000", "100821.867000", "100821.869000", "100821.871000", "100821.874000", "100821.876000", "100821.878000", "100821.881000", "100821.883000", "100821.885000", "100821.888000", "100821.890000", "100821.892000", "100821.895000", "100821.897000", "100821.899000", "100821.902000", "100821.904000", "100821.906000", "100850.467000", "100850.470000", "100850.472000", "100850.474000", "100850.477000", "100850.479000", "100850.481000", "100850.484000", "100850.486000", "100850.488000", "100850.491000", "100850.493000", "100850.496000", "100850.499000", "100850.502000"],
      "InstanceCreationTime": ["100301.867000", "100301.870000", "100301.872000", "100301.875000", "100301.877000", "100301.880000", "100301.882000", "100301.884000", "100301.887000", "100301.889000", "100301.891000", "100301.893000", "100301.896000", "100301.898000", "100301.901000", "100301.903000", "100301.905000", "100301.908000", "100301.910000", "100301.912000", "100301.915000", "100301.924000", "100301.926000", "100301.929000", "100301.931000", "100341.862000", "100341.865000", "100341.867000", "100341.870000", "100341.872000", "100341.874000", "100341.877000", "100341.879000", "100341.881000", "100341.884000", "100341.886000", "100341.888000", "100341.891000", "100341.893000", "100341.895000", "100341.898000", "100341.900000", "100341.902000", "100341.905000", "100341.907000", "100421.862000", "100421.865000", "100421.867000", "100421.870000", "100421.872000", "100421.874000", "100421.877000", "100421.879000", "100421.881000", "100421.884000", "100421.886000", "100421.888000", "100421.891000", "100421.893000", "100421.895000", "100421.898000", "100421.900000", "100421.902000", "100421.905000", "100421.907000", "100501.863000", "100501.866000", "100501.868000", "100501.870000", "100501.873000", "100501.875000", "100501.877000", "100501.880000", "100501.882000", "100501.884000", "100501.887000", "100501.889000", "100501.891000", "100501.894000", "100501.896000", "100501.898000", "100501.901000", "100501.903000", "100501.905000", "100501.908000", "100541.863000", "100541.865000", "100541.868000", "100541.870000", "100541.872000", "100541.875000", "100541.877000", "100541.879000", "100541.882000", "100541.884000", "100541.886000", "100541.889000", "100541.891000", "100541.893000", "100541.895000", "100541.898000", "100541.900000", "100541.902000", "100541.905000", "100541.907000", "100621.862000", "100621.865000", "100621.867000", "100621.869000", "100621.872000", "100621.881000", "100621.883000", "100621.885000", "100621.888000", "100621.890000", "100621.892000", "100621.894000", "100621.897000", "100621.899000", "100621.901000", "100621.904000", "100621.906000", "100621.908000", "100621.910000", "100621.913000", "100701.862000", "100701.865000", "100701.867000", "100701.876000", "100701.879000", "100701.881000", "100701.883000", "100701.886000", "100701.888000", "100701.890000", "100701.893000", "100701.895000", "100701.897000", "100701.900000", "100701.902000", "100701.904000", "100701.907000", "100701.909000", "100701.911000", "100701.913000", "100741.862000", "100741.865000", "100741.867000", "100741.869000", "100741.872000", "100741.874000", "100741.876000", "100741.879000", "100741.881000", "100741.883000", "100741.886000", "100741.888000", "100741.890000", "100741.892000", "100741.895000", "100741.897000", "100741.899000", "100741.901000", "100741.904000", "100741.906000", "100821.862000", "100821.865000", "100821.867000", "100821.869000", "100821.871000", "100821.874000", "100821.876000", "100821.878000", "100821.881000", "100821.883000", "100821.885000", "100821.888000", "100821.890000", "100821.892000", "100821.895000", "100821.897000", "100821.899000", "100821.902000", "100821.904000", "100821.906000", "100850.467000", "100850.470000", "100850.472000", "100850.474000", "100850.477000", "100850.479000", "100850.481000", "100850.484000", "100850.486000", "100850.488000", "100850.491000", "100850.493000", "100850.496000", "100850.499000", "100850.502000"],
      "InstanceNumber": [1, 2, 3, 4, 5, 6, 7, 8, 9, 10, 11, 12, 13, 14, 15, 16, 17, 18, 19, 20, 21, 22, 23, 24, 25, 26, 27, 28, 29, 30, 31, 32, 33, 34, 35, 36, 37, 38, 39, 40, 41, 42, 43, 44, 45, 46, 47, 48, 49, 50, 51, 52, 53, 54, 55, 56, 57, 58, 59, 60, 61, 62, 63, 64, 65, 66, 67, 68, 69, 70, 71, 72, 73, 74, 75, 76, 77, 78, 79, 80, 81, 82, 83, 84, 85, 86, 87, 88, 89, 90, 91, 92, 93, 94, 95, 96, 97, 98, 99, 100, 101, 102, 103, 104, 105, 106, 107, 108, 109, 110, 111, 112, 113, 114, 115, 116, 117, 118, 119, 120, 121, 122, 123, 124, 125, 126, 127, 128, 129, 130, 131, 132, 133, 134, 135, 136, 137, 138, 139, 140, 141, 142, 143, 144, 145, 146, 147, 148, 149, 150, 151, 152, 153, 154, 155, 156, 157, 158, 159, 160, 161, 162, 163, 164, 165, 166, 167, 168, 169, 170, 171, 172, 173, 174, 175, 176, 177, 178, 179, 180, 181, 182, 183, 184, 185, 186, 187, 188, 189, 190, 191, 192, 193, 194, 195, 196, 197, 198, 199, 200],
      "LargestImagePixelValue": [383, 384, 385, 385, 383, 385, 385, 385, 385, 384, 383, 384, 385, 385, 384, 385, 384, 383, 384, 386, 383, 385, 383, 383, 385, 384, 384, 385, 382, 382, 381, 381, 384, 382, 384, 383, 382, 383, 383, 384, 382, 384, 384, 386, 384, 383, 386, 383, 385, 382, 385, 383, 383, 384, 383, 383, 385, 386, 383, 384, 384, 385, 385, 383, 384, 386, 383, 385, 383, 384, 385, 382, 383, 383, 384, 384, 384, 384, 384, 383, 382, 384, 384, 384, 384, 383, 384, 384, 384, 383, 383, 383, 384, 383, 385, 385, 386, 385, 385, 385, 384, 387, 384, 383, 385, 385, 384, 384, 383, 385, 383, 386, 384, 384, 385, 384, 383, 383, 384, 383, 384, 382, 383, 382, 383, 383, 384, 384, 382, 383, 383, 381, 385, 383, 383, 383, 382, 384, 386, 384, 384, 383, 385, 385, 384, 384, 384, 384, 384, 384, 383, 385, 384, 384, 383, 383, 383, 382, 383, 384, 384, 382, 384, 384, 384, 384, 383, 382, 382, 383, 383, 383, 383, 381, 382, 383, 382, 382, 382, 383, 383, 384, 383, 383, 385, 384, 384, 384, 383, 383, 385, 383, 383, 385, 385, 385, 384, 384, 384, 383],
      "WindowCenter": [300.0, 300.0, 300.0, 300.0, 300.0, 300.0, 300.0, 300.0, 300.0, 300.0, 300.0, 300.0, 300.0, 300.0, 300.0, 300.0, 300.0, 300.0, 300.0, 300.0, 300.0, 299.0, 300.0, 300.0, 300.0, 300.0, 300.0, 300.0, 299.0, 300.0, 299.0, 299.0, 300.0, 300.0, 299.0, 300.0, 299.0, 299.0, 300.0, 300.0, 299.0, 300.0, 300.0, 299.0, 300.0, 300.0, 300.0, 299.0, 300.0, 299.0, 299.0, 300.0, 300.0, 299.0, 299.0, 300.0, 300.0, 299.0, 299.0, 299.0, 300.0, 300.0, 299.0, 299.0, 299.0, 299.0, 299.0, 299.0, 299.0, 299.0, 299.0, 299.0, 299.0, 299.0, 299.0, 299.0, 300.0, 299.0, 300.0, 299.0, 299.0, 299.0, 299.0, 299.0, 299.0, 299.0, 299.0, 299.0, 299.0, 300.0, 299.0, 299.0, 299.0, 299.0, 299.0, 299.0, 299.0, 299.0, 299.0, 299.0, 299.0, 299.0, 299.0, 299.0, 299.0, 299.0, 299.0, 299.0, 299.0, 299.0, 299.0, 299.0, 299.0, 299.0, 299.0, 299.0, 299.0, 299.0, 299.0, 299.0, 299.0, 299.0, 299.0, 299.0, 299.0, 299.0, 299.0, 299.0, 299.0, 299.0, 299.0, 299.0, 299.0, 299.0, 299.0, 299.0, 299.0, 299.0, 299.0, 299.0, 299.0, 299.0, 299.0, 299.0, 299.0, 299.0, 299.0, 299.0, 299.0, 299.0, 299.0, 299.0, 299.0, 299.0, 299.0, 299.0, 299.0, 299.0, 299.0, 299.0, 299.0, 299.0, 299.0, 299.0, 299.0, 299.0, 299.0, 299.0, 299.0, 299.0, 299.0, 299.0, 299.0, 299.0, 299.0, 299.0, 299.0, 299.0, 299.0, 299.0, 299.0, 299.0, 299.0, 299.0, 299.0, 299.0, 299.0, 299.0, 299.0, 299.0, 299.0, 299.0, 299.0, 299.0, 299.0, 299.0, 299.0, 299.0, 299.0, 299.0],
      "WindowWidth": [650.0, 651.0, 651.0, 651.0, 650.0, 651.0, 650.0, 651.0, 650.0, 651.0, 651.0, 651.0, 651.0, 650.0, 650.0, 651.0, 650.0, 651.0, 650.0, 650.0, 650.0, 649.0, 650.0, 650.0, 650.0, 650.0, 650.0, 650.0, 649.0, 650.0, 650.0, 650.0, 650.0, 650.0, 650.0, 650.0, 649.0, 649.0, 650.0, 650.0, 649.0, 650.0, 650.0, 650.0, 650.0, 650.0, 650.0, 650.0, 650.0, 649.0, 649.0, 650.0, 650.0, 649.0, 649.0, 650.0, 650.0, 649.0, 649.0, 649.0, 650.0, 650.0, 649.0, 649.0, 649.0, 649.0, 649.0, 649.0, 649.0, 649.0, 649.0, 649.0, 649.0, 649.0, 649.0, 649.0, 650.0, 649.0, 650.0, 649.0, 649.0, 649.0, 649.0, 649.0, 649.0, 649.0, 649.0, 649.0, 649.0, 650.0, 649.0, 649.0, 649.0, 649.0, 649.0, 649.0, 649.0, 649.0, 649.0, 649.0, 649.0, 649.0, 649.0, 649.0, 649.0, 649.0, 649.0, 649.0, 649.0, 649.0, 649.0, 649.0, 649.0, 649.0, 649.0, 649.0, 649.0, 649.0, 649.0, 649.0, 649.0, 649.0, 649.0, 649.0, 649.0, 649.0, 649.0, 649.0, 649.0, 649.0, 649.0, 649.0, 649.0, 649.0, 649.0, 649.0, 649.0, 649.0, 649.0, 649.0, 649.0, 649.0, 649.0, 649.0, 649.0, 649.0, 649.0, 649.0, 649.0, 649.0, 649.0, 649.0, 649.0, 649.0, 649.0, 649.0, 649.0, 649.0, 649.0, 649.0, 649.0, 649.0, 649.0, 649.0, 649.0, 649.0, 649.0, 649.0, 649.0, 649.0, 649.0, 648.0, 649.0, 649.0, 649.0, 649.0, 649.0, 649.0, 649.0, 649.0, 649.0, 649.0, 649.0, 649.0, 649.0, 649.0, 649.0, 649.0, 649.0, 649.0, 649.0, 649.0, 649.0, 648.0, 649.0, 649.0, 649.0, 649.0, 649.0, 649.0]
    },
    "slices": {}
  }
}