{
  "AcquisitionMatrixPE": 80,
  "AcquisitionNumber": 1,
  "AcquisitionTime": "10:12:46.450000",
  "BandwidthPerPixelPhaseEncode": 25,
  "BaseResolution": 80,
  "BodyPartExamined": "BRAIN",
  "CoilCombinationMethod": "Sum of Squares",
  "ConsistencyInfo": "N4_VE11E_LATEST_20181129",
  "ConversionSoftware": "dcm2niix",
  "ConversionSoftwareVersion": "v1.0.20220720",
  "DerivedVendorReportedEchoSpacing": 0.0005,
  "DeviceSerialNumber": "66112",
  "DwellTime": 2.7e-06,
  "EchoTime": 0.03,
  "EchoTrainLength": 80,
  "EffectiveEchoSpacing": 0.0005,
  "FlipAngle": 10,
  "HeudiconvVersion": "0.13.1",
  "ImageOrientationPatientDICOM": [0.987992, 0.154354, 0.00676783, -0.149067, 0.940805, 0.304409],
  "ImageOrientationText": "Tra>Cor(17.6)>Sag(-2.3)",
  "ImageType": [
    "ORIGINAL",
    "PRIMARY",
    "M",
    "ND",
    "NORM",
    "MOSAIC"
],
  "ImagingFrequency": 123.259,
  "InPlanePhaseEncodingDirectionDICOM": "COL",
  "InstitutionAddress": "Maynard 3,Hanover,NH,US,03755",
  "InstitutionName": "Dartmouth College - PBS",
  "InstitutionalDepartmentName": "Department",
  "MRAcquisitionType": "2D",
  "MagneticFieldStrength": 3,
  "Manufacturer": "Siemens",
  "ManufacturersModelName": "Prisma",
  "MatrixCoilMode": "SENSE",
  "Modality": "MR",
  "NonlinearGradientCorrection": false,
  "PartialFourier": 1,
  "PatientPosition": "HFS",
  "PercentPhaseFOV": 100,
  "PercentSampling": 100,
  "PhaseEncodingDirection": "j-",
  "PhaseEncodingSteps": 80,
  "PhaseResolution": 1,
  "PixelBandwidth": 2315,
  "ProcedureStepDescription": "dbic^QA",
  "ProtocolName": "func-bold_fa-10",
  "PulseSequenceDetails": "%SiemensSeq%\\ep2d_bold",
  "ReceiveCoilActiveElements": "HEA;HEP",
  "ReceiveCoilName": "Head_32",
  "ReconMatrixPE": 80,
  "RepetitionTime": 2,
  "SAR": 0.00992248,
  "ScanOptions": "FS",
  "ScanningSequence": "EP",
  "SequenceName": "*epfid2d1_80",
  "SequenceVariant": "SK",
  "SeriesDescription": "func-bold_fa-10",
  "SeriesNumber": 8,
  "ShimSetting": [4220, -7729, -7501, -31, -144, -124, -17, 74],
  "SliceThickness": 3.5,
  "SliceTiming": [0.99, 0, 1.055, 0.065, 1.1225, 0.1325, 1.1875, 0.1975, 1.255, 0.265, 1.32, 0.33, 1.385, 0.395, 1.4525, 0.4625, 1.5175, 0.5275, 1.5825, 0.595, 1.65, 0.66, 1.715, 0.725, 1.7825, 0.7925, 1.8475, 0.8575, 1.9125, 0.925],
  "SoftwareVersions": "syngo MR E11",
  "SpacingBetweenSlices": 3.99,
  "StationName": "AWP66112",
  "TotalReadoutTime": 0.0395,
  "TxRefAmp": 224.842,
  "dcmmeta_affine": [
    [-2.963977336883545, -0.4472011923789978, -0.16207218170166016, 138.86331176757812],
    [-0.4630618095397949, 2.8224146366119385, 1.2040348052978516, -106.62165832519531],
    [0.020303478464484215, -0.9132283926010132, 3.800543785095215, -33.869991302490234],
    [0.0, 0.0, 0.0, 1.0]
],
  "dcmmeta_reorient_transform": [
    [0.0, -1.0, 0.0, 79.0],
    [1.0, 0.0, 0.0, 0.0],
    [0.0, 0.0, 1.0, 0.0],
    [0.0, 0.0, 0.0, 1.0]
],
  "dcmmeta_shape": [80, 80, 30, 200],
  "dcmmeta_slice_dim": 2,
  "dcmmeta_version": 0.6,
  "global": {
    "const": {
      "AccessionNumber": "qa",
      "AcquisitionMatrix": [80, 0, 0, 80],
      "AngioFlag": "N",
      "BitsAllocated": 16,
      "BitsStored": 12,
      "BodyPartExamined": "BRAIN",
      "Columns": 480,
      "EchoNumbers": 1,
      "EchoTime": 30.0,
      "EchoTrainLength": 80,
      "FlipAngle": 10.0,
      "HighBit": 11,
      "ImageOrientationPatient": [0.9879924385761, 0.15435393692143, 0.00676782633561, -0.1490670645883, 0.9408049131793, 0.30440947027435],
      "ImagePositionPatient": [-606.88964421972, -773.44441815407, -292.72141301962],
      "ImageType": [
        "ORIGINAL",
        "PRIMARY",
        "M",
        "ND",
        "NORM",
        "MOSAIC"
],
      "ImagedNucleus": "1H",
      "ImagingFrequency": 123.259132,
      "InPlanePhaseEncodingDirection": "COL",
      "MRAcquisitionType": "2D",
      "MagneticFieldStrength": 3.0,
      "Manufacturer": "SIEMENS",
      "ManufacturerModelName": "Prisma",
      "Modality": "MR",
      "NumberOfAverages": 1.0,
      "NumberOfPhaseEncodingSteps": 80,
      "PercentPhaseFieldOfView": 100.0,
      "PercentSampling": 100.0,
      "PerformedProcedureStepStartTime": "092816.527000",
      "PhotometricInterpretation": "MONOCHROME2",
      "PixelBandwidth": 2315.0,
      "PixelRepresentation": 0,
      "PixelSpacing": [3.0, 3.0],
      "ProtocolName": "func-bold_fa-10",
      "RepetitionTime": 2000.0,
      "Rows": 480,
      "SAR": 0.00992247693869,
      "SamplesPerPixel": 1,
      "ScanOptions": "FS",
      "ScanningSequence": "EP",
      "SequenceName": "*epfid2d1_80",
      "SequenceVariant": "SK",
      "SeriesDescription": "func-bold_fa-10",
      "SeriesNumber": 8,
      "SeriesTime": "101339.588000",
      "SliceLocation": -70.076804413043,
      "SliceThickness": 3.5,
      "SmallestImagePixelValue": 0,
      "SoftwareVersions": "syngo MR E11",
      "SpacingBetweenSlices": 3.9899999614894,
      "SpecificCharacterSet": "ISO_IR 100",
      "StudyID": "12",
      "StudyTime": "092816.345000",
      "TransmitCoilName": "Body",
      "VariableFlipAngleFlag": "N",
      "WindowCenterWidthExplanation": "Algo1"
    },
    "slices": {}
  },
  "time": {
    "samples": {
      "AcquisitionNumber": [1, 2, 3, 4, 5, 6, 7, 8, 9, 10, 11, 12, 13, 14, 15, 16, 17, 18, 19, 20, 21, 22, 23, 24, 25, 26, 27, 28, 29, 30, 31, 32, 33, 34, 35, 36, 37, 38, 39, 40, 41, 42, 43, 44, 45, 46, 47, 48, 49, 50, 51, 52, 53, 54, 55, 56, 57, 58, 59, 60, 61, 62, 63, 64, 65, 66, 67, 68, 69, 70, 71, 72, 73, 74, 75, 76, 77, 78, 79, 80, 81, 82, 83, 84, 85, 86, 87, 88, 89, 90, 91, 92, 93, 94, 95, 96, 97, 98, 99, 100, 101, 102, 103, 104, 105, 106, 107, 108, 109, 110, 111, 112, 113, 114, 115, 116, 117, 118, 119, 120, 121, 122, 123, 124, 125, 126, 127, 128, 129, 130, 131, 132, 133, 134, 135, 136, 137, 138, 139, 140, 141, 142, 143, 144, 145, 146, 147, 148, 149, 150, 151, 152, 153, 154, 155, 156, 157, 158, 159, 160, 161, 162, 163, 164, 165, 166, 167, 168, 169, 170, 171, 172, 173, 174, 175, 176, 177, 178, 179, 180, 181, 182, 183, 184, 185, 186, 187, 188, 189, 190, 191, 192, 193, 194, 195, 196, 197, 198, 199, 200],
      "AcquisitionTime": ["101246.450000", "101248.450000", "101250.450000", "101252.450000", "101254.450000", "101256.450000", "101258.450000", "101300.450000", "101302.450000", "101304.450000", "101306.450000", "101308.450000", "101310.450000", "101312.450000", "101314.450000", "101316.450000", "101318.450000", "101320.450000", "101322.450000", "101324.450000", "101326.450000", "101328.450000", "101330.450000", "101332.450000", "101334.450000", "101336.450000", "101338.450000", "101340.450000", "101342.450000", "101344.450000", "101346.450000", "101348.450000", "101350.450000", "101352.450000", "101354.450000", "101356.450000", "101358.450000", "101400.450000", "101402.450000", "101404.450000", "101406.450000", "101408.450000", "101410.450000", "101412.450000", "101414.450000", "101416.450000", "101418.450000", "101420.450000", "101422.450000", "101424.450000", "101426.450000", "101428.450000", "101430.450000", "101432.450000", "101434.450000", "101436.450000", "101438.450000", "101440.450000", "101442.450000", "101444.450000", "101446.450000", "101448.450000", "101450.450000", "101452.450000", "101454.450000", "101456.450000", "101458.450000", "101500.450000", "101502.450000", "101504.450000", "101506.450000", "101508.450000", "101510.450000", "101512.450000", "101514.450000", "101516.450000", "101518.450000", "101520.450000", "101522.450000", "101524.450000", "101526.450000", "101528.450000", "101530.450000", "101532.450000", "101534.450000", "101536.450000", "101538.450000", "101540.450000", "101542.450000", "101544.450000", "101546.450000", "101548.450000", "101550.450000", "101552.450000", "101554.450000", "101556.450000", "101558.450000", "101600.450000", "101602.450000", "101604.450000", "101606.450000", "101608.450000", "101610.450000", "101612.450000", "101614.450000", "101616.450000", "101618.450000", "101620.450000", "101622.450000", "101624.450000", "101626.450000", "101628.450000", "101630.450000", "101632.450000", "101634.450000", "101636.450000", "101638.450000", "101640.450000", "101642.450000", "101644.450000", "101646.450000", "101648.450000", "101650.450000", "101652.450000", "101654.450000", "101656.450000", "101658.450000", "101700.450000", "101702.450000", "101704.450000", "101706.450000", "101708.450000", "101710.450000", "101712.450000", "101714.450000", "101716.450000", "101718.450000", "101720.450000", "101722.450000", "101724.450000", "101726.450000", "101728.450000", "101730.450000", "101732.450000", "101734.450000", "101736.450000", "101738.450000", "101740.450000", "101742.450000", "101744.450000", "101746.450000", "101748.450000", "101750.450000", "101752.450000", "101754.450000", "101756.450000", "101758.450000", "101800.450000", "101802.450000", "101804.450000", "101806.450000", "101808.450000", "101810.450000", "101812.450000", "101814.450000", "101816.450000", "101818.450000", "101820.450000", "101822.450000", "101824.450000", "101826.450000", "101828.450000", "101830.450000", "101832.450000", "101834.450000", "101836.450000", "101838.450000", "101840.450000", "101842.450000", "101844.450000", "101846.450000", "101848.450000", "101850.450000", "101852.450000", "101854.450000", "101856.450000", "101858.450000", "101900.450000", "101902.450000", "101904.450000", "101906.450000", "101908.450000", "101910.450000", "101912.450000", "101914.450000", "101916.450000", "101918.450000", "101920.450000", "101922.450000", "101924.450000"],
      "ContentTime": ["101339.591000", "101339.594000", "101339.597000", "101339.599000", "101339.601000", "101339.604000", "101339.606000", "101339.608000", "101339.611000", "101339.613000", "101339.615000", "101339.617000", "101339.631000", "101339.634000", "101339.636000", "101339.638000", "101339.648000", "101339.651000", "101339.653000", "101339.655000", "101339.657000", "101339.660000", "101339.662000", "101339.664000", "101339.667000", "101339.669000", "101359.586000", "101359.589000", "101359.591000", "101359.593000", "101359.596000", "101359.598000", "101359.601000", "101359.603000", "101359.605000", "101359.608000", "101439.586000", "101439.589000", "101439.591000", "101439.593000", "101439.596000", "101439.598000", "101439.600000", "101439.603000", "101439.605000", "101439.607000", "101439.610000", "101439.612000", "101439.615000", "101439.617000", "101439.619000", "101439.622000", "101439.624000", "101439.626000", "101439.629000", "101439.631000", "101519.586000", "101519.589000", "101519.591000", "101519.594000", "101519.602000", "101519.604000", "101519.607000", "101519.609000", "101519.611000", "101519.614000", "101519.616000", "101519.619000", "101519.621000", "101519.623000", "101519.626000", "101519.628000", "101519.630000", "101519.632000", "101519.635000", "101519.637000", "101559.586000", "101559.589000", "101559.591000", "101559.593000", "101559.596000", "101559.598000", "101559.601000", "101559.603000", "101559.605000", "101559.607000", "101559.610000", "101559.624000", "101559.626000", "101559.628000", "101559.631000", "101559.633000", "101559.636000", "101559.638000", "101559.640000", "101559.642000", "101639.586000", "101639.589000", "101639.591000", "101639.593000", "101639.596000", "101639.598000", "101639.600000", "101639.603000", "101639.605000", "101639.608000", "101639.610000", "101639.612000", "101639.615000", "101639.617000", "101639.619000", "101639.630000", "101639.632000", "101639.634000", "101639.637000", "101639.639000", "101719.586000", "101719.589000", "101719.591000", "101719.593000", "101719.596000", "101719.598000", "101719.601000", "101719.603000", "101719.605000", "101719.608000", "101719.610000", "101719.612000", "101719.615000", "101719.617000", "101719.619000", "101719.622000", "101719.624000", "101719.626000", "101719.629000", "101719.631000", "101759.586000", "101759.589000", "101759.591000", "101759.593000", "101759.596000", "101759.598000", "101759.601000", "101759.603000", "101759.605000", "101759.608000", "101759.610000", "101759.612000", "101759.615000", "101759.617000", "101759.619000", "101759.621000", "101759.624000", "101759.626000", "101759.629000", "101759.645000", "101839.587000", "101839.590000", "101839.592000", "101839.594000", "101839.597000", "101839.599000", "101839.602000", "101839.604000", "101839.606000", "101839.609000", "101839.611000", "101839.613000", "101839.616000", "101839.618000", "101839.620000", "101839.622000", "101839.625000", "101839.627000", "101839.630000", "101839.632000", "101919.589000", "101919.591000", "101919.594000", "101919.596000", "101919.599000", "101919.601000", "101919.603000", "101919.606000", "101919.608000", "101919.610000", "101919.613000", "101919.615000", "101919.617000", "101919.620000", "101919.622000", "101919.624000", "101919.627000", "101919.629000", "101919.631000", "101919.634000", "101925.832000", "101925.835000", "101925.837000", "101925.840000"],
      "InstanceCreationTime": ["101339.591000", "101339.594000", "101339.597000", "101339.599000", "101339.601000", "101339.604000", "101339.606000", "101339.608000", "101339.611000", "101339.613000", "101339.615000", "101339.617000", "101339.631000", "101339.634000", "101339.636000", "101339.638000", "101339.648000", "101339.651000", "101339.653000", "101339.655000", "101339.657000", "101339.660000", "101339.662000", "101339.664000", "101339.667000", "101339.669000", "101359.586000", "101359.589000", "101359.591000", "101359.593000", "101359.596000", "101359.598000", "101359.601000", "101359.603000", "101359.605000", "101359.608000", "101439.586000", "101439.589000", "101439.591000", "101439.593000", "101439.596000", "101439.598000", "101439.600000", "101439.603000", "101439.605000", "101439.607000", "101439.610000", "101439.612000", "101439.615000", "101439.617000", "101439.619000", "101439.622000", "101439.624000", "101439.626000", "101439.629000", "101439.631000", "101519.586000", "101519.589000", "101519.591000", "101519.594000", "101519.602000", "101519.604000", "101519.607000", "101519.609000", "101519.611000", "101519.614000", "101519.616000", "101519.619000", "101519.621000", "101519.623000", "101519.626000", "101519.628000", "101519.630000", "101519.632000", "101519.635000", "101519.637000", "101559.586000", "101559.589000", "101559.591000", "101559.593000", "101559.596000", "101559.598000", "101559.601000", "101559.603000", "101559.605000", "101559.607000", "101559.610000", "101559.624000", "101559.626000", "101559.628000", "101559.631000", "101559.633000", "101559.636000", "101559.638000", "101559.640000", "101559.642000", "101639.586000", "101639.589000", "101639.591000", "101639.593000", "101639.596000", "101639.598000", "101639.600000", "101639.603000", "101639.605000", "101639.608000", "101639.610000", "101639.612000", "101639.615000", "101639.617000", "101639.619000", "101639.630000", "101639.632000", "101639.634000", "101639.637000", "101639.639000", "101719.586000", "101719.589000", "101719.591000", "101719.593000", "101719.596000", "101719.598000", "101719.601000", "101719.603000", "101719.605000", "101719.608000", "101719.610000", "101719.612000", "101719.615000", "101719.617000", "101719.619000", "101719.622000", "101719.624000", "101719.626000", "101719.629000", "101719.631000", "101759.586000", "101759.589000", "101759.591000", "101759.593000", "101759.596000", "101759.598000", "101759.601000", "101759.603000", "101759.605000", "101759.608000", "101759.610000", "101759.612000", "101759.615000", "101759.617000", "101759.619000", "101759.621000", "101759.624000", "101759.626000", "101759.629000", "101759.645000", "101839.587000", "101839.590000", "101839.592000", "101839.594000", "101839.597000", "101839.599000", "101839.602000", "101839.604000", "101839.606000", "101839.609000", "101839.611000", "101839.613000", "101839.616000", "101839.618000", "101839.620000", "101839.622000", "101839.625000", "101839.627000", "101839.630000", "101839.632000", "101919.589000", "101919.591000", "101919.594000", "101919.596000", "101919.599000", "101919.601000", "101919.603000", "101919.606000", "101919.608000", "101919.610000", "101919.613000", "101919.615000", "101919.617000", "101919.620000", "101919.622000", "101919.624000", "101919.627000", "101919.629000", "101919.631000", "101919.634000", "101925.832000", "101925.835000", "101925.837000", "101925.840000"],
      "InstanceNumber": [1, 2, 3, 4, 5, 6, 7, 8, 9, 10, 11, 12, 13, 14, 15, 16, 17, 18, 19, 20, 21, 22, 23, 24, 25, 26, 27, 28, 29, 30, 31, 32, 33, 34, 35, 36, 37, 38, 39, 40, 41, 42, 43, 44, 45, 46, 47, 48, 49, 50, 51, 52, 53, 54, 55, 56, 57, 58, 59, 60, 61, 62, 63, 64, 65, 66, 67, 68, 69, 70, 71, 72, 73, 74, 75, 76, 77, 78, 79, 80, 81, 82, 83, 84, 85, 86, 87, 88, 89, 90, 91, 92, 93, 94, 95, 96, 97, 98, 99, 100, 101, 102, 103, 104, 105, 106, 107, 108, 109, 110, 111, 112, 113, 114, 115, 116, 117, 118, 119, 120, 121, 122, 123, 124, 125, 126, 127, 128, 129, 130, 131, 132, 133, 134, 135, 136, 137, 138, 139, 140, 141, 142, 143, 144, 145, 146, 147, 148, 149, 150, 151, 152, 153, 154, 155, 156, 157, 158, 159, 160, 161, 162, 163, 164, 165, 166, 167, 168, 169, 170, 171, 172, 173, 174, 175, 176, 177, 178, 179, 180, 181, 182, 183, 184, 185, 186, 187, 188, 189, 190, 191, 192, 193, 194, 195, 196, 197, 198, 199, 200],
      "LargestImagePixelValue": [355, 355, 352, 352, 354, 355, 351, 352, 355, 355, 353, 353, 353, 354, 351, 352, 353, 354, 353, 352, 354, 354, 353, 352, 353, 356, 353, 353, 354, 353, 354, 354, 352, 353, 356, 352, 353, 352, 353, 354, 352, 353, 354, 353, 352, 353, 354, 353, 354, 352, 355, 353, 352, 354, 354, 354, 353, 353, 351, 354, 352, 351, 352, 354, 353, 351, 351, 355, 356, 352, 352, 353, 356, 354, 352, 354, 356, 354, 350, 354, 354, 352, 351, 351, 354, 353, 354, 352, 354, 354, 352, 351, 352, 354, 354, 351, 356, 353, 355, 354, 352, 355, 353, 352, 351, 353, 353, 351, 350, 352, 355, 353, 354, 351, 353, 353, 352, 352, 356, 354, 352, 353, 352, 353, 352, 351, 353, 354, 353, 354, 351, 354, 354, 353, 353, 352, 351, 351, 354, 354, 352, 352, 353, 354, 355, 351, 352, 350, 353, 354, 353, 354, 354, 354, 353, 353, 353, 354, 352, 353, 353, 353, 351, 351, 352, 353, 351, 352, 353, 353, 353, 352, 353, 354, 353, 351, 351, 353, 354, 353, 352, 351, 353, 352, 351, 352, 354, 350, 353, 351, 352, 352, 351, 351, 351, 351, 352, 353, 351, 352],
      "WindowCenter": [289.0, 289.0, 289.0, 288.0, 289.0, 288.0, 288.0, 288.0, 289.0, 289.0, 288.0, 288.0, 289.0, 288.0, 289.0, 288.0, 289.0, 288.0, 288.0, 288.0, 288.0, 288.0, 289.0, 288.0, 288.0, 289.0, 288.0, 289.0, 288.0, 288.0, 288.0, 288.0, 288.0, 288.0, 289.0, 289.0, 288.0, 288.0, 289.0, 288.0, 288.0, 288.0, 288.0, 289.0, 288.0, 288.0, 289.0, 288.0, 288.0, 288.0, 288.0, 288.0, 288.0, 288.0, 288.0, 288.0, 288.0, 288.0, 288.0, 288.0, 288.0, 288.0, 288.0, 288.0, 288.0, 288.0, 288.0, 288.0, 288.0, 288.0, 288.0, 288.0, 288.0, 288.0, 288.0, 288.0, 288.0, 288.0, 288.0, 289.0, 288.0, 288.0, 288.0, 288.0, 288.0, 288.0, 288.0, 288.0, 288.0, 288.0, 288.0, 288.0, 288.0, 288.0, 288.0, 288.0, 288.0, 288.0, 288.0, 288.0, 288.0, 288.0, 288.0, 288.0, 288.0, 288.0, 288.0, 288.0, 288.0, 288.0, 288.0, 288.0, 288.0, 288.0, 288.0, 288.0, 288.0, 288.0, 288.0, 288.0, 288.0, 288.0, 288.0, 288.0, 288.0, 288.0, 288.0, 288.0, 288.0, 288.0, 288.0, 288.0, 288.0, 288.0, 288.0, 288.0, 288.0, 288.0, 288.0, 288.0, 288.0, 288.0, 288.0, 288.0, 288.0, 288.0, 288.0, 288.0, 288.0, 288.0, 288.0, 288.0, 288.0, 288.0, 288.0, 288.0, 288.0, 288.0, 288.0, 288.0, 288.0, 288.0, 288.0, 288.0, 288.0, 288.0, 288.0, 288.0, 288.0, 288.0, 288.0, 288.0, 288.0, 288.0, 288.0, 288.0, 288.0, 288.0, 288.0, 288.0, 288.0, 288.0, 288.0, 288.0, 287.0, 288.0, 288.0, 288.0, 288.0, 288.0, 288.0, 288.0, 287.0, 288.0, 288.0, 288.0, 288.0, 287.0, 288.0, 288.0],
      "WindowWidth": [630.0, 630.0, 629.0, 628.0, 630.0, 629.0, 628.0, 629.0, 630.0, 630.0, 628.0, 629.0, 629.0, 628.0, 630.0, 628.0, 629.0, 628.0, 629.0, 628.0, 628.0, 629.0, 629.0, 629.0, 628.0, 629.0, 629.0, 629.0, 628.0, 629.0, 629.0, 628.0, 628.0, 628.0, 629.0, 629.0, 629.0, 629.0, 630.0, 629.0, 628.0, 628.0, 628.0, 629.0, 629.0, 628.0, 629.0, 629.0, 629.0, 628.0, 628.0, 628.0, 629.0, 628.0, 628.0, 628.0, 628.0, 628.0, 629.0, 628.0, 629.0, 628.0, 628.0, 629.0, 629.0, 628.0, 628.0, 628.0, 629.0, 628.0, 628.0, 628.0, 629.0, 628.0, 628.0, 628.0, 628.0, 628.0, 628.0, 629.0, 629.0, 628.0, 628.0, 628.0, 628.0, 628.0, 628.0, 628.0, 628.0, 628.0, 628.0, 628.0, 628.0, 628.0, 628.0, 628.0, 628.0, 628.0, 629.0, 628.0, 628.0, 628.0, 629.0, 628.0, 628.0, 628.0, 628.0, 628.0, 628.0, 628.0, 628.0, 628.0, 628.0, 628.0, 628.0, 628.0, 628.0, 628.0, 628.0, 628.0, 628.0, 628.0, 628.0, 628.0, 628.0, 628.0, 628.0, 628.0, 628.0, 628.0, 628.0, 628.0, 628.0, 628.0, 628.0, 628.0, 628.0, 628.0, 628.0, 628.0, 628.0, 628.0, 628.0, 628.0, 628.0, 628.0, 628.0, 628.0, 628.0, 628.0, 628.0, 628.0, 628.0, 628.0, 628.0, 628.0, 628.0, 628.0, 628.0, 628.0, 628.0, 628.0, 628.0, 628.0, 628.0, 628.0, 628.0, 628.0, 628.0, 628.0, 628.0, 628.0, 628.0, 628.0, 628.0, 628.0, 628.0, 628.0, 628.0, 628.0, 628.0, 628.0, 628.0, 628.0, 627.0, 628.0, 628.0, 628.0, 628.0, 627.0, 628.0, 628.0, 627.0, 628.0, 628.0, 628.0, 628.0, 627.0, 628.0, 628.0]
    },
    "slices": {}
  }
}