{
  "AcquisitionMatrixPE": 80,
  "AcquisitionNumber": 1,
  "AcquisitionTime": "09:52:16.730000",
  "BandwidthPerPixelPhaseEncode": 48.077,
  "BaseResolution": 80,
  "BodyPartExamined": "BRAIN",
  "CoilCombinationMethod": "Sum of Squares",
  "ConsistencyInfo": "N4_VE11E_LATEST_20181129",
  "ConversionSoftware": "dcm2niix",
  "ConversionSoftwareVersion": "v1.0.20220720",
  "DerivedVendorReportedEchoSpacing": 0.000519999,
  "DeviceSerialNumber": "66112",
  "DwellTime": 2.7e-06,
  "EchoTime": 0.035,
  "EchoTrainLength": 39,
  "EffectiveEchoSpacing": 0.00026,
  "FlipAngle": 90,
  "HeudiconvVersion": "0.13.1",
  "ImageOrientationPatientDICOM": [0.987992, 0.154354, 0.00676783, -0.149067, 0.940805, 0.304409],
  "ImageOrientationText": "Tra>Cor(17.6)>Sag(-2.3)",
  "ImageType": [
    "ORIGINAL",
    "PRIMARY",
    "M",
    "ND",
    "NORM",
    "MOSAIC"
],
  "ImagingFrequency": 123.259,
  "InPlanePhaseEncodingDirectionDICOM": "COL",
  "InstitutionAddress": "Maynard 3,Hanover,NH,US,03755",
  "InstitutionName": "Dartmouth College - PBS",
  "InstitutionalDepartmentName": "Department",
  "MRAcquisitionType": "2D",
  "MagneticFieldStrength": 3,
  "Manufacturer": "Siemens",
  "ManufacturersModelName": "Prisma",
  "MatrixCoilMode": "GRAPPA",
  "Modality": "MR",
  "NonlinearGradientCorrection": false,
  "ParallelReductionFactorInPlane": 2,
  "PartialFourier": 1,
  "PatientPosition": "HFS",
  "PercentPhaseFOV": 100,
  "PercentSampling": 100,
  "PhaseEncodingDirection": "j-",
  "PhaseEncodingSteps": 79,
  "PhaseResolution": 1,
  "PixelBandwidth": 2315,
  "ProcedureStepDescription": "dbic^QA",
  "ProtocolName": "func-bold_task-rest_acq-p2",
  "PulseSequenceDetails": "%SiemensSeq%\\ep2d_bold",
  "ReceiveCoilActiveElements": "HEA;HEP",
  "ReceiveCoilName": "Head_32",
  "ReconMatrixPE": 80,
  "RefLinesPE": 24,
  "RepetitionTime": 2,
  "SAR": 0.0470698,
  "ScanOptions": "FS",
  "ScanningSequence": "EP",
  "SequenceName": "*epfid2d1_80",
  "SequenceVariant": "SK",
  "SeriesDescription": "func-bold_task-rest_acq-p2",
  "SeriesNumber": 5,
  "ShimSetting": [4220, -7729, -7502, -30, -145, -130, -19, 74],
  "SliceThickness": 3.5,
  "SliceTiming": [0.99, 0, 1.0575, 0.0675, 1.1225, 0.1325, 1.1875, 0.1975, 1.255, 0.265, 1.32, 0.33, 1.3875, 0.3975, 1.4525, 0.4625, 1.5175, 0.5275, 1.585, 0.595, 1.65, 0.66, 1.7175, 0.7275, 1.7825, 0.7925, 1.8475, 0.8575, 1.915, 0.925],
  "SoftwareVersions": "syngo MR E11",
  "SpacingBetweenSlices": 3.99,
  "StationName": "AWP66112",
  "TaskName": "rest",
  "TotalReadoutTime": 0.02054,
  "TxRefAmp": 224.842,
  "dcmmeta_affine": [
    [-2.963977336883545, -0.4472011923789978, -0.16207218170166016, 139.18406677246094],
    [-0.4630618095397949, 2.8224146366119385, 1.2040348052978516, -108.7914047241211],
    [0.020303478464484215, -0.9132283926010132, 3.800543785095215, -36.52956771850586],
    [0.0, 0.0, 0.0, 1.0]
],
  "dcmmeta_reorient_transform": [
    [0.0, -1.0, 0.0, 79.0],
    [1.0, 0.0, 0.0, 0.0],
    [0.0, 0.0, 1.0, 0.0],
    [0.0, 0.0, 0.0, 1.0]
],
  "dcmmeta_shape": [80, 80, 30, 200],
  "dcmmeta_slice_dim": 2,
  "dcmmeta_version": 0.6,
  "global": {
    "const": {
      "AccessionNumber": "qa",
      "AcquisitionMatrix": [80, 0, 0, 80],
      "AngioFlag": "N",
      "BitsAllocated": 16,
      "BitsStored": 12,
      "BodyPartExamined": "BRAIN",
      "Columns": 480,
      "EchoNumbers": 1,
      "EchoTime": 35.0,
      "EchoTrainLength": 39,
      "FlipAngle": 90.0,
      "HighBit": 11,
      "ImageOrientationPatient": [0.9879924385761, 0.15435393692143, 0.00676782633561, -0.1490670645883, 0.9408049131793, 0.30440947027435],
      "ImagePositionPatient": [-607.21039493307, -771.27466794045, -295.38098943564],
      "ImageType": [
        "ORIGINAL",
        "PRIMARY",
        "M",
        "ND",
        "NORM",
        "MOSAIC"
],
      "ImagedNucleus": "1H",
      "ImagingFrequency": 123.259129,
      "InPlanePhaseEncodingDirection": "COL",
      "MRAcquisitionType": "2D",
      "MagneticFieldStrength": 3.0,
      "Manufacturer": "SIEMENS",
      "ManufacturerModelName": "Prisma",
      "Modality": "MR",
      "NumberOfAverages": 1.0,
      "NumberOfPhaseEncodingSteps": 79,
      "PercentPhaseFieldOfView": 100.0,
      "PercentSampling": 100.0,
      "PerformedProcedureStepStartTime": "092816.527000",
      "PhotometricInterpretation": "MONOCHROME2",
      "PixelBandwidth": 2315.0,
      "PixelRepresentation": 0,
      "PixelSpacing": [3.0, 3.0],
      "ProtocolName": "func-bold_task-rest_acq-p2",
      "RepetitionTime": 2000.0,
      "Rows": 480,
      "SAR": 0.04706978567348,
      "SamplesPerPixel": 1,
      "ScanOptions": "FS",
      "ScanningSequence": "EP",
      "SequenceName": "*epfid2d1_80",
      "SequenceVariant": "SK",
      "SeriesDescription": "func-bold_task-rest_acq-p2",
      "SeriesNumber": 5,
      "SeriesTime": "095259.588000",
      "SliceLocation": -73.277876117601,
      "SliceThickness": 3.5,
      "SmallestImagePixelValue": 0,
      "SoftwareVersions": "syngo MR E11",
      "SpacingBetweenSlices": 3.9899999613224,
      "SpecificCharacterSet": "ISO_IR 100",
      "StudyID": "12",
      "StudyTime": "092816.345000",
      "TransmitCoilName": "Body",
      "VariableFlipAngleFlag": "N",
      "WindowCenterWidthExplanation": "Algo1"
    },
    "slices": {}
  },
  "time": {
    "samples": {
      "AcquisitionNumber": [1, 2, 3, 4, 5, 6, 7, 8, 9, 10, 11, 12, 13, 14, 15, 16, 17, 18, 19, 20, 21, 22, 23, 24, 25, 26, 27, 28, 29, 30, 31, 32, 33, 34, 35, 36, 37, 38, 39, 40, 41, 42, 43, 44, 45, 46, 47, 48, 49, 50, 51, 52, 53, 54, 55, 56, 57, 58, 59, 60, 61, 62, 63, 64, 65, 66, 67, 68, 69, 70, 71, 72, 73, 74, 75, 76, 77, 78, 79, 80, 81, 82, 83, 84, 85, 86, 87, 88, 89, 90, 91, 92, 93, 94, 95, 96, 97, 98, 99, 100, 101, 102, 103, 104, 105, 106, 107, 108, 109, 110, 111, 112, 113, 114, 115, 116, 117, 118, 119, 120, 121, 122, 123, 124, 125, 126, 127, 128, 129, 130, 131, 132, 133, 134, 135, 136, 137, 138, 139, 140, 141, 142, 143, 144, 145, 146, 147, 148, 149, 150, 151, 152, 153, 154, 155, 156, 157, 158, 159, 160, 161, 162, 163, 164, 165, 166, 167, 168, 169, 170, 171, 172, 173, 174, 175, 176, 177, 178, 179, 180, 181, 182, 183, 184, 185, 186, 187, 188, 189, 190, 191, 192, 193, 194, 195, 196, 197, 198, 199, 200],
      "AcquisitionTime": ["095216.730000", "095218.730000", "095220.730000", "095222.730000", "095224.730000", "095226.730000", "095228.730000", "095230.730000", "095232.730000", "095234.730000", "095236.730000", "095238.730000", "095240.730000", "095242.730000", "095244.730000", "095246.730000", "095248.730000", "095250.730000", "095252.730000", "095254.730000", "095256.730000", "095258.730000", "095300.730000", "095302.730000", "095304.730000", "095306.730000", "095308.730000", "095310.730000", "095312.730000", "095314.730000", "095316.730000", "095318.730000", "095320.730000", "095322.730000", "095324.730000", "095326.730000", "095328.730000", "095330.730000", "095332.730000", "095334.730000", "095336.730000", "095338.730000", "095340.730000", "095342.730000", "095344.730000", "095346.730000", "095348.730000", "095350.730000", "095352.730000", "095354.730000", "095356.730000", "095358.730000", "095400.730000", "095402.730000", "095404.730000", "095406.730000", "095408.730000", "095410.730000", "095412.730000", "095414.730000", "095416.730000", "095418.730000", "095420.730000", "095422.730000", "095424.730000", "095426.730000", "095428.730000", "095430.730000", "095432.730000", "095434.730000", "095436.730000", "095438.730000", "095440.730000", "095442.730000", "095444.730000", "095446.730000", "095448.730000", "095450.730000", "095452.730000", "095454.730000", "095456.730000", "095458.730000", "095500.730000", "095502.730000", "095504.730000", "095506.730000", "095508.730000", "095510.730000", "095512.730000", "095514.730000", "095516.730000", "095518.730000", "095520.730000", "095522.730000", "095524.730000", "095526.730000", "095528.730000", "095530.730000", "095532.730000", "095534.730000", "095536.730000", "095538.730000", "095540.730000", "095542.730000", "095544.730000", "095546.730000", "095548.730000", "095550.730000", "095552.730000", "095554.730000", "095556.730000", "095558.730000", "095600.730000", "095602.730000", "095604.730000", "095606.730000", "095608.730000", "095610.730000", "095612.730000", "095614.730000", "095616.730000", "095618.730000", "095620.730000", "095622.730000", "095624.730000", "095626.730000", "095628.730000", "095630.730000", "095632.730000", "095634.730000", "095636.730000", "095638.730000", "095640.730000", "095642.730000", "095644.730000", "095646.730000", "095648.730000", "095650.730000", "095652.730000", "095654.730000", "095656.730000", "095658.730000", "095700.730000", "095702.730000", "095704.730000", "095706.730000", "095708.730000", "095710.730000", "095712.730000", "095714.730000", "095716.730000", "095718.730000", "095720.730000", "095722.730000", "095724.730000", "095726.730000", "095728.730000", "095730.730000", "095732.730000", "095734.730000", "095736.730000", "095738.730000", "095740.730000", "095742.730000", "095744.730000", "095746.730000", "095748.730000", "095750.730000", "095752.730000", "095754.730000", "095756.730000", "095758.730000", "095800.730000", "095802.730000", "095804.730000", "095806.730000", "095808.730000", "095810.730000", "095812.730000", "095814.730000", "095816.730000", "095818.730000", "095820.730000", "095822.730000", "095824.730000", "095826.730000", "095828.730000", "095830.730000", "095832.730000", "095834.730000", "095836.730000", "095838.730000", "095840.730000", "095842.730000", "095844.730000", "095846.730000", "095848.730000", "095850.730000", "095852.730000", "095854.730000"],
      "ContentTime": ["095259.591000", "095259.594000", "095259.597000", "095259.599000", "095259.601000", "095259.604000", "095259.606000", "095259.609000", "095259.611000", "095259.613000", "095259.616000", "095259.618000", "095259.625000", "095259.628000", "095259.630000", "095259.638000", "095259.641000", "095259.643000", "095259.645000", "095259.648000", "095259.650000", "095339.586000", "095339.589000", "095339.591000", "095339.594000", "095339.596000", "095339.598000", "095339.601000", "095339.603000", "095339.606000", "095339.608000", "095339.610000", "095339.613000", "095339.615000", "095339.617000", "095339.620000", "095339.622000", "095339.624000", "095339.627000", "095339.629000", "095339.631000", "095359.587000", "095359.589000", "095359.592000", "095359.594000", "095359.596000", "095359.599000", "095359.601000", "095359.604000", "095359.606000", "095359.608000", "095439.586000", "095439.589000", "095439.591000", "095439.594000", "095439.596000", "095439.598000", "095439.601000", "095439.603000", "095439.605000", "095439.608000", "095439.610000", "095439.612000", "095439.615000", "095439.617000", "095439.627000", "095439.629000", "095439.632000", "095439.634000", "095439.636000", "095439.639000", "095519.586000", "095519.589000", "095519.591000", "095519.593000", "095519.596000", "095519.598000", "095519.601000", "095519.603000", "095519.605000", "095519.608000", "095519.610000", "095519.612000", "095519.614000", "095519.617000", "095519.619000", "095519.622000", "095519.624000", "095519.626000", "095519.628000", "095519.631000", "095559.586000", "095559.589000", "095559.591000", "095559.593000", "095559.596000", "095559.598000", "095559.601000", "095559.603000", "095559.605000", "095559.608000", "095559.610000", "095559.612000", "095559.615000", "095559.617000", "095559.619000", "095559.637000", "095559.640000", "095559.642000", "095559.644000", "095559.647000", "095639.586000", "095639.589000", "095639.591000", "095639.594000", "095639.596000", "095639.598000", "095639.601000", "095639.603000", "095639.605000", "095639.608000", "095639.610000", "095639.613000", "095639.615000", "095639.617000", "095639.620000", "095639.622000", "095639.624000", "095639.627000", "095639.629000", "095639.631000", "095719.586000", "095719.589000", "095719.591000", "095719.593000", "095719.596000", "095719.598000", "095719.601000", "095719.603000", "095719.605000", "095719.608000", "095719.610000", "095719.612000", "095719.615000", "095719.617000", "095719.620000", "095719.622000", "095719.624000", "095719.627000", "095719.629000", "095719.631000", "095759.587000", "095759.590000", "095759.592000", "095759.594000", "095759.597000", "095759.599000", "095759.602000", "095759.604000", "095759.606000", "095759.609000", "095759.611000", "095759.613000", "095759.616000", "095759.618000", "095759.620000", "095759.623000", "095759.625000", "095759.628000", "095759.630000", "095759.633000", "095839.587000", "095839.589000", "095839.592000", "095839.594000", "095839.596000", "095839.599000", "095839.601000", "095839.603000", "095839.606000", "095839.608000", "095839.611000", "095839.613000", "095839.615000", "095839.618000", "095839.620000", "095839.622000", "095839.625000", "095839.627000", "095839.630000", "095839.632000", "095855.979000", "095855.988000", "095855.992000", "095856.012000", "095856.016000", "095856.018000", "095856.021000", "095856.023000", "095856.026000"],
      "InstanceCreationTime": ["095259.591000", "095259.594000", "095259.597000", "095259.599000", "095259.601000", "095259.604000", "095259.606000", "095259.609000", "095259.611000", "095259.613000", "095259.616000", "095259.618000", "095259.625000", "095259.628000", "095259.630000", "095259.638000", "095259.641000", "095259.643000", "095259.645000", "095259.648000", "095259.650000", "095339.586000", "095339.589000", "095339.591000", "095339.594000", "095339.596000", "095339.598000", "095339.601000", "095339.603000", "095339.606000", "095339.608000", "095339.610000", "095339.613000", "095339.615000", "095339.617000", "095339.620000", "095339.622000", "095339.624000", "095339.627000", "095339.629000", "095339.631000", "095359.587000", "095359.589000", "095359.592000", "095359.594000", "095359.596000", "095359.599000", "095359.601000", "095359.604000", "095359.606000", "095359.608000", "095439.586000", "095439.589000", "095439.591000", "095439.594000", "095439.596000", "095439.598000", "095439.601000", "095439.603000", "095439.605000", "095439.608000", "095439.610000", "095439.612000", "095439.615000", "095439.617000", "095439.627000", "095439.629000", "095439.632000", "095439.634000", "095439.636000", "095439.639000", "095519.586000", "095519.589000", "095519.591000", "095519.593000", "095519.596000", "095519.598000", "095519.601000", "095519.603000", "095519.605000", "095519.608000", "095519.610000", "095519.612000", "095519.614000", "095519.617000", "095519.619000", "095519.622000", "095519.624000", "095519.626000", "095519.628000", "095519.631000", "095559.586000", "095559.589000", "095559.591000", "095559.593000", "095559.596000", "095559.598000", "095559.601000", "095559.603000", "095559.605000", "095559.608000", "095559.610000", "095559.612000", "095559.615000", "095559.617000", "095559.619000", "095559.637000", "095559.640000", "095559.642000", "095559.644000", "095559.647000", "095639.586000", "095639.589000", "095639.591000", "095639.594000", "095639.596000", "095639.598000", "095639.601000", "095639.603000", "095639.605000", "095639.608000", "095639.610000", "095639.613000", "095639.615000", "095639.617000", "095639.620000", "095639.622000", "095639.624000", "095639.627000", "095639.629000", "095639.631000", "095719.586000", "095719.589000", "095719.591000", "095719.593000", "095719.596000", "095719.598000", "095719.601000", "095719.603000", "095719.605000", "095719.608000", "095719.610000", "095719.612000", "095719.615000", "095719.617000", "095719.620000", "095719.622000", "095719.624000", "095719.627000", "095719.629000", "095719.631000", "095759.587000", "095759.590000", "095759.592000", "095759.594000", "095759.597000", "095759.599000", "095759.602000", "095759.604000", "095759.606000", "095759.609000", "095759.611000", "095759.613000", "095759.616000", "095759.618000", "095759.620000", "095759.623000", "095759.625000", "095759.628000", "095759.630000", "095759.633000", "095839.587000", "095839.589000", "095839.592000", "095839.594000", "095839.596000", "095839.599000", "095839.601000", "095839.603000", "095839.606000", "095839.608000", "095839.611000", "095839.613000", "095839.615000", "095839.618000", "095839.620000", "095839.622000", "095839.625000", "095839.627000", "095839.630000", "095839.632000", "095855.979000", "095855.988000", "095855.992000", "095856.012000", "095856.016000", "095856.018000", "095856.021000", "095856.023000", "095856.026000"],
      "InstanceNumber": [1, 2, 3, 4, 5, 6, 7, 8, 9, 10, 11, 12, 13, 14, 15, 16, 17, 18, 19, 20, 21, 22, 23, 24, 25, 26, 27, 28, 29, 30, 31, 32, 33, 34, 35, 36, 37, 38, 39, 40, 41, 42, 43, 44, 45, 46, 47, 48, 49, 50, 51, 52, 53, 54, 55, 56, 57, 58, 59, 60, 61, 62, 63, 64, 65, 66, 67, 68, 69, 70, 71, 72, 73, 74, 75, 76, 77, 78, 79, 80, 81, 82, 83, 84, 85, 86, 87, 88, 89, 90, 91, 92, 93, 94, 95, 96, 97, 98, 99, 100, 101, 102, 103, 104, 105, 106, 107, 108, 109, 110, 111, 112, 113, 114, 115, 116, 117, 118, 119, 120, 121, 122, 123, 124, 125, 126, 127, 128, 129, 130, 131, 132, 133, 134, 135, 136, 137, 138, 139, 140, 141, 142, 143, 144, 145, 146, 147, 148, 149, 150, 151, 152, 153, 154, 155, 156, 157, 158, 159, 160, 161, 162, 163, 164, 165, 166, 167, 168, 169, 170, 171, 172, 173, 174, 175, 176, 177, 178, 179, 180, 181, 182, 183, 184, 185, 186, 187, 188, 189, 190, 191, 192, 193, 194, 195, 196, 197, 198, 199, 200],
      "LargestImagePixelValue": [2112, 2107, 2122, 2124, 2100, 2096, 2099, 2105, 2103, 2101, 2105, 2102, 2107, 2110, 2118, 2097, 2103, 2116, 2114, 2113, 2109, 2115, 2116, 2108, 2110, 2112, 2104, 2104, 2107, 2113, 2111, 2104, 2098, 2104, 2098, 2107, 2095, 2105, 2100, 2108, 2110, 2111, 2105, 2124, 2125, 2121, 2112, 2107, 2102, 2115, 2112, 2103, 2110, 2110, 2106, 2102, 2107, 2103, 2119, 2111, 2115, 2118, 2102, 2097, 2100, 2100, 2103, 2109, 2108, 2109, 2102, 2113, 2108, 2107, 2107, 2111, 2114, 2097, 2107, 2122, 2120, 2106, 2115, 2104, 2112, 2116, 2119, 2114, 2121, 2115, 2108, 2109, 2110, 2096, 2120, 2116, 2104, 2114, 2108, 2119, 2115, 2124, 2115, 2115, 2111, 2116, 2111, 2121, 2114, 2116, 2112, 2109, 2116, 2110, 2108, 2117, 2118, 2117, 2118, 2111, 2114, 2121, 2108, 2111, 2114, 2115, 2106, 2118, 2111, 2117, 2109, 2118, 2118, 2117, 2123, 2104, 2108, 2105, 2116, 2109, 2103, 2113, 2100, 2101, 2118, 2107, 2107, 2107, 2110, 2109, 2117, 2104, 2114, 2115, 2107, 2128, 2119, 2112, 2106, 2116, 2108, 2104, 2110, 2111, 2097, 2095, 2091, 2092, 2094, 2100, 2100, 2098, 2099, 2103, 2111, 2109, 2103, 2106, 2110, 2098, 2108, 2115, 2117, 2111, 2105, 2107, 2106, 2102, 2099, 2117, 2106, 2104, 2106, 2103, 2106, 2107, 2106, 2113, 2107, 2104],
      "WindowCenter": [1009.0, 1010.0, 1010.0, 1010.0, 1010.0, 1009.0, 1009.0, 1010.0, 1010.0, 1009.0, 1010.0, 1009.0, 1009.0, 1009.0, 1009.0, 1009.0, 1009.0, 1009.0, 1009.0, 1009.0, 1010.0, 1009.0, 1009.0, 1009.0, 1009.0, 1010.0, 1010.0, 1009.0, 1009.0, 1010.0, 1009.0, 1009.0, 1009.0, 1009.0, 1009.0, 1010.0, 1009.0, 1009.0, 1009.0, 1009.0, 1009.0, 1010.0, 1009.0, 1009.0, 1009.0, 1009.0, 1009.0, 1010.0, 1010.0, 1008.0, 1009.0, 1008.0, 1008.0, 1009.0, 1009.0, 1008.0, 1008.0, 1009.0, 1009.0, 1008.0, 1009.0, 1009.0, 1008.0, 1008.0, 1009.0, 1008.0, 1009.0, 1009.0, 1009.0, 1008.0, 1009.0, 1008.0, 1009.0, 1008.0, 1008.0, 1009.0, 1008.0, 1008.0, 1008.0, 1008.0, 1008.0, 1008.0, 1008.0, 1009.0, 1008.0, 1008.0, 1009.0, 1009.0, 1008.0, 1008.0, 1009.0, 1008.0, 1009.0, 1008.0, 1009.0, 1008.0, 1008.0, 1008.0, 1009.0, 1009.0, 1009.0, 1009.0, 1009.0, 1009.0, 1009.0, 1008.0, 1008.0, 1008.0, 1008.0, 1009.0, 1008.0, 1008.0, 1008.0, 1009.0, 1009.0, 1009.0, 1008.0, 1008.0, 1010.0, 1008.0, 1009.0, 1008.0, 1009.0, 1008.0, 1008.0, 1008.0, 1008.0, 1008.0, 1008.0, 1009.0, 1008.0, 1009.0, 1009.0, 1008.0, 1008.0, 1009.0, 1008.0, 1009.0, 1009.0, 1009.0, 1009.0, 1008.0, 1008.0, 1008.0, 1008.0, 1009.0, 1008.0, 1009.0, 1008.0, 1008.0, 1008.0, 1009.0, 1008.0, 1008.0, 1008.0, 1008.0, 1008.0, 1008.0, 1008.0, 1008.0, 1008.0, 1008.0, 1008.0, 1009.0, 1008.0, 1008.0, 1008.0, 1009.0, 1008.0, 1008.0, 1008.0, 1009.0, 1008.0, 1008.0, 1008.0, 1009.0, 1008.0, 1008.0, 1009.0, 1008.0, 1008.0, 1008.0, 1009.0, 1008.0, 1009.0, 1008.0, 1008.0, 1008.0, 1008.0, 1009.0, 1008.0, 1008.0, 1009.0, 1009.0, 1009.0, 1008.0, 1008.0, 1008.0, 1009.0, 1009.0],
      "WindowWidth": [2236.0, 2236.0, 2236.0, 2236.0, 2236.0, 2235.0, 2235.0, 2236.0, 2236.0, 2235.0, 2236.0, 2235.0, 2235.0, 2235.0, 2235.0, 2235.0, 2235.0, 2235.0, 2235.0, 2235.0, 2235.0, 2235.0, 2235.0, 2234.0, 2235.0, 2235.0, 2236.0, 2235.0, 2235.0, 2235.0, 2234.0, 2234.0, 2234.0, 2234.0, 2234.0, 2235.0, 2235.0, 2235.0, 2234.0, 2234.0, 2235.0, 2235.0, 2234.0, 2235.0, 2234.0, 2235.0, 2234.0, 2235.0, 2235.0, 2234.0, 2235.0, 2234.0, 2234.0, 2234.0, 2235.0, 2234.0, 2234.0, 2234.0, 2234.0, 2234.0, 2234.0, 2234.0, 2233.0, 2234.0, 2234.0, 2234.0, 2233.0, 2234.0, 2233.0, 2234.0, 2234.0, 2233.0, 2234.0, 2233.0, 2234.0, 2234.0, 2234.0, 2233.0, 2233.0, 2234.0, 2233.0, 2234.0, 2233.0, 2234.0, 2233.0, 2234.0, 2234.0, 2234.0, 2234.0, 2233.0, 2234.0, 2233.0, 2234.0, 2233.0, 2234.0, 2233.0, 2233.0, 2233.0, 2234.0, 2234.0, 2234.0, 2234.0, 2234.0, 2234.0, 2234.0, 2233.0, 2233.0, 2233.0, 2233.0, 2234.0, 2233.0, 2233.0, 2233.0, 2234.0, 2234.0, 2234.0, 2233.0, 2233.0, 2234.0, 2233.0, 2234.0, 2233.0, 2234.0, 2233.0, 2233.0, 2233.0, 2233.0, 2233.0, 2233.0, 2233.0, 2233.0, 2233.0, 2233.0, 2233.0, 2233.0, 2234.0, 2233.0, 2233.0, 2233.0, 2233.0, 2233.0, 2233.0, 2233.0, 2233.0, 2233.0, 2233.0, 2233.0, 2233.0, 2233.0, 2233.0, 2233.0, 2233.0, 2233.0, 2233.0, 2233.0, 2233.0, 2233.0, 2233.0, 2233.0, 2232.0, 2233.0, 2233.0, 2233.0, 2233.0, 2233.0, 2232.0, 2232.0, 2233.0, 2232.0, 2232.0, 2232.0, 2233.0, 2233.0, 2232.0, 2232.0, 2233.0, 2232.0, 2232.0, 2233.0, 2232.0, 2232.0, 2232.0, 2233.0, 2232.0, 2233.0, 2232.0, 2232.0, 2232.0, 2232.0, 2233.0, 2232.0, 2232.0, 2233.0, 2233.0, 2233.0, 2232.0, 2232.0, 2232.0, 2233.0, 2233.0]
    },
    "slices": {}
  }
}