{
  "AcquisitionMatrixPE": 122,
  "AcquisitionNumber": 1,
  "AcquisitionTime": "08:48:24.072500",
  "BandwidthPerPixelPhaseEncode": 28.76,
  "BaseResolution": 122,
  "BodyPartExamined": "BRAIN",
  "CoilCombinationMethod": "Adaptive Combine",
  "ConsistencyInfo": "N4_VE11C_LATEST_20160120",
  "ConversionSoftware": "dcm2niix",
  "ConversionSoftwareVersion": "v1.0.20220720",
  "DerivedVendorReportedEchoSpacing": 0.000570008,
  "DeviceSerialNumber": "66112",
  "DiffusionScheme": "Monopolar",
  "DwellTime": 2e-06,
  "EchoTime": 0.075,
  "EchoTrainLength": 61,
  "EffectiveEchoSpacing": 0.000285004,
  "FlipAngle": 90,
  "HeudiconvVersion": "0.13.1",
  "ImageOrientationPatientDICOM": [0.988193, 0.152783, 0.0114717, -0.148921, 0.940219, 0.306287],
  "ImageOrientationText": "Tra>Cor(17.7)>Sag(-2.1)",
  "ImageType": [
    "ORIGINAL",
    "PRIMARY",
    "DIFFUSION",
    "NONE",
    "ND",
    "NORM"
],
  "ImagingFrequency": 123.253,
  "InPlanePhaseEncodingDirectionDICOM": "COL",
  "InstitutionAddress": "Maynard 3,Hanover,NH,US,03755",
  "InstitutionName": "Dartmouth College - PBS",
  "InstitutionalDepartmentName": "Department",
  "MRAcquisitionType": "2D",
  "MagneticFieldStrength": 3,
  "Manufacturer": "Siemens",
  "ManufacturersModelName": "Prisma",
  "MatrixCoilMode": "GRAPPA",
  "Modality": "MR",
  "NonlinearGradientCorrection": false,
  "ParallelReductionFactorInPlane": 2,
  "PartialFourier": 1,
  "PatientPosition": "HFS",
  "PercentPhaseFOV": 100,
  "PercentSampling": 100,
  "PhaseEncodingDirection": "j-",
  "PhaseEncodingSteps": 122,
  "PhaseResolution": 1,
  "PixelBandwidth": 2050,
  "ProcedureStepDescription": "dbic^QA",
  "ProtocolName": "dwi_acq-DTI-30-p2",
  "PulseSequenceDetails": "%SiemensSeq%\\ep2d_diff",
  "ReceiveCoilActiveElements": "HEA;HEP",
  "ReceiveCoilName": "Head_32",
  "ReconMatrixPE": 122,
  "RefLinesPE": 38,
  "RepetitionTime": 7.7,
  "SAR": 0.102029,
  "ScanOptions": "FS",
  "ScanningSequence": "EP",
  "SequenceName": "*ep_b0",
  "SequenceVariant": "SK\\SP",
  "SeriesDescription": "dwi_acq-DTI-30-p2",
  "SeriesNumber": 8,
  "ShimSetting": [4159, -7704, -7519, 267, 35, -244, -13, 104],
  "SliceThickness": 2,
  "SliceTiming": [3.83594, 0, 3.94531, 0.10938, 4.05469, 0.21875, 4.16406, 0.32812, 4.27344, 0.4375, 4.38281, 0.54688, 4.49219, 0.65625, 4.60938, 0.76562, 4.71875, 0.875, 4.82812, 0.98438, 4.92969, 1.09375, 5.04688, 1.20312, 5.15625, 1.3125, 5.26562, 1.42188, 5.375, 1.53125, 5.48438, 1.64062, 5.59375, 1.75, 5.70312, 1.85938, 5.8125, 1.97656, 5.92188, 2.07812, 6.03125, 2.1875, 6.14062, 2.29688, 6.25, 2.41406, 6.35938, 2.52344, 6.46875, 2.63281, 6.57812, 2.74219, 6.6875, 2.85156, 6.79688, 2.96094, 6.90625, 3.07031, 7.01562, 3.17969, 7.125, 3.28906, 7.23438, 3.39844, 7.35156, 3.50781, 7.46094, 3.61719, 7.57031, 3.72656],
  "SoftwareVersions": "syngo MR E11",
  "SpacingBetweenSlices": 2,
  "SpoilingState": true,
  "StationName": "AWP66112",
  "TotalReadoutTime": 0.0344855,
  "TxRefAmp": 230.651,
  "dcmmeta_affine": [
    [-1.9439867734909058, -0.2929592728614807, -0.07201886922121048, 141.21363830566406],
    [-0.3005559742450714, 1.8496102094650269, 0.6087570190429688, -108.04243469238281],
    [0.022567283362150192, -0.6025318503379822, 1.9037399291992188, -28.181915283203125],
    [0.0, 0.0, 0.0, 1.0]
],
  "dcmmeta_reorient_transform": [
    [0.0, -1.0, 0.0, 121.0],
    [1.0, 0.0, 0.0, 0.0],
    [0.0, 0.0, -1.0, 69.0],
    [0.0, 0.0, 0.0, 1.0]
],
  "dcmmeta_shape": [122, 122, 70, 31],
  "dcmmeta_slice_dim": 2,
  "dcmmeta_version": 0.6,
  "global": {
    "const": {
      "AccessionNumber": "qa",
      "AcquisitionMatrix": [122, 0, 0, 122],
      "AngioFlag": "N",
      "BitsAllocated": 16,
      "BitsStored": 12,
      "BodyPartExamined": "BRAIN",
      "Columns": 122,
      "EchoNumbers": 1,
      "EchoTime": 75.0,
      "EchoTrainLength": 61,
      "FlipAngle": 90.0,
      "HighBit": 11,
      "ImageOrientationPatient": [0.98819323537228, 0.15278262210633, 0.01147170200032, -0.1489209544791, 0.94021849096473, 0.30628701990952],
      "ImageType": [
        "ORIGINAL",
        "PRIMARY",
        "DIFFUSION",
        "NONE",
        "ND",
        "NORM"
],
      "ImagedNucleus": "1H",
      "ImagingFrequency": 123.25253,
      "InPlanePhaseEncodingDirection": "COL",
      "MRAcquisitionType": "2D",
      "MagneticFieldStrength": 3.0,
      "Manufacturer": "SIEMENS",
      "ManufacturerModelName": "Prisma",
      "Modality": "MR",
      "NumberOfAverages": 1.0,
      "NumberOfPhaseEncodingSteps": 122,
      "PercentPhaseFieldOfView": 100.0,
      "PercentSampling": 100.0,
      "PerformedProcedureStepStartTime": "082547.714000",
      "PhotometricInterpretation": "MONOCHROME2",
      "PixelBandwidth": 2050.0,
      "PixelRepresentation": 0,
      "PixelSpacing": [1.9672131538391, 1.9672131538391],
      "ProtocolName": "dwi_acq-DTI-30-p2",
      "RepetitionTime": 7700.0,
      "Rows": 122,
      "SAR": 0.10202926978969,
      "SamplesPerPixel": 1,
      "ScanOptions": "FS",
      "ScanningSequence": "EP",
      "SequenceVariant": [
        "SK",
        "SP"
],
      "SeriesDescription": "dwi_acq-DTI-30-p2",
      "SeriesNumber": 8,
      "SeriesTime": "084824.278000",
      "SliceThickness": 2.0,
      "SmallestImagePixelValue": 0,
      "SoftwareVersions": "syngo MR E11",
      "SpacingBetweenSlices": 2.0,
      "SpecificCharacterSet": "ISO_IR 100",
      "StudyID": "70",
      "StudyTime": "082547.645000",
      "TransmitCoilName": "Body",
      "VariableFlipAngleFlag": "N",
      "WindowCenterWidthExplanation": "Algo1",
      "dBdt": 0.0},
    "slices": {
      "AcquisitionTime": ["084824.072500", "084820.232500", "084824.180000", "084820.342500", "084824.290000", "084820.450000", "084824.400000", "084820.560000", "084824.510000", "084820.670000", "084824.620000", "084820.780000", "084824.730000", "084820.890000", "084824.840000", "084821.000000", "084824.950000", "084821.110000", "084825.060000", "084821.220000", "084825.167500", "084821.330000", "084825.277500", "084821.437500", "084825.387500", "084821.547500", "084825.497500", "084821.657500", "084825.607500", "084821.767500", "084825.717500", "084821.877500", "084825.827500", "084821.987500", "084825.937500", "084822.097500", "084826.047500", "084822.207500", "084826.155000", "084822.315000", "084826.265000", "084822.425000", "084826.375000", "084822.535000", "084826.485000", "084822.645000", "084826.595000", "084822.755000", "084826.705000", "084822.865000", "084826.815000", "084822.975000", "084826.925000", "084823.085000", "084827.032500", "084823.195000", "084827.142500", "084823.302500", "084827.252500", "084823.412500", "084827.362500", "084823.522500", "084827.472500", "084823.632500", "084827.582500", "084823.742500", "084827.692500", "084823.852500", "084827.802500", "084823.962500", "084831.772500", "084827.932500", "084831.880000", "084828.042500", "084831.990000", "084828.150000", "084832.100000", "084828.260000", "084832.210000", "084828.370000", "084832.320000", "084828.480000", "084832.430000", "084828.590000", "084832.540000", "084828.700000", "084832.650000", "084828.810000", "084832.760000", "084828.920000", "084832.867500", "084829.030000", "084832.977500", "084829.137500", "084833.087500", "084829.247500", "084833.197500", "084829.357500", "084833.307500", "084829.467500", "084833.417500", "084829.577500", "084833.527500", "084829.687500", "084833.637500", "084829.797500", "084833.747500", "084829.907500", "084833.855000", "084830.015000", "084833.965000", "084830.125000", "084834.075000", "084830.235000", "084834.185000", "084830.345000", "084834.295000", "084830.455000", "084834.405000", "084830.565000", "084834.515000", "084830.675000", "084834.625000", "084830.785000", "084834.732500", "084830.895000", "084834.842500", "084831.002500", "084834.952500", "084831.112500", "084835.062500", "084831.222500", "084835.172500", "084831.332500", "084835.282500", "084831.442500", "084835.392500", "084831.552500", "084835.502500", "084831.662500", "084839.472500", "084835.632500", "084839.580000", "084835.742500", "084839.690000", "084835.850000", "084839.800000", "084835.960000", "084839.910000", "084836.070000", "084840.020000", "084836.180000", "084840.130000", "084836.290000", "084840.240000", "084836.400000", "084840.350000", "084836.510000", "084840.460000", "084836.620000", "084840.567500", "084836.730000", "084840.677500", "084836.837500", "084840.787500", "084836.947500", "084840.897500", "084837.057500", "084841.007500", "084837.167500", "084841.117500", "084837.277500", "084841.227500", "084837.387500", "084841.337500", "084837.497500", "084841.447500", "084837.607500", "084841.555000", "084837.715000", "084841.665000", "084837.825000", "084841.775000", "084837.935000", "084841.885000", "084838.045000", "084841.995000", "084838.155000", "084842.105000", "084838.265000", "084842.215000", "084838.375000", "084842.325000", "084838.485000", "084842.432500", "084838.595000", "084842.542500", "084838.702500", "084842.652500", "084838.812500", "084842.762500", "084838.922500", "084842.872500", "084839.032500", "084842.982500", "084839.142500", "084843.092500", "084839.252500", "084843.202500", "084839.362500", "084847.172500", "084843.332500", "084847.280000", "084843.442500", "084847.390000", "084843.550000", "084847.500000", "084843.660000", "084847.610000", "084843.770000", "084847.720000", "084843.880000", "084847.830000", "084843.990000", "084847.940000", "084844.100000", "084848.050000", "084844.210000", "084848.160000", "084844.320000", "084848.267500", "084844.430000", "084848.377500", "084844.537500", "084848.487500", "084844.647500", "084848.597500", "084844.757500", "084848.707500", "084844.867500", "084848.817500", "084844.977500", "084848.927500", "084845.087500", "084849.037500", "084845.197500", "084849.147500", "084845.307500", "084849.255000", "084845.415000", "084849.365000", "084845.525000", "084849.475000", "084845.635000", "084849.585000", "084845.745000", "084849.695000", "084845.855000", "084849.805000", "084845.965000", "084849.915000", "084846.075000", "084850.025000", "084846.185000", "084850.132500", "084846.295000", "084850.242500", "084846.402500", "084850.352500", "084846.512500", "084850.462500", "084846.622500", "084850.572500", "084846.732500", "084850.682500", "084846.842500", "084850.792500", "084846.952500", "084850.902500", "084847.062500", "084854.872500", "084851.032500", "084854.980000", "084851.142500", "084855.090000", "084851.250000", "084855.200000", "084851.360000", "084855.310000", "084851.470000", "084855.420000", "084851.580000", "084855.530000", "084851.690000", "084855.640000", "084851.800000", "084855.750000", "084851.910000", "084855.860000", "084852.020000", "084855.967500", "084852.130000", "084856.077500", "084852.237500", "084856.187500", "084852.347500", "084856.297500", "084852.457500", "084856.407500", "084852.567500", "084856.517500", "084852.677500", "084856.627500", "084852.787500", "084856.737500", "084852.897500", "084856.847500", "084853.007500", "084856.955000", "084853.115000", "084857.065000", "084853.225000", "084857.175000", "084853.335000", "084857.285000", "084853.445000", "084857.395000", "084853.555000", "084857.505000", "084853.665000", "084857.615000", "084853.775000", "084857.725000", "084853.885000", "084857.832500", "084853.995000", "084857.942500", "084854.102500", "084858.052500", "084854.212500", "084858.162500", "084854.322500", "084858.272500", "084854.432500", "084858.382500", "084854.542500", "084858.492500", "084854.652500", "084858.602500", "084854.762500", "084902.572500", "084858.732500", "084902.680000", "084858.842500", "084902.790000", "084858.950000", "084902.900000", "084859.060000", "084903.010000", "084859.170000", "084903.120000", "084859.280000", "084903.230000", "084859.390000", "084903.340000", "084859.500000", "084903.450000", "084859.610000", "084903.560000", "084859.720000", "084903.667500", "084859.830000", "084903.777500", "084859.937500", "084903.887500", "084900.047500", "084903.997500", "084900.157500", "084904.107500", "084900.267500", "084904.217500", "084900.377500", "084904.327500", "084900.487500", "084904.437500", "084900.597500", "084904.547500", "084900.707500", "084904.655000", "084900.815000", "084904.765000", "084900.925000", "084904.875000", "084901.035000", "084904.985000", "084901.145000", "084905.095000", "084901.255000", "084905.205000", "084901.365000", "084905.315000", "084901.475000", "084905.425000", "084901.585000", "084905.532500", "084901.695000", "084905.642500", "084901.802500", "084905.752500", "084901.912500", "084905.862500", "084902.022500", "084905.972500", "084902.132500", "084906.082500", "084902.242500", "084906.192500", "084902.352500", "084906.302500", "084902.462500", "084910.272500", "084906.432500", "084910.380000", "084906.542500", "084910.490000", "084906.650000", "084910.600000", "084906.760000", "084910.710000", "084906.870000", "084910.820000", "084906.980000", "084910.930000", "084907.090000", "084911.040000", "084907.200000", "084911.150000", "084907.310000", "084911.260000", "084907.420000", "084911.367500", "084907.530000", "084911.477500", "084907.637500", "084911.587500", "084907.747500", "084911.697500", "084907.857500", "084911.807500", "084907.967500", "084911.917500", "084908.077500", "084912.027500", "084908.187500", "084912.137500", "084908.297500", "084912.247500", "084908.407500", "084912.355000", "084908.515000", "084912.465000", "084908.625000", "084912.575000", "084908.735000", "084912.685000", "084908.845000", "084912.795000", "084908.955000", "084912.905000", "084909.065000", "084913.015000", "084909.175000", "084913.125000", "084909.285000", "084913.232500", "084909.395000", "084913.342500", "084909.502500", "084913.452500", "084909.612500", "084913.562500", "084909.722500", "084913.672500", "084909.832500", "084913.782500", "084909.942500", "084913.892500", "084910.052500", "084914.002500", "084910.162500", "084917.972500", "084914.132500", "084918.080000", "084914.242500", "084918.190000", "084914.350000", "084918.300000", "084914.460000", "084918.410000", "084914.570000", "084918.520000", "084914.680000", "084918.630000", "084914.790000", "084918.740000", "084914.900000", "084918.850000", "084915.010000", "084918.960000", "084915.120000", "084919.067500", "084915.230000", "084919.177500", "084915.337500", "084919.287500", "084915.447500", "084919.397500", "084915.557500", "084919.507500", "084915.667500", "084919.617500", "084915.777500", "084919.727500", "084915.887500", "084919.837500", "084915.997500", "084919.947500", "084916.107500", "084920.055000", "084916.215000", "084920.165000", "084916.325000", "084920.275000", "084916.435000", "084920.385000", "084916.545000", "084920.495000", "084916.655000", "084920.605000", "084916.765000", "084920.715000", "084916.875000", "084920.825000", "084916.985000", "084920.932500", "084917.095000", "084921.042500", "084917.202500", "084921.152500", "084917.312500", "084921.262500", "084917.422500", "084921.372500", "084917.532500", "084921.482500", "084917.642500", "084921.592500", "084917.752500", "084921.702500", "084917.862500", "084925.672500", "084921.832500", "084925.780000", "084921.942500", "084925.890000", "084922.050000", "084926.000000", "084922.160000", "084926.110000", "084922.270000", "084926.220000", "084922.380000", "084926.330000", "084922.490000", "084926.440000", "084922.600000", "084926.550000", "084922.710000", "084926.660000", "084922.820000", "084926.767500", "084922.930000", "084926.877500", "084923.037500", "084926.987500", "084923.147500", "084927.097500", "084923.257500", "084927.207500", "084923.367500", "084927.317500", "084923.477500", "084927.427500", "084923.587500", "084927.537500", "084923.697500", "084927.647500", "084923.807500", "084927.755000", "084923.915000", "084927.865000", "084924.025000", "084927.975000", "084924.135000", "084928.085000", "084924.245000", "084928.195000", "084924.355000", "084928.305000", "084924.465000", "084928.415000", "084924.575000", "084928.525000", "084924.685000", "084928.632500", "084924.795000", "084928.742500", "084924.902500", "084928.852500", "084925.012500", "084928.962500", "084925.122500", "084929.072500", "084925.232500", "084929.182500", "084925.342500", "084929.292500", "084925.452500", "084929.402500", "084925.562500", "084933.372500", "084929.532500", "084933.480000", "084929.642500", "084933.590000", "084929.750000", "084933.700000", "084929.860000", "084933.810000", "084929.970000", "084933.920000", "084930.080000", "084934.030000", "084930.190000", "084934.140000", "084930.300000", "084934.250000", "084930.410000", "084934.360000", "084930.520000", "084934.467500", "084930.630000", "084934.577500", "084930.737500", "084934.687500", "084930.847500", "084934.797500", "084930.957500", "084934.907500", "084931.067500", "084935.017500", "084931.177500", "084935.127500", "084931.287500", "084935.237500", "084931.397500", "084935.347500", "084931.507500", "084935.455000", "084931.615000", "084935.565000", "084931.725000", "084935.675000", "084931.835000", "084935.785000", "084931.945000", "084935.895000", "084932.055000", "084936.005000", "084932.165000", "084936.115000", "084932.275000", "084936.225000", "084932.385000", "084936.332500", "084932.495000", "084936.442500", "084932.602500", "084936.552500", "084932.712500", "084936.662500", "084932.822500", "084936.772500", "084932.932500", "084936.882500", "084933.042500", "084936.992500", "084933.152500", "084937.102500", "084933.262500", "084941.072500", "084937.232500", "084941.180000", "084937.342500", "084941.290000", "084937.450000", "084941.400000", "084937.560000", "084941.510000", "084937.670000", "084941.620000", "084937.780000", "084941.730000", "084937.890000", "084941.840000", "084938.000000", "084941.950000", "084938.110000", "084942.060000", "084938.220000", "084942.167500", "084938.330000", "084942.277500", "084938.437500", "084942.387500", "084938.547500", "084942.497500", "084938.657500", "084942.607500", "084938.767500", "084942.717500", "084938.877500", "084942.827500", "084938.987500", "084942.937500", "084939.097500", "084943.047500", "084939.207500", "084943.155000", "084939.315000", "084943.265000", "084939.425000", "084943.375000", "084939.535000", "084943.485000", "084939.645000", "084943.595000", "084939.755000", "084943.705000", "084939.865000", "084943.815000", "084939.975000", "084943.925000", "084940.085000", "084944.032500", "084940.195000", "084944.142500", "084940.302500", "084944.252500", "084940.412500", "084944.362500", "084940.522500", "084944.472500", "084940.632500", "084944.582500", "084940.742500", "084944.692500", "084940.852500", "084944.802500", "084940.962500", "084948.772500", "084944.932500", "084948.880000", "084945.042500", "084948.990000", "084945.150000", "084949.100000", "084945.260000", "084949.210000", "084945.370000", "084949.320000", "084945.480000", "084949.430000", "084945.590000", "084949.540000", "084945.700000", "084949.650000", "084945.810000", "084949.760000", "084945.920000", "084949.867500", "084946.030000", "084949.977500", "084946.137500", "084950.087500", "084946.247500", "084950.197500", "084946.357500", "084950.307500", "084946.467500", "084950.417500", "084946.577500", "084950.527500", "084946.687500", "084950.637500", "084946.797500", "084950.747500", "084946.907500", "084950.855000", "084947.015000", "084950.965000", "084947.125000", "084951.075000", "084947.235000", "084951.185000", "084947.345000", "084951.295000", "084947.455000", "084951.405000", "084947.565000", "084951.515000", "084947.675000", "084951.625000", "084947.785000", "084951.732500", "084947.895000", "084951.842500", "084948.002500", "084951.952500", "084948.112500", "084952.062500", "084948.222500", "084952.172500", "084948.332500", "084952.282500", "084948.442500", "084952.392500", "084948.552500", "084952.502500", "084948.662500", "084956.472500", "084952.632500", "084956.580000", "084952.742500", "084956.690000", "084952.850000", "084956.800000", "084952.960000", "084956.910000", "084953.070000", "084957.020000", "084953.180000", "084957.130000", "084953.290000", "084957.240000", "084953.400000", "084957.350000", "084953.510000", "084957.460000", "084953.620000", "084957.567500", "084953.730000", "084957.677500", "084953.837500", "084957.787500", "084953.947500", "084957.897500", "084954.057500", "084958.007500", "084954.167500", "084958.117500", "084954.277500", "084958.227500", "084954.387500", "084958.337500", "084954.497500", "084958.447500", "084954.607500", "084958.555000", "084954.715000", "084958.665000", "084954.825000", "084958.775000", "084954.935000", "084958.885000", "084955.045000", "084958.995000", "084955.155000", "084959.105000", "084955.265000", "084959.215000", "084955.375000", "084959.325000", "084955.485000", "084959.432500", "084955.595000", "084959.542500", "084955.702500", "084959.652500", "084955.812500", "084959.762500", "084955.922500", "084959.872500", "084956.032500", "084959.982500", "084956.142500", "085000.092500", "084956.252500", "085000.202500", "084956.362500", "085004.172500", "085000.332500", "085004.280000", "085000.442500", "085004.390000", "085000.550000", "085004.500000", "085000.660000", "085004.610000", "085000.770000", "085004.720000", "085000.880000", "085004.830000", "085000.990000", "085004.940000", "085001.100000", "085005.050000", "085001.210000", "085005.160000", "085001.320000", "085005.267500", "085001.430000", "085005.377500", "085001.537500", "085005.487500", "085001.647500", "085005.597500", "085001.757500", "085005.707500", "085001.867500", "085005.817500", "085001.977500", "085005.927500", "085002.087500", "085006.037500", "085002.197500", "085006.147500", "085002.307500", "085006.255000", "085002.415000", "085006.365000", "085002.525000", "085006.475000", "085002.635000", "085006.585000", "085002.745000", "085006.695000", "085002.855000", "085006.805000", "085002.965000", "085006.915000", "085003.075000", "085007.025000", "085003.185000", "085007.132500", "085003.295000", "085007.242500", "085003.402500", "085007.352500", "085003.512500", "085007.462500", "085003.622500", "085007.572500", "085003.732500", "085007.682500", "085003.842500", "085007.792500", "085003.952500", "085007.902500", "085004.062500", "085011.872500", "085008.032500", "085011.980000", "085008.142500", "085012.090000", "085008.250000", "085012.200000", "085008.360000", "085012.310000", "085008.470000", "085012.420000", "085008.580000", "085012.530000", "085008.690000", "085012.640000", "085008.800000", "085012.750000", "085008.910000", "085012.860000", "085009.020000", "085012.967500", "085009.130000", "085013.077500", "085009.237500", "085013.187500", "085009.347500", "085013.297500", "085009.457500", "085013.407500", "085009.567500", "085013.517500", "085009.677500", "085013.627500", "085009.787500", "085013.737500", "085009.897500", "085013.847500", "085010.007500", "085013.955000", "085010.115000", "085014.065000", "085010.225000", "085014.175000", "085010.335000", "085014.285000", "085010.445000", "085014.395000", "085010.555000", "085014.505000", "085010.665000", "085014.615000", "085010.775000", "085014.725000", "085010.885000", "085014.832500", "085010.995000", "085014.942500", "085011.102500", "085015.052500", "085011.212500", "085015.162500", "085011.322500", "085015.272500", "085011.432500", "085015.382500", "085011.542500", "085015.492500", "085011.652500", "085015.602500", "085011.762500", "085019.572500", "085015.732500", "085019.680000", "085015.842500", "085019.790000", "085015.950000", "085019.900000", "085016.060000", "085020.010000", "085016.170000", "085020.120000", "085016.280000", "085020.230000", "085016.390000", "085020.340000", "085016.500000", "085020.450000", "085016.610000", "085020.560000", "085016.720000", "085020.667500", "085016.830000", "085020.777500", "085016.937500", "085020.887500", "085017.047500", "085020.997500", "085017.157500", "085021.107500", "085017.267500", "085021.217500", "085017.377500", "085021.327500", "085017.487500", "085021.437500", "085017.597500", "085021.547500", "085017.707500", "085021.655000", "085017.815000", "085021.765000", "085017.925000", "085021.875000", "085018.035000", "085021.985000", "085018.145000", "085022.095000", "085018.255000", "085022.205000", "085018.365000", "085022.315000", "085018.475000", "085022.425000", "085018.585000", "085022.532500", "085018.695000", "085022.642500", "085018.802500", "085022.752500", "085018.912500", "085022.862500", "085019.022500", "085022.972500", "085019.132500", "085023.082500", "085019.242500", "085023.192500", "085019.352500", "085023.302500", "085019.462500", "085027.272500", "085023.432500", "085027.380000", "085023.542500", "085027.490000", "085023.650000", "085027.600000", "085023.760000", "085027.710000", "085023.870000", "085027.820000", "085023.980000", "085027.930000", "085024.090000", "085028.040000", "085024.200000", "085028.150000", "085024.310000", "085028.260000", "085024.420000", "085028.367500", "085024.530000", "085028.477500", "085024.637500", "085028.587500", "085024.747500", "085028.697500", "085024.857500", "085028.807500", "085024.967500", "085028.917500", "085025.077500", "085029.027500", "085025.187500", "085029.137500", "085025.297500", "085029.247500", "085025.407500", "085029.355000", "085025.515000", "085029.465000", "085025.625000", "085029.575000", "085025.735000", "085029.685000", "085025.845000", "085029.795000", "085025.955000", "085029.905000", "085026.065000", "085030.015000", "085026.175000", "085030.125000", "085026.285000", "085030.232500", "085026.395000", "085030.342500", "085026.502500", "085030.452500", "085026.612500", "085030.562500", "085026.722500", "085030.672500", "085026.832500", "085030.782500", "085026.942500", "085030.892500", "085027.052500", "085031.002500", "085027.162500", "085034.972500", "085031.132500", "085035.080000", "085031.242500", "085035.190000", "085031.350000", "085035.300000", "085031.460000", "085035.410000", "085031.570000", "085035.520000", "085031.680000", "085035.630000", "085031.790000", "085035.740000", "085031.900000", "085035.850000", "085032.010000", "085035.960000", "085032.120000", "085036.067500", "085032.230000", "085036.177500", "085032.337500", "085036.287500", "085032.447500", "085036.397500", "085032.557500", "085036.507500", "085032.667500", "085036.617500", "085032.777500", "085036.727500", "085032.887500", "085036.837500", "085032.997500", "085036.947500", "085033.107500", "085037.055000", "085033.215000", "085037.165000", "085033.325000", "085037.275000", "085033.435000", "085037.385000", "085033.545000", "085037.495000", "085033.655000", "085037.605000", "085033.765000", "085037.715000", "085033.875000", "085037.825000", "085033.985000", "085037.932500", "085034.095000", "085038.042500", "085034.202500", "085038.152500", "085034.312500", "085038.262500", "085034.422500", "085038.372500", "085034.532500", "085038.482500", "085034.642500", "085038.592500", "085034.752500", "085038.702500", "085034.862500", "085042.672500", "085038.832500", "085042.780000", "085038.942500", "085042.890000", "085039.050000", "085043.000000", "085039.160000", "085043.110000", "085039.270000", "085043.220000", "085039.380000", "085043.330000", "085039.490000", "085043.440000", "085039.600000", "085043.550000", "085039.710000", "085043.660000", "085039.820000", "085043.767500", "085039.930000", "085043.877500", "085040.037500", "085043.987500", "085040.147500", "085044.097500", "085040.257500", "085044.207500", "085040.367500", "085044.317500", "085040.477500", "085044.427500", "085040.587500", "085044.537500", "085040.697500", "085044.647500", "085040.807500", "085044.755000", "085040.915000", "085044.865000", "085041.025000", "085044.975000", "085041.135000", "085045.085000", "085041.245000", "085045.195000", "085041.355000", "085045.305000", "085041.465000", "085045.415000", "085041.575000", "085045.525000", "085041.685000", "085045.632500", "085041.795000", "085045.742500", "085041.902500", "085045.852500", "085042.012500", "085045.962500", "085042.122500", "085046.072500", "085042.232500", "085046.182500", "085042.342500", "085046.292500", "085042.452500", "085046.402500", "085042.562500", "085050.372500", "085046.532500", "085050.480000", "085046.642500", "085050.590000", "085046.750000", "085050.700000", "085046.860000", "085050.810000", "085046.970000", "085050.920000", "085047.080000", "085051.030000", "085047.190000", "085051.140000", "085047.300000", "085051.250000", "085047.410000", "085051.360000", "085047.520000", "085051.467500", "085047.630000", "085051.577500", "085047.737500", "085051.687500", "085047.847500", "085051.797500", "085047.957500", "085051.907500", "085048.067500", "085052.017500", "085048.177500", "085052.127500", "085048.287500", "085052.237500", "085048.397500", "085052.347500", "085048.507500", "085052.455000", "085048.615000", "085052.565000", "085048.725000", "085052.675000", "085048.835000", "085052.785000", "085048.945000", "085052.895000", "085049.055000", "085053.005000", "085049.165000", "085053.115000", "085049.275000", "085053.225000", "085049.385000", "085053.332500", "085049.495000", "085053.442500", "085049.602500", "085053.552500", "085049.712500", "085053.662500", "085049.822500", "085053.772500", "085049.932500", "085053.882500", "085050.042500", "085053.992500", "085050.152500", "085054.102500", "085050.262500", "085058.072500", "085054.232500", "085058.180000", "085054.342500", "085058.290000", "085054.450000", "085058.400000", "085054.560000", "085058.510000", "085054.670000", "085058.620000", "085054.780000", "085058.730000", "085054.890000", "085058.840000", "085055.000000", "085058.950000", "085055.110000", "085059.060000", "085055.220000", "085059.167500", "085055.330000", "085059.277500", "085055.437500", "085059.387500", "085055.547500", "085059.497500", "085055.657500", "085059.607500", "085055.767500", "085059.717500", "085055.877500", "085059.827500", "085055.987500", "085059.937500",