{
  "AcquisitionMatrixPE": 122,
  "AcquisitionNumber": 1,
  "AcquisitionTime": "08:52:46.457500",
  "BandwidthPerPixelPhaseEncode": 27.785,
  "BaseResolution": 122,
  "BodyPartExamined": "BRAIN",
  "CoilCombinationMethod": "Adaptive Combine",
  "ConsistencyInfo": "N4_VE11C_LATEST_20160120",
  "ConversionSoftware": "dcm2niix",
  "ConversionSoftwareVersion": "v1.0.20220720",
  "DerivedVendorReportedEchoSpacing": 0.000590011,
  "DeviceSerialNumber": "66112",
  "DiffusionScheme": "Monopolar",
  "DwellTime": 2e-06,
  "EchoTime": 0.068,
  "EchoTrainLength": 61,
  "EffectiveEchoSpacing": 0.000295005,
  "FlipAngle": 90,
  "HeudiconvVersion": "0.13.1",
  "ImageOrientationPatientDICOM": [0.988193, 0.152783, 0.0114717, -0.148921, 0.940219, 0.306287],
  "ImageOrientationText": "Tra>Cor(17.7)>Sag(-2.1)",
  "ImageType": [
    "ORIGINAL",
    "PRIMARY",
    "DIFFUSION",
    "NONE",
    "ND",
    "NORM"
],
  "ImagingFrequency": 123.253,
  "InPlanePhaseEncodingDirectionDICOM": "COL",
  "InstitutionAddress": "Maynard 3,Hanover,NH,US,03755",
  "InstitutionName": "Dartmouth College - PBS",
  "InstitutionalDepartmentName": "Department",
  "MRAcquisitionType": "2D",
  "MagneticFieldStrength": 3,
  "Manufacturer": "Siemens",
  "ManufacturersModelName": "Prisma",
  "Modality": "MR",
  "MultibandAccelerationFactor": 4,
  "NonlinearGradientCorrection": false,
  "ParallelReductionFactorInPlane": 2,
  "PartialFourier": 1,
  "PatientPosition": "HFS",
  "PercentPhaseFOV": 100,
  "PercentSampling": 100,
  "PhaseEncodingDirection": "j-",
  "PhaseEncodingSteps": 122,
  "PhaseResolution": 1,
  "PixelBandwidth": 2050,
  "ProcedureStepDescription": "dbic^QA",
  "ProtocolName": "dwi_acq-DTI-30-p2-s4",
  "PulseSequenceDetails": "%SiemensSeq%\\ep2d_diff",
  "ReceiveCoilActiveElements": "HEA;HEP",
  "ReceiveCoilName": "Head_32",
  "ReconMatrixPE": 122,
  "RefLinesPE": 38,
  "RepetitionTime": 3.6,
  "SAR": 0.161744,
  "ScanOptions": "FS",
  "ScanningSequence": "EP",
  "SequenceName": "*ep_b0",
  "SequenceVariant": "SK\\SP",
  "SeriesDescription": "dwi_acq-DTI-30-p2-s4",
  "SeriesNumber": 9,
  "ShimSetting": [4159, -7705, -7519, 269, 36, -246, -12, 103],
  "SliceThickness": 2,
  "SliceTiming": [2.59375, 0, 1.78906, 0.20312, 1.99219, 0.40625, 2.19531, 0.60156, 2.39062, 1, 2.78906, 1.19531, 2.98438, 1.39844, 3.1875, 1.59375, 3.38281, 0.79688, 2.59375, 0, 1.78906, 0.20312, 1.99219, 0.40625, 2.19531, 0.60156, 2.39062, 1, 2.78906, 1.19531, 2.98438, 1.39844, 3.1875, 1.59375, 3.38281, 0.79688, 2.59375, 0, 1.78906, 0.20312, 1.99219, 0.40625, 2.19531, 0.60156, 2.39062, 1, 2.78906, 1.19531, 2.98438, 1.39844, 3.1875, 1.59375, 3.38281, 0.79688, 2.59375, 0, 1.78906, 0.20312, 1.99219, 0.40625, 2.19531, 0.60156, 2.39062, 1, 2.78906, 1.19531, 2.98438, 1.39844, 3.1875, 1.59375, 3.38281, 0.79688],
  "SoftwareVersions": "syngo MR E11",
  "SpacingBetweenSlices": 2,
  "SpoilingState": true,
  "StationName": "AWP66112",
  "TotalReadoutTime": 0.0356956,
  "TxRefAmp": 230.651,
  "dcmmeta_affine": [
    [-1.9439867734909058, -0.2929592728614807, -0.07201887667179108, 141.28565979003906],
    [-0.3005559742450714, 1.8496102094650269, 0.6087589263916016, -108.65132141113281],
    [0.022567283362150192, -0.6025318503379822, 1.9037399291992188, -30.085655212402344],
    [0.0, 0.0, 0.0, 1.0]
],
  "dcmmeta_reorient_transform": [
    [0.0, -1.0, 0.0, 121.0],
    [1.0, 0.0, 0.0, 0.0],
    [0.0, 0.0, -1.0, 71.0],
    [0.0, 0.0, 0.0, 1.0]
],
  "dcmmeta_shape": [122, 122, 72, 31],
  "dcmmeta_slice_dim": 2,
  "dcmmeta_version": 0.6,
  "global": {
    "const": {
      "AccessionNumber": "qa",
      "AcquisitionMatrix": [122, 0, 0, 122],
      "AngioFlag": "N",
      "BitsAllocated": 16,
      "BitsStored": 12,
      "BodyPartExamined": "BRAIN",
      "Columns": 122,
      "EchoNumbers": 1,
      "EchoTime": 68.0,
      "EchoTrainLength": 61,
      "FlipAngle": 90.0,
      "HighBit": 11,
      "ImageOrientationPatient": [0.98819323537228, 0.15278262210633, 0.01147170200032, -0.1489209544791, 0.94021849096473, 0.30628701990952],
      "ImageType": [
        "ORIGINAL",
        "PRIMARY",
        "DIFFUSION",
        "NONE",
        "ND",
        "NORM"
],
      "ImagedNucleus": "1H",
      "ImagingFrequency": 123.252529,
      "InPlanePhaseEncodingDirection": "COL",
      "MRAcquisitionType": "2D",
      "MagneticFieldStrength": 3.0,
      "Manufacturer": "SIEMENS",
      "ManufacturerModelName": "Prisma",
      "Modality": "MR",
      "NumberOfAverages": 1.0,
      "NumberOfPhaseEncodingSteps": 122,
      "PercentPhaseFieldOfView": 100.0,
      "PercentSampling": 100.0,
      "PerformedProcedureStepStartTime": "082547.714000",
      "PhotometricInterpretation": "MONOCHROME2",
      "PixelBandwidth": 2050.0,
      "PixelRepresentation": 0,
      "PixelSpacing": [1.9672131538391, 1.9672131538391],
      "ProtocolName": "dwi_acq-DTI-30-p2-s4",
      "RepetitionTime": 3600.0,
      "Rows": 122,
      "SAR": 0.16174364132627,
      "SamplesPerPixel": 1,
      "ScanOptions": "FS",
      "ScanningSequence": "EP",
      "SequenceVariant": [
        "SK",
        "SP"
],
      "SeriesDescription": "dwi_acq-DTI-30-p2-s4",
      "SeriesNumber": 9,
      "SeriesTime": "085255.371000",
      "SliceThickness": 2.0,
      "SmallestImagePixelValue": 0,
      "SoftwareVersions": "syngo MR E11",
      "SpacingBetweenSlices": 2.0,
      "SpecificCharacterSet": "ISO_IR 100",
      "StudyID": "70",
      "StudyTime": "082547.645000",
      "TransmitCoilName": "Body",
      "VariableFlipAngleFlag": "N",
      "WindowCenterWidthExplanation": "Algo1",
      "dBdt": 0.0},
    "slices": {
      "AcquisitionTime": ["085246.457500", "085243.870000", "085245.660000", "085244.070000", "085245.860000", "085244.270000", "085246.060000", "085244.467500", "085246.257500", "085244.865000", "085246.655000", "085245.065000", "085246.855000", "085245.262500", "085247.052500", "085245.462500", "085247.252500", "085244.667500", "085246.457500", "085243.870000", "085245.660000", "085244.070000", "085245.860000", "085244.270000", "085246.060000", "085244.467500", "085246.257500", "085244.865000", "085246.655000", "085245.065000", "085246.855000", "085245.262500", "085247.052500", "085245.462500", "085247.252500", "085244.667500", "085246.457500", "085243.870000", "085245.660000", "085244.070000", "085245.860000", "085244.270000", "085246.060000", "085244.467500", "085246.257500", "085244.865000", "085246.655000", "085245.065000", "085246.855000", "085245.262500", "085247.052500", "085245.462500", "085247.252500", "085244.667500", "085246.457500", "085243.870000", "085245.660000", "085244.070000", "085245.860000", "085244.270000", "085246.060000", "085244.467500", "085246.257500", "085244.865000", "085246.655000", "085245.065000", "085246.855000", "085245.262500", "085247.052500", "085245.462500", "085247.252500", "085244.667500", "085250.057500", "085247.470000", "085249.260000", "085247.670000", "085249.460000", "085247.870000", "085249.660000", "085248.067500", "085249.857500", "085248.465000", "085250.255000", "085248.665000", "085250.455000", "085248.862500", "085250.652500", "085249.062500", "085250.852500", "085248.267500", "085250.057500", "085247.470000", "085249.260000", "085247.670000", "085249.460000", "085247.870000", "085249.660000", "085248.067500", "085249.857500", "085248.465000", "085250.255000", "085248.665000", "085250.455000", "085248.862500", "085250.652500", "085249.062500", "085250.852500", "085248.267500", "085250.057500", "085247.470000", "085249.260000", "085247.670000", "085249.460000", "085247.870000", "085249.660000", "085248.067500", "085249.857500", "085248.465000", "085250.255000", "085248.665000", "085250.455000", "085248.862500", "085250.652500", "085249.062500", "085250.852500", "085248.267500", "085250.057500", "085247.470000", "085249.260000", "085247.670000", "085249.460000", "085247.870000", "085249.660000", "085248.067500", "085249.857500", "085248.465000", "085250.255000", "085248.665000", "085250.455000", "085248.862500", "085250.652500", "085249.062500", "085250.852500", "085248.267500", "085253.657500", "085251.070000", "085252.860000", "085251.270000", "085253.060000", "085251.470000", "085253.260000", "085251.667500", "085253.457500", "085252.065000", "085253.855000", "085252.265000", "085254.055000", "085252.462500", "085254.252500", "085252.662500", "085254.452500", "085251.867500", "085253.657500", "085251.070000", "085252.860000", "085251.270000", "085253.060000", "085251.470000", "085253.260000", "085251.667500", "085253.457500", "085252.065000", "085253.855000", "085252.265000", "085254.055000", "085252.462500", "085254.252500", "085252.662500", "085254.452500", "085251.867500", "085253.657500", "085251.070000", "085252.860000", "085251.270000", "085253.060000", "085251.470000", "085253.260000", "085251.667500", "085253.457500", "085252.065000", "085253.855000", "085252.265000", "085254.055000", "085252.462500", "085254.252500", "085252.662500", "085254.452500", "085251.867500", "085253.657500", "085251.070000", "085252.860000", "085251.270000", "085253.060000", "085251.470000", "085253.260000", "085251.667500", "085253.457500", "085252.065000", "085253.855000", "085252.265000", "085254.055000", "085252.462500", "085254.252500", "085252.662500", "085254.452500", "085251.867500", "085257.257500", "085254.670000", "085256.460000", "085254.870000", "085256.660000", "085255.070000", "085256.860000", "085255.267500", "085257.057500", "085255.665000", "085257.455000", "085255.865000", "085257.655000", "085256.062500", "085257.852500", "085256.262500", "085258.052500", "085255.467500", "085257.257500", "085254.670000", "085256.460000", "085254.870000", "085256.660000", "085255.070000", "085256.860000", "085255.267500", "085257.057500", "085255.665000", "085257.455000", "085255.865000", "085257.655000", "085256.062500", "085257.852500", "085256.262500", "085258.052500", "085255.467500", "085257.257500", "085254.670000", "085256.460000", "085254.870000", "085256.660000", "085255.070000", "085256.860000", "085255.267500", "085257.057500", "085255.665000", "085257.455000", "085255.865000", "085257.655000", "085256.062500", "085257.852500", "085256.262500", "085258.052500", "085255.467500", "085257.257500", "085254.670000", "085256.460000", "085254.870000", "085256.660000", "085255.070000", "085256.860000", "085255.267500", "085257.057500", "085255.665000", "085257.455000", "085255.865000", "085257.655000", "085256.062500", "085257.852500", "085256.262500", "085258.052500", "085255.467500", "085300.857500", "085258.270000", "085300.060000", "085258.470000", "085300.260000", "085258.670000", "085300.460000", "085258.867500", "085300.657500", "085259.265000", "085301.055000", "085259.465000", "085301.255000", "085259.662500", "085301.452500", "085259.862500", "085301.652500", "085259.067500", "085300.857500", "085258.270000", "085300.060000", "085258.470000", "085300.260000", "085258.670000", "085300.460000", "085258.867500", "085300.657500", "085259.265000", "085301.055000", "085259.465000", "085301.255000", "085259.662500", "085301.452500", "085259.862500", "085301.652500", "085259.067500", "085300.857500", "085258.270000", "085300.060000", "085258.470000", "085300.260000", "085258.670000", "085300.460000", "085258.867500", "085300.657500", "085259.265000", "085301.055000", "085259.465000", "085301.255000", "085259.662500", "085301.452500", "085259.862500", "085301.652500", "085259.067500", "085300.857500", "085258.270000", "085300.060000", "085258.470000", "085300.260000", "085258.670000", "085300.460000", "085258.867500", "085300.657500", "085259.265000", "085301.055000", "085259.465000", "085301.255000", "085259.662500", "085301.452500", "085259.862500", "085301.652500", "085259.067500", "085304.457500", "085301.870000", "085303.660000", "085302.070000", "085303.860000", "085302.270000", "085304.060000", "085302.467500", "085304.257500", "085302.865000", "085304.655000", "085303.065000", "085304.855000", "085303.262500", "085305.052500", "085303.462500", "085305.252500", "085302.667500", "085304.457500", "085301.870000", "085303.660000", "085302.070000", "085303.860000", "085302.270000", "085304.060000", "085302.467500", "085304.257500", "085302.865000", "085304.655000", "085303.065000", "085304.855000", "085303.262500", "085305.052500", "085303.462500", "085305.252500", "085302.667500", "085304.457500", "085301.870000", "085303.660000", "085302.070000", "085303.860000", "085302.270000", "085304.060000", "085302.467500", "085304.257500", "085302.865000", "085304.655000", "085303.065000", "085304.855000", "085303.262500", "085305.052500", "085303.462500", "085305.252500", "085302.667500", "085304.457500", "085301.870000", "085303.660000", "085302.070000", "085303.860000", "085302.270000", "085304.060000", "085302.467500", "085304.257500", "085302.865000", "085304.655000", "085303.065000", "085304.855000", "085303.262500", "085305.052500", "085303.462500", "085305.252500", "085302.667500", "085308.057500", "085305.470000", "085307.260000", "085305.670000", "085307.460000", "085305.870000", "085307.660000", "085306.067500", "085307.857500", "085306.465000", "085308.255000", "085306.665000", "085308.455000", "085306.862500", "085308.652500", "085307.062500", "085308.852500", "085306.267500", "085308.057500", "085305.470000", "085307.260000", "085305.670000", "085307.460000", "085305.870000", "085307.660000", "085306.067500", "085307.857500", "085306.465000", "085308.255000", "085306.665000", "085308.455000", "085306.862500", "085308.652500", "085307.062500", "085308.852500", "085306.267500", "085308.057500", "085305.470000", "085307.260000", "085305.670000", "085307.460000", "085305.870000", "085307.660000", "085306.067500", "085307.857500", "085306.465000", "085308.255000", "085306.665000", "085308.455000", "085306.862500", "085308.652500", "085307.062500", "085308.852500", "085306.267500", "085308.057500", "085305.470000", "085307.260000", "085305.670000", "085307.460000", "085305.870000", "085307.660000", "085306.067500", "085307.857500", "085306.465000", "085308.255000", "085306.665000", "085308.455000", "085306.862500", "085308.652500", "085307.062500", "085308.852500", "085306.267500", "085311.657500", "085309.070000", "085310.860000", "085309.270000", "085311.060000", "085309.470000", "085311.260000", "085309.667500", "085311.457500", "085310.065000", "085311.855000", "085310.265000", "085312.055000", "085310.462500", "085312.252500", "085310.662500", "085312.452500", "085309.867500", "085311.657500", "085309.070000", "085310.860000", "085309.270000", "085311.060000", "085309.470000", "085311.260000", "085309.667500", "085311.457500", "085310.065000", "085311.855000", "085310.265000", "085312.055000", "085310.462500", "085312.252500", "085310.662500", "085312.452500", "085309.867500", "085311.657500", "085309.070000", "085310.860000", "085309.270000", "085311.060000", "085309.470000", "085311.260000", "085309.667500", "085311.457500", "085310.065000", "085311.855000", "085310.265000", "085312.055000", "085310.462500", "085312.252500", "085310.662500", "085312.452500", "085309.867500", "085311.657500", "085309.070000", "085310.860000", "085309.270000", "085311.060000", "085309.470000", "085311.260000", "085309.667500", "085311.457500", "085310.065000", "085311.855000", "085310.265000", "085312.055000", "085310.462500", "085312.252500", "085310.662500", "085312.452500", "085309.867500", "085315.257500", "085312.670000", "085314.460000", "085312.870000", "085314.660000", "085313.070000", "085314.860000", "085313.267500", "085315.057500", "085313.665000", "085315.455000", "085313.865000", "085315.655000", "085314.062500", "085315.852500", "085314.262500", "085316.052500", "085313.467500", "085315.257500", "085312.670000", "085314.460000", "085312.870000", "085314.660000", "085313.070000", "085314.860000", "085313.267500", "085315.057500", "085313.665000", "085315.455000", "085313.865000", "085315.655000", "085314.062500", "085315.852500", "085314.262500", "085316.052500", "085313.467500", "085315.257500", "085312.670000", "085314.460000", "085312.870000", "085314.660000", "085313.070000", "085314.860000", "085313.267500", "085315.057500", "085313.665000", "085315.455000", "085313.865000", "085315.655000", "085314.062500", "085315.852500", "085314.262500", "085316.052500", "085313.467500", "085315.257500", "085312.670000", "085314.460000", "085312.870000", "085314.660000", "085313.070000", "085314.860000", "085313.267500", "085315.057500", "085313.665000", "085315.455000", "085313.865000", "085315.655000", "085314.062500", "085315.852500", "085314.262500", "085316.052500", "085313.467500", "085318.857500", "085316.270000", "085318.060000", "085316.470000", "085318.260000", "085316.670000", "085318.460000", "085316.867500", "085318.657500", "085317.265000", "085319.055000", "085317.465000", "085319.255000", "085317.662500", "085319.452500", "085317.862500", "085319.652500", "085317.067500", "085318.857500", "085316.270000", "085318.060000", "085316.470000", "085318.260000", "085316.670000", "085318.460000", "085316.867500", "085318.657500", "085317.265000", "085319.055000", "085317.465000", "085319.255000", "085317.662500", "085319.452500", "085317.862500", "085319.652500", "085317.067500", "085318.857500", "085316.270000", "085318.060000", "085316.470000", "085318.260000", "085316.670000", "085318.460000", "085316.867500", "085318.657500", "085317.265000", "085319.055000", "085317.465000", "085319.255000", "085317.662500", "085319.452500", "085317.862500", "085319.652500", "085317.067500", "085318.857500", "085316.270000", "085318.060000", "085316.470000", "085318.260000", "085316.670000", "085318.460000", "085316.867500", "085318.657500", "085317.265000", "085319.055000", "085317.465000", "085319.255000", "085317.662500", "085319.452500", "085317.862500", "085319.652500", "085317.067500", "085322.457500", "085319.870000", "085321.660000", "085320.070000", "085321.860000", "085320.270000", "085322.060000", "085320.467500", "085322.257500", "085320.865000", "085322.655000", "085321.065000", "085322.855000", "085321.262500", "085323.052500", "085321.462500", "085323.252500", "085320.667500", "085322.457500", "085319.870000", "085321.660000", "085320.070000", "085321.860000", "085320.270000", "085322.060000", "085320.467500", "085322.257500", "085320.865000", "085322.655000", "085321.065000", "085322.855000", "085321.262500", "085323.052500", "085321.462500", "085323.252500", "085320.667500", "085322.457500", "085319.870000", "085321.660000", "085320.070000", "085321.860000", "085320.270000", "085322.060000", "085320.467500", "085322.257500", "085320.865000", "085322.655000", "085321.065000", "085322.855000", "085321.262500", "085323.052500", "085321.462500", "085323.252500", "085320.667500", "085322.457500", "085319.870000", "085321.660000", "085320.070000", "085321.860000", "085320.270000", "085322.060000", "085320.467500", "085322.257500", "085320.865000", "085322.655000", "085321.065000", "085322.855000", "085321.262500", "085323.052500", "085321.462500", "085323.252500", "085320.667500", "085326.057500", "085323.470000", "085325.260000", "085323.670000", "085325.460000", "085323.870000", "085325.660000", "085324.067500", "085325.857500", "085324.465000", "085326.255000", "085324.665000", "085326.455000", "085324.862500", "085326.652500", "085325.062500", "085326.852500", "085324.267500", "085326.057500", "085323.470000", "085325.260000", "085323.670000", "085325.460000", "085323.870000", "085325.660000", "085324.067500", "085325.857500", "085324.465000", "085326.255000", "085324.665000", "085326.455000", "085324.862500", "085326.652500", "085325.062500", "085326.852500", "085324.267500", "085326.057500", "085323.470000", "085325.260000", "085323.670000", "085325.460000", "085323.870000", "085325.660000", "085324.067500", "085325.857500", "085324.465000", "085326.255000", "085324.665000", "085326.455000", "085324.862500", "085326.652500", "085325.062500", "085326.852500", "085324.267500", "085326.057500", "085323.470000", "085325.260000", "085323.670000", "085325.460000", "085323.870000", "085325.660000", "085324.067500", "085325.857500", "085324.465000", "085326.255000", "085324.665000", "085326.455000", "085324.862500", "085326.652500", "085325.062500", "085326.852500", "085324.267500", "085329.657500", "085327.070000", "085328.860000", "085327.270000", "085329.060000", "085327.470000", "085329.260000", "085327.667500", "085329.457500", "085328.065000", "085329.855000", "085328.265000", "085330.055000", "085328.462500", "085330.252500", "085328.662500", "085330.452500", "085327.867500", "085329.657500", "085327.070000", "085328.860000", "085327.270000", "085329.060000", "085327.470000", "085329.260000", "085327.667500", "085329.457500", "085328.065000", "085329.855000", "085328.265000", "085330.055000", "085328.462500", "085330.252500", "085328.662500", "085330.452500", "085327.867500", "085329.657500", "085327.070000", "085328.860000", "085327.270000", "085329.060000", "085327.470000", "085329.260000", "085327.667500", "085329.457500", "085328.065000", "085329.855000", "085328.265000", "085330.055000", "085328.462500", "085330.252500", "085328.662500", "085330.452500", "085327.867500", "085329.657500", "085327.070000", "085328.860000", "085327.270000", "085329.060000", "085327.470000", "085329.260000", "085327.667500", "085329.457500", "085328.065000", "085329.855000", "085328.265000", "085330.055000", "085328.462500", "085330.252500", "085328.662500", "085330.452500", "085327.867500", "085333.257500", "085330.670000", "085332.460000", "085330.870000", "085332.660000", "085331.070000", "085332.860000", "085331.267500", "085333.057500", "085331.665000", "085333.455000", "085331.865000", "085333.655000", "085332.062500", "085333.852500", "085332.262500", "085334.052500", "085331.467500", "085333.257500", "085330.670000", "085332.460000", "085330.870000", "085332.660000", "085331.070000", "085332.860000", "085331.267500", "085333.057500", "085331.665000", "085333.455000", "085331.865000", "085333.655000", "085332.062500", "085333.852500", "085332.262500", "085334.052500", "085331.467500", "085333.257500", "085330.670000", "085332.460000", "085330.870000", "085332.660000", "085331.070000", "085332.860000", "085331.267500", "085333.057500", "085331.665000", "085333.455000", "085331.865000", "085333.655000", "085332.062500", "085333.852500", "085332.262500", "085334.052500", "085331.467500", "085333.257500", "085330.670000", "085332.460000", "085330.870000", "085332.660000", "085331.070000", "085332.860000", "085331.267500", "085333.057500", "085331.665000", "085333.455000", "085331.865000", "085333.655000", "085332.062500", "085333.852500", "085332.262500", "085334.052500", "085331.467500", "085336.857500", "085334.270000", "085336.060000", "085334.470000", "085336.260000", "085334.670000", "085336.460000", "085334.867500", "085336.657500", "085335.265000", "085337.055000", "085335.465000", "085337.255000", "085335.662500", "085337.452500", "085335.862500", "085337.652500", "085335.067500", "085336.857500", "085334.270000", "085336.060000", "085334.470000", "085336.260000", "085334.670000", "085336.460000", "085334.867500", "085336.657500", "085335.265000", "085337.055000", "085335.465000", "085337.255000", "085335.662500", "085337.452500", "085335.862500", "085337.652500", "085335.067500", "085336.857500", "085334.270000", "085336.060000", "085334.470000", "085336.260000", "085334.670000", "085336.460000", "085334.867500", "085336.657500", "085335.265000", "085337.055000", "085335.465000", "085337.255000", "085335.662500", "085337.452500", "085335.862500", "085337.652500", "085335.067500", "085336.857500", "085334.270000", "085336.060000", "085334.470000", "085336.260000", "085334.670000", "085336.460000", "085334.867500", "085336.657500", "085335.265000", "085337.055000", "085335.465000", "085337.255000", "085335.662500", "085337.452500", "085335.862500", "085337.652500", "085335.067500", "085340.457500", "085337.870000", "085339.660000", "085338.070000", "085339.860000", "085338.270000", "085340.060000", "085338.467500", "085340.257500", "085338.865000", "085340.655000", "085339.065000", "085340.855000", "085339.262500", "085341.052500", "085339.462500", "085341.252500", "085338.667500", "085340.457500", "085337.870000", "085339.660000", "085338.070000", "085339.860000", "085338.270000", "085340.060000", "085338.467500", "085340.257500", "085338.865000", "085340.655000", "085339.065000", "085340.855000", "085339.262500", "085341.052500", "085339.462500", "085341.252500", "085338.667500", "085340.457500", "085337.870000", "085339.660000", "085338.070000", "085339.860000", "085338.270000", "085340.060000", "085338.467500", "085340.257500", "085338.865000", "085340.655000", "085339.065000", "085340.855000", "085339.262500", "085341.052500", "085339.462500", "085341.252500", "085338.667500", "085340.457500", "085337.870000", "085339.660000", "085338.070000", "085339.860000", "085338.270000", "085340.060000", "085338.467500", "085340.257500", "085338.865000", "085340.655000", "085339.065000", "085340.855000", "085339.262500", "085341.052500", "085339.462500", "085341.252500", "085338.667500", "085344.057500", "085341.470000", "085343.260000", "085341.670000", "085343.460000", "085341.870000", "085343.660000", "085342.067500", "085343.857500", "085342.465000", "085344.255000", "085342.665000", "085344.455000", "085342.862500", "085344.652500", "085343.062500", "085344.852500", "085342.267500", "085344.057500", "085341.470000", "085343.260000", "085341.670000", "085343.460000", "085341.870000", "085343.660000", "085342.067500", "085343.857500", "085342.465000", "085344.255000", "085342.665000", "085344.455000", "085342.862500", "085344.652500", "085343.062500", "085344.852500", "085342.267500", "085344.057500", "085341.470000", "085343.260000", "085341.670000", "085343.460000", "085341.870000", "085343.660000", "085342.067500", "085343.857500", "085342.465000", "085344.255000", "085342.665000", "085344.455000", "085342.862500", "085344.652500", "085343.062500", "085344.852500", "085342.267500", "085344.057500", "085341.470000", "085343.260000", "085341.670000", "085343.460000", "085341.870000", "085343.660000", "085342.067500", "085343.857500", "085342.465000", "085344.255000", "085342.665000", "085344.455000", "085342.862500", "085344.652500", "085343.062500", "085344.852500", "085342.267500", "085347.657500", "085345.070000", "085346.860000", "085345.270000", "085347.060000", "085345.470000", "085347.260000", "085345.667500", "085347.457500", "085346.065000", "085347.855000", "085346.265000", "085348.055000", "085346.462500", "085348.252500", "085346.662500", "085348.452500", "085345.867500", "085347.657500", "085345.070000", "085346.860000", "085345.270000", "085347.060000", "085345.470000", "085347.260000", "085345.667500", "085347.457500", "085346.065000", "085347.855000", "085346.265000", "085348.055000", "085346.462500", "085348.252500", "085346.662500", "085348.452500", "085345.867500", "085347.657500", "085345.070000", "085346.860000", "085345.270000", "085347.060000", "085345.470000", "085347.260000", "085345.667500", "085347.457500", "085346.065000", "085347.855000", "085346.265000", "085348.055000", "085346.462500", "085348.252500", "085346.662500", "085348.452500", "085345.867500", "085347.657500", "085345.070000", "085346.860000", "085345.270000", "085347.060000", "085345.470000", "085347.260000", "085345.667500", "085347.457500", "085346.065000", "085347.855000", "085346.265000", "085348.055000", "085346.462500", "085348.252500", "085346.662500", "085348.452500", "085345.867500", "085351.257500", "085348.670000", "085350.460000", "085348.870000", "085350.660000", "085349.070000", "085350.860000", "085349.267500", "085351.057500", "085349.665000", "085351.455000", "085349.865000", "085351.655000", "085350.062500", "085351.852500", "085350.262500", "085352.052500", "085349.467500", "085351.257500", "085348.670000", "085350.460000", "085348.870000", "085350.660000", "085349.070000", "085350.860000", "085349.267500", "085351.057500", "085349.665000", "085351.455000", "085349.865000", "085351.655000", "085350.062500", "085351.852500", "085350.262500", "085352.052500", "085349.467500", "085351.257500", "085348.670000", "085350.460000", "085348.870000", "085350.660000", "085349.070000", "085350.860000", "085349.267500", "085351.057500", "085349.665000", "085351.455000", "085349.865000", "085351.655000", "085350.062500", "085351.852500", "085350.262500", "085352.052500", "085349.467500", "085351.257500", "085348.670000", "085350.460000", "085348.870000", "085350.660000", "085349.070000", "085350.860000", "085349.267500", "085351.057500", "085349.665000", "085351.455000", "085349.865000", "085351.655000", "085350.062500", "085351.852500", "085350.262500", "085352.052500", "085349.467500", "085354.857500", "085352.270000", "085354.060000", "085352.470000", "085354.260000", "085352.670000", "085354.460000", "085352.867500", "085354.657500", "085353.265000", "085355.055000", "085353.465000", "085355.255000", "085353.662500", "085355.452500", "085353.862500", "085355.652500", "085353.067500", "085354.857500", "085352.270000", "085354.060000", "085352.470000", "085354.260000", "085352.670000", "085354.460000", "085352.867500", "085354.657500", "085353.265000", "085355.055000", "085353.465000", "085355.255000", "085353.662500", "085355.452500", "085353.862500", "085355.652500", "085353.067500", "085354.857500", "085352.270000", "085354.060000", "085352.470000", "085354.260000", "085352.670000", "085354.460000", "085352.867500", "085354.657500", "085353.265000", "085355.055000", "085353.465000", "085355.255000", "085353.662500", "085355.452500", "085353.862500", "085355.652500", "085353.067500", "085354.857500", "085352.270000", "085354.060000", "085352.470000", "085354.260000", "085352.670000", "085354.460000", "085352.867500", "085354.657500", "085353.265000", "085355.055000", "085353.465000", "085355