{
  "AcquisitionMatrixPE": 80,
  "AcquisitionNumber": 1,
  "AcquisitionTime": "10:36:23.197500",
  "BandwidthPerPixelPhaseEncode": 48.077,
  "BaseResolution": 80,
  "BodyPartExamined": "BRAIN",
  "CoilCombinationMethod": "Sum of Squares",
  "ConsistencyInfo": "N4_VE11C_LATEST_20160120",
  "ConversionSoftware": "dcm2niix",
  "ConversionSoftwareVersion": "v1.0.20220720",
  "DerivedVendorReportedEchoSpacing": 0.000519999,
  "DeviceSerialNumber": "66112",
  "DwellTime": 2.7e-06,
  "EchoTime": 0.035,
  "EchoTrainLength": 39,
  "EffectiveEchoSpacing": 0.00026,
  "FlipAngle": 90,
  "HeudiconvVersion": "0.13.1",
  "ImageOrientationPatientDICOM": [0.998778, 0.0105139, -0.0482925, 0.00331214, 0.960676, 0.277653],
  "ImageOrientationText": "Tra>Cor(16.1)>Sag(-2.8)",
  "ImageType": [
    "ORIGINAL",
    "PRIMARY",
    "M",
    "ND",
    "NORM",
    "MOSAIC"
],
  "ImagingFrequency": 123.253,
  "InPlanePhaseEncodingDirectionDICOM": "COL",
  "InstitutionAddress": "Maynard 3,Hanover,NH,US,03755",
  "InstitutionName": "Dartmouth College - PBS",
  "InstitutionalDepartmentName": "Department",
  "MRAcquisitionType": "2D",
  "MagneticFieldStrength": 3,
  "Manufacturer": "Siemens",
  "ManufacturersModelName": "Prisma",
  "MatrixCoilMode": "GRAPPA",
  "Modality": "MR",
  "NonlinearGradientCorrection": false,
  "ParallelReductionFactorInPlane": 2,
  "PartialFourier": 1,
  "PatientPosition": "HFS",
  "PercentPhaseFOV": 100,
  "PercentSampling": 100,
  "PhaseEncodingDirection": "j-",
  "PhaseEncodingSteps": 79,
  "PhaseResolution": 1,
  "PixelBandwidth": 2315,
  "ProcedureStepDescription": "dbic^QA",
  "ProtocolName": "BOLD_p2",
  "PulseSequenceDetails": "%SiemensSeq%\\ep2d_bold",
  "ReceiveCoilActiveElements": "HEA;HEP",
  "ReceiveCoilName": "Head_32",
  "ReconMatrixPE": 80,
  "RefLinesPE": 24,
  "RepetitionTime": 2,
  "SAR": 0.047769,
  "ScanOptions": "FS",
  "ScanningSequence": "EP",
  "SequenceName": "*epfid2d1_80",
  "SequenceVariant": "SK",
  "SeriesDescription": "BOLD_p2",
  "SeriesNumber": 5,
  "ShimSetting": [4146, -7666, -7514, 287, -25, -260, -53, 97],
  "SliceThickness": 3.5,
  "SliceTiming": [0.99, 0, 1.055, 0.065, 1.12, 0.13, 1.1875, 0.1975, 1.2525, 0.2625, 1.32, 0.33, 1.385, 0.395, 1.45, 0.46, 1.5175, 0.5275, 1.5825, 0.5925, 1.65, 0.66, 1.715, 0.725, 1.78, 0.79, 1.8475, 0.8575, 1.9125, 0.9225],
  "SoftwareVersions": "syngo MR E11",
  "SpacingBetweenSlices": 3.99,
  "StationName": "AWP66112",
  "TaskName": "rest",
  "TotalReadoutTime": 0.02054,
  "TxRefAmp": 235.985,
  "dcmmeta_affine": [
    [-2.996333599090576, 0.009936416521668434, -0.19675731658935547, 123.436767578125],
    [-0.031541746109724045, 2.8820269107818604, 1.107120394706726, -115.07758331298828],
    [-0.1448773741722107, -0.8329594731330872, 3.828272581100464, -42.997379302978516],
    [0.0, 0.0, 0.0, 1.0]
],
  "dcmmeta_reorient_transform": [
    [0.0, -1.0, 0.0, 79.0],
    [1.0, 0.0, 0.0, 0.0],
    [0.0, 0.0, 1.0, 0.0],
    [0.0, 0.0, 0.0, 1.0]
],
  "dcmmeta_shape": [80, 80, 30, 157],
  "dcmmeta_slice_dim": 2,
  "dcmmeta_version": 0.6,
  "global": {
    "const": {
      "AccessionNumber": "qa",
      "AcquisitionMatrix": [80, 0, 0, 80],
      "AngioFlag": "N",
      "BitsAllocated": 16,
      "BitsStored": 12,
      "BodyPartExamined": "BRAIN",
      "Columns": 480,
      "EchoNumbers": 1,
      "EchoTime": 35.0,
      "EchoTrainLength": 39,
      "FlipAngle": 90.0,
      "HighBit": 11,
      "ImageOrientationPatient": [0.99877790127742, 0.01051391516341, -0.0482924580841, 0.00331213885168, 0.96067567471061, 0.277653160896],
      "ImagePositionPatient": [-725.47576948286, -695.31630795674, -246.417599091],
      "ImageType": [
        "ORIGINAL",
        "PRIMARY",
        "M",
        "ND",
        "NORM",
        "MOSAIC"
],
      "ImagedNucleus": "1H",
      "ImagingFrequency": 123.252571,
      "InPlanePhaseEncodingDirection": "COL",
      "MRAcquisitionType": "2D",
      "MagneticFieldStrength": 3.0,
      "Manufacturer": "SIEMENS",
      "ManufacturerModelName": "Prisma",
      "Modality": "MR",
      "NumberOfAverages": 1.0,
      "NumberOfPhaseEncodingSteps": 79,
      "PercentPhaseFieldOfView": 100.0,
      "PercentSampling": 100.0,
      "PerformedProcedureStepStartTime": "103456.260000",
      "PhotometricInterpretation": "MONOCHROME2",
      "PixelBandwidth": 2315.0,
      "PixelRepresentation": 0,
      "PixelSpacing": [3.0, 3.0],
      "ProtocolName": "BOLD_p2",
      "RepetitionTime": 2000.0,
      "Rows": 480,
      "SAR": 0.04776898352956,
      "SamplesPerPixel": 1,
      "ScanOptions": "FS",
      "ScanningSequence": "EP",
      "SequenceName": "*epfid2d1_80",
      "SequenceVariant": "SK",
      "SeriesDescription": "BOLD_p2",
      "SeriesNumber": 5,
      "SeriesTime": "103711.579000",
      "SliceLocation": -79.272559624123,
      "SliceThickness": 3.5,
      "SmallestImagePixelValue": 0,
      "SoftwareVersions": "syngo MR E11",
      "SpacingBetweenSlices": 3.9900000178998,
      "SpecificCharacterSet": "ISO_IR 100",
      "StudyID": "11",
      "StudyTime": "103456.156000",
      "TransmitCoilName": "Body",
      "VariableFlipAngleFlag": "N",
      "WindowCenterWidthExplanation": "Algo1",
      "dBdt": 0.0},
    "slices": {}
  },
  "time": {
    "samples": {
      "AcquisitionNumber": [1, 2, 3, 4, 5, 6, 7, 8, 9, 10, 11, 12, 13, 14, 15, 16, 17, 18, 19, 20, 21, 22, 23, 24, 25, 26, 27, 28, 29, 30, 31, 32, 33, 34, 35, 36, 37, 38, 39, 40, 41, 42, 43, 44, 45, 46, 47, 48, 49, 50, 51, 52, 53, 54, 55, 56, 57, 58, 59, 60, 61, 62, 63, 64, 65, 66, 67, 68, 69, 70, 71, 72, 73, 74, 75, 76, 77, 78, 79, 80, 81, 82, 83, 84, 85, 86, 87, 88, 89, 90, 91, 92, 93, 94, 95, 96, 97, 98, 99, 100, 101, 102, 103, 104, 105, 106, 107, 108, 109, 110, 111, 112, 113, 114, 115, 116, 117, 118, 119, 120, 121, 122, 123, 124, 125, 126, 127, 128, 129, 130, 131, 132, 133, 134, 135, 136, 137, 138, 139, 140, 141, 142, 143, 144, 145, 146, 147, 148, 149, 150, 151, 152, 153, 154, 155, 156, 157],
      "AcquisitionTime": ["103623.197500", "103625.197500", "103627.197500", "103629.197500", "103631.197500", "103633.197500", "103635.197500", "103637.197500", "103639.197500", "103641.197500", "103643.197500", "103645.197500", "103647.197500", "103649.197500", "103651.197500", "103653.197500", "103655.197500", "103657.197500", "103659.197500", "103701.197500", "103703.197500", "103705.197500", "103707.197500", "103709.197500", "103711.197500", "103713.197500", "103715.197500", "103717.197500", "103719.197500", "103721.197500", "103723.197500", "103725.197500", "103727.197500", "103729.197500", "103731.197500", "103733.197500", "103735.197500", "103737.197500", "103739.197500", "103741.197500", "103743.197500", "103745.197500", "103747.197500", "103749.197500", "103751.197500", "103753.197500", "103755.197500", "103757.197500", "103759.197500", "103801.197500", "103803.197500", "103805.197500", "103807.197500", "103809.197500", "103811.197500", "103813.197500", "103815.197500", "103817.197500", "103819.197500", "103821.197500", "103823.197500", "103825.197500", "103827.197500", "103829.197500", "103831.197500", "103833.197500", "103835.197500", "103837.197500", "103839.197500", "103841.197500", "103843.197500", "103845.197500", "103847.197500", "103849.197500", "103851.197500", "103853.197500", "103855.197500", "103857.197500", "103859.197500", "103901.197500", "103903.197500", "103905.197500", "103907.197500", "103909.197500", "103911.197500", "103913.197500", "103915.197500", "103917.197500", "103919.197500", "103921.197500", "103923.197500", "103925.197500", "103927.197500", "103929.197500", "103931.197500", "103933.197500", "103935.197500", "103937.197500", "103939.197500", "103941.197500", "103943.197500", "103945.197500", "103947.197500", "103949.197500", "103951.197500", "103953.197500", "103955.197500", "103957.197500", "103959.197500", "104001.197500", "104003.197500", "104005.197500", "104007.197500", "104009.197500", "104011.197500", "104013.197500", "104015.197500", "104017.197500", "104019.197500", "104021.197500", "104023.197500", "104025.197500", "104027.197500", "104029.197500", "104031.197500", "104033.197500", "104035.197500", "104037.197500", "104039.197500", "104041.197500", "104043.197500", "104045.197500", "104047.197500", "104049.197500", "104051.197500", "104053.197500", "104055.197500", "104057.197500", "104059.197500", "104101.197500", "104103.197500", "104105.197500", "104107.197500", "104109.197500", "104111.197500", "104113.197500", "104115.197500", "104117.197500", "104119.197500", "104121.197500", "104123.197500", "104125.197500", "104127.197500", "104129.197500", "104131.197500", "104133.197500", "104135.197500"],
      "ContentTime": ["103711.583000", "103711.586000", "103711.589000", "103711.591000", "103711.594000", "103711.596000", "103711.599000", "103711.602000", "103711.604000", "103711.607000", "103711.609000", "103711.612000", "103711.614000", "103711.623000", "103711.626000", "103711.628000", "103711.631000", "103711.633000", "103711.636000", "103711.638000", "103711.641000", "103711.643000", "103711.646000", "103711.649000", "103751.577000", "103751.580000", "103751.583000", "103751.585000", "103751.588000", "103751.591000", "103751.593000", "103751.595000", "103751.598000", "103751.601000", "103751.603000", "103751.606000", "103751.608000", "103751.611000", "103751.613000", "103751.616000", "103751.618000", "103751.621000", "103751.623000", "103751.626000", "103831.577000", "103831.580000", "103831.583000", "103831.585000", "103831.588000", "103831.591000", "103831.593000", "103831.596000", "103831.598000", "103831.607000", "103831.609000", "103831.612000", "103831.614000", "103831.617000", "103831.619000", "103831.622000", "103831.625000", "103831.627000", "103831.630000", "103831.632000", "103911.577000", "103911.580000", "103911.583000", "103911.585000", "103911.588000", "103911.591000", "103911.593000", "103911.596000", "103911.598000", "103911.601000", "103911.603000", "103911.606000", "103911.608000", "103911.611000", "103911.613000", "103911.616000", "103911.619000", "103911.621000", "103911.624000", "103911.626000", "103951.578000", "103951.580000", "103951.583000", "103951.585000", "103951.588000", "103951.591000", "103951.593000", "103951.596000", "103951.598000", "103951.601000", "103951.603000", "103951.606000", "103951.608000", "103951.611000", "103951.613000", "103951.616000", "103951.619000", "103951.621000", "103951.624000", "103951.626000", "104031.578000", "104031.580000", "104031.583000", "104031.585000", "104031.588000", "104031.591000", "104031.593000", "104031.596000", "104031.599000", "104031.601000", "104031.604000", "104031.606000", "104031.609000", "104031.611000", "104031.614000", "104031.616000", "104031.619000", "104031.621000", "104031.624000", "104031.626000", "104111.578000", "104111.580000", "104111.583000", "104111.585000", "104111.588000", "104111.591000", "104111.593000", "104111.596000", "104111.598000", "104111.601000", "104111.603000", "104111.606000", "104111.609000", "104111.611000", "104111.614000", "104111.616000", "104111.619000", "104111.621000", "104111.624000", "104111.626000", "104136.349000", "104136.352000", "104136.355000", "104136.357000", "104136.360000", "104136.362000", "104136.365000", "104136.367000", "104136.370000", "104136.373000", "104136.375000", "104136.379000", "104136.386000"],
      "InstanceCreationTime": ["103711.583000", "103711.586000", "103711.589000", "103711.591000", "103711.594000", "103711.596000", "103711.599000", "103711.602000", "103711.604000", "103711.607000", "103711.609000", "103711.612000", "103711.614000", "103711.623000", "103711.626000", "103711.628000", "103711.631000", "103711.633000", "103711.636000", "103711.638000", "103711.641000", "103711.643000", "103711.646000", "103711.649000", "103751.577000", "103751.580000", "103751.583000", "103751.585000", "103751.588000", "103751.591000", "103751.593000", "103751.595000", "103751.598000", "103751.601000", "103751.603000", "103751.606000", "103751.608000", "103751.611000", "103751.613000", "103751.616000", "103751.618000", "103751.621000", "103751.623000", "103751.626000", "103831.577000", "103831.580000", "103831.583000", "103831.585000", "103831.588000", "103831.591000", "103831.593000", "103831.596000", "103831.598000", "103831.607000", "103831.609000", "103831.612000", "103831.614000", "103831.617000", "103831.619000", "103831.622000", "103831.625000", "103831.627000", "103831.630000", "103831.632000", "103911.577000", "103911.580000", "103911.583000", "103911.585000", "103911.588000", "103911.591000", "103911.593000", "103911.596000", "103911.598000", "103911.601000", "103911.603000", "103911.606000", "103911.608000", "103911.611000", "103911.613000", "103911.616000", "103911.619000", "103911.621000", "103911.624000", "103911.626000", "103951.578000", "103951.580000", "103951.583000", "103951.585000", "103951.588000", "103951.591000", "103951.593000", "103951.596000", "103951.598000", "103951.601000", "103951.603000", "103951.606000", "103951.608000", "103951.611000", "103951.613000", "103951.616000", "103951.619000", "103951.621000", "103951.624000", "103951.626000", "104031.578000", "104031.580000", "104031.583000", "104031.585000", "104031.588000", "104031.591000", "104031.593000", "104031.596000", "104031.599000", "104031.601000", "104031.604000", "104031.606000", "104031.609000", "104031.611000", "104031.614000", "104031.616000", "104031.619000", "104031.621000", "104031.624000", "104031.626000", "104111.578000", "104111.580000", "104111.583000", "104111.585000", "104111.588000", "104111.591000", "104111.593000", "104111.596000", "104111.598000", "104111.601000", "104111.603000", "104111.606000", "104111.609000", "104111.611000", "104111.614000", "104111.616000", "104111.619000", "104111.621000", "104111.624000", "104111.626000", "104136.349000", "104136.352000", "104136.355000", "104136.357000", "104136.360000", "104136.362000", "104136.365000", "104136.367000", "104136.370000", "104136.373000", "104136.375000", "104136.379000", "104136.386000"],
      "InstanceNumber": [1, 2, 3, 4, 5, 6, 7, 8, 9, 10, 11, 12, 13, 14, 15, 16, 17, 18, 19, 20, 21, 22, 23, 24, 25, 26, 27, 28, 29, 30, 31, 32, 33, 34, 35, 36, 37, 38, 39, 40, 41, 42, 43, 44, 45, 46, 47, 48, 49, 50, 51, 52, 53, 54, 55, 56, 57, 58, 59, 60, 61, 62, 63, 64, 65, 66, 67, 68, 69, 70, 71, 72, 73, 74, 75, 76, 77, 78, 79, 80, 81, 82, 83, 84, 85, 86, 87, 88, 89, 90, 91, 92, 93, 94, 95, 96, 97, 98, 99, 100, 101, 102, 103, 104, 105, 106, 107, 108, 109, 110, 111, 112, 113, 114, 115, 116, 117, 118, 119, 120, 121, 122, 123, 124, 125, 126, 127, 128, 129, 130, 131, 132, 133, 134, 135, 136, 137, 138, 139, 140, 141, 142, 143, 144, 145, 146, 147, 148, 149, 150, 151, 152, 153, 154, 155, 156, 157],
      "LargestImagePixelValue": [1912, 1908, 1906, 1910, 1904, 1908, 1913, 1898, 1911, 1911, 1911, 1906, 1908, 1908, 1915, 1906, 1917, 1913, 1910, 1913, 1908, 1910, 1915, 1914, 1915, 1913, 1913, 1909, 1912, 1905, 1917, 1912, 1915, 1909, 1916, 1915, 1911, 1918, 1914, 1912, 1916, 1916, 1917, 1910, 1921, 1909, 1913, 1909, 1916, 1910, 1916, 1908, 1910, 1915, 1919, 1913, 1923, 1923, 1916, 1922, 1913, 1914, 1909, 1912, 1912, 1914, 1911, 1919, 1917, 1916, 1913, 1917, 1921, 1913, 1918, 1914, 1914, 1921, 1917, 1920, 1917, 1917, 1912, 1923, 1919, 1909, 1921, 1913, 1918, 1914, 1920, 1915, 1916, 1919, 1916, 1916, 1913, 1915, 1920, 1917, 1912, 1918, 1916, 1918, 1914, 1913, 1909, 1920, 1915, 1917, 1913, 1922, 1915, 1915, 1921, 1913, 1921, 1915, 1918, 1919, 1915, 1920, 1918, 1914, 1918, 1915, 1919, 1920, 1918, 1915, 1915, 1922, 1912, 1916, 1918, 1913, 1919, 1919, 1919, 1914, 1917, 1913, 1915, 1919, 1918, 1921, 1918, 1917, 1919, 1914, 1915, 1913, 1916, 1911, 1915, 1921, 1917],
      "WindowCenter": [953.0, 955.0, 953.0, 953.0, 954.0, 953.0, 953.0, 953.0, 953.0, 953.0, 953.0, 954.0, 954.0, 954.0, 953.0, 953.0, 953.0, 953.0, 954.0, 953.0, 954.0, 953.0, 953.0, 953.0, 953.0, 955.0, 953.0, 954.0, 953.0, 953.0, 955.0, 954.0, 954.0, 953.0, 953.0, 953.0, 953.0, 953.0, 954.0, 953.0, 954.0, 954.0, 954.0, 953.0, 955.0, 954.0, 953.0, 954.0, 954.0, 954.0, 954.0, 954.0, 954.0, 954.0, 954.0, 954.0, 954.0, 954.0, 954.0, 954.0, 954.0, 954.0, 954.0, 954.0, 954.0, 954.0, 954.0, 954.0, 954.0, 954.0, 954.0, 955.0, 954.0, 954.0, 954.0, 954.0, 954.0, 954.0, 953.0, 954.0, 954.0, 953.0, 955.0, 954.0, 954.0, 954.0, 954.0, 954.0, 954.0, 954.0, 954.0, 955.0, 953.0, 953.0, 953.0, 953.0, 953.0, 954.0, 953.0, 953.0, 954.0, 954.0, 953.0, 953.0, 953.0, 953.0, 954.0, 953.0, 953.0, 953.0, 953.0, 953.0, 953.0, 955.0, 955.0, 954.0, 953.0, 953.0, 953.0, 953.0, 954.0, 953.0, 953.0, 953.0, 953.0, 953.0, 953.0, 953.0, 954.0, 954.0, 953.0, 953.0, 953.0, 954.0, 953.0, 954.0, 954.0, 954.0, 953.0, 954.0, 954.0, 954.0, 954.0, 954.0, 954.0, 954.0, 954.0, 954.0, 954.0, 954.0, 954.0, 954.0, 954.0, 953.0, 954.0, 954.0, 954.0],
      "WindowWidth": [2073.0, 2074.0, 2072.0, 2072.0, 2073.0, 2072.0, 2072.0, 2072.0, 2072.0, 2072.0, 2072.0, 2073.0, 2073.0, 2073.0, 2072.0, 2072.0, 2072.0, 2073.0, 2073.0, 2072.0, 2073.0, 2072.0, 2073.0, 2072.0, 2072.0, 2074.0, 2072.0, 2073.0, 2072.0, 2072.0, 2074.0, 2073.0, 2073.0, 2072.0, 2072.0, 2072.0, 2072.0, 2073.0, 2074.0, 2073.0, 2074.0, 2074.0, 2074.0, 2073.0, 2075.0, 2073.0, 2073.0, 2073.0, 2073.0, 2074.0, 2073.0, 2074.0, 2073.0, 2074.0, 2073.0, 2074.0, 2073.0, 2073.0, 2073.0, 2073.0, 2073.0, 2073.0, 2073.0, 2074.0, 2073.0, 2073.0, 2074.0, 2074.0, 2073.0, 2074.0, 2073.0, 2075.0, 2074.0, 2073.0, 2073.0, 2074.0, 2074.0, 2074.0, 2073.0, 2073.0, 2073.0, 2073.0, 2075.0, 2073.0, 2073.0, 2074.0, 2074.0, 2074.0, 2074.0, 2073.0, 2073.0, 2075.0, 2073.0, 2073.0, 2073.0, 2073.0, 2073.0, 2074.0, 2073.0, 2073.0, 2074.0, 2073.0, 2073.0, 2073.0, 2073.0, 2073.0, 2073.0, 2073.0, 2073.0, 2073.0, 2073.0, 2073.0, 2073.0, 2074.0, 2074.0, 2073.0, 2073.0, 2073.0, 2073.0, 2073.0, 2073.0, 2073.0, 2073.0, 2073.0, 2073.0, 2073.0, 2073.0, 2073.0, 2073.0, 2073.0, 2073.0, 2073.0, 2073.0, 2073.0, 2073.0, 2074.0, 2073.0, 2073.0, 2073.0, 2073.0, 2073.0, 2073.0, 2074.0, 2073.0, 2074.0, 2073.0, 2073.0, 2073.0, 2073.0, 2073.0, 2073.0, 2073.0, 2073.0, 2073.0, 2074.0, 2074.0, 2073.0]
    },
    "slices": {}
  }
}