{
  "AcquisitionMatrixPE": 80,
  "AcquisitionNumber": 1,
  "AcquisitionTime": "09:21:54.780000",
  "BandwidthPerPixelPhaseEncode": 48.077,
  "BaseResolution": 80,
  "BodyPartExamined": "BRAIN",
  "CoilCombinationMethod": "Sum of Squares",
  "ConsistencyInfo": "N4_VE11E_LATEST_20181129",
  "ConversionSoftware": "dcm2niix",
  "ConversionSoftwareVersion": "v1.0.20220720",
  "DerivedVendorReportedEchoSpacing": 0.000519999,
  "DeviceSerialNumber": "66112",
  "DwellTime": 2.7e-06,
  "EchoTime": 0.035,
  "EchoTrainLength": 39,
  "EffectiveEchoSpacing": 0.00026,
  "FlipAngle": 90,
  "HeudiconvVersion": "0.13.1",
  "ImageOrientationPatientDICOM": [0.990134, -0.136949, -0.029653, 0.139154, 0.93619, 0.322775],
  "ImageOrientationText": "Tra>Cor(18.9)>Sag(0.9)",
  "ImageType": [
    "ORIGINAL",
    "PRIMARY",
    "M",
    "ND",
    "NORM",
    "MOSAIC"
],
  "ImagingFrequency": 123.259,
  "InPlanePhaseEncodingDirectionDICOM": "COL",
  "InstitutionAddress": "Maynard 3,Hanover,NH,US,03755",
  "InstitutionName": "Dartmouth College - PBS",
  "InstitutionalDepartmentName": "Department",
  "MRAcquisitionType": "2D",
  "MagneticFieldStrength": 3,
  "Manufacturer": "Siemens",
  "ManufacturersModelName": "Prisma",
  "MatrixCoilMode": "GRAPPA",
  "Modality": "MR",
  "NonlinearGradientCorrection": false,
  "ParallelReductionFactorInPlane": 2,
  "PartialFourier": 1,
  "PatientPosition": "HFS",
  "PercentPhaseFOV": 100,
  "PercentSampling": 100,
  "PhaseEncodingDirection": "j-",
  "PhaseEncodingSteps": 79,
  "PhaseResolution": 1,
  "PixelBandwidth": 2315,
  "ProcedureStepDescription": "dbic^QA",
  "ProtocolName": "func-bold_task-rest_acq-p2",
  "PulseSequenceDetails": "%SiemensSeq%\\ep2d_bold",
  "ReceiveCoilActiveElements": "HEA;HEP",
  "ReceiveCoilName": "Head_32",
  "ReconMatrixPE": 80,
  "RefLinesPE": 24,
  "RepetitionTime": 2,
  "SAR": 0.0816284,
  "ScanOptions": "FS",
  "ScanningSequence": "EP",
  "SequenceName": "*epfid2d1_80",
  "SequenceVariant": "SK",
  "SeriesDescription": "func-bold_task-rest_acq-p2",
  "SeriesNumber": 5,
  "ShimSetting": [4222, -7748, -7493, -22, -141, -25, 13, 83],
  "SliceThickness": 3.5,
  "SliceTiming": [0.99, 0, 1.055, 0.065, 1.12, 0.13, 1.1875, 0.1975, 1.2525, 0.2625, 1.32, 0.33, 1.385, 0.395, 1.45, 0.46, 1.5175, 0.5275, 1.5825, 0.5925, 1.65, 0.66, 1.715, 0.725, 1.78, 0.79, 1.8475, 0.8575, 1.9125, 0.9225],
  "SoftwareVersions": "syngo MR E11",
  "SpacingBetweenSlices": 3.99,
  "StationName": "AWP66112",
  "TaskName": "rest",
  "TotalReadoutTime": 0.02054,
  "TxRefAmp": 231.245,
  "dcmmeta_affine": [
    [-2.970402479171753, 0.4174629747867584, 0.06560667604207993, 99.70008850097656],
    [0.4108465611934662, 2.8085711002349854, 1.2916299104690552, -143.4070587158203],
    [-0.08895905315876007, -0.9683245420455933, 3.7745845317840576, -4.310014247894287],
    [0.0, 0.0, 0.0, 1.0]
],
  "dcmmeta_reorient_transform": [
    [0.0, -1.0, 0.0, 79.0],
    [1.0, 0.0, 0.0, 0.0],
    [0.0, 0.0, 1.0, 0.0],
    [0.0, 0.0, 0.0, 1.0]
],
  "dcmmeta_shape": [80, 80, 30, 200],
  "dcmmeta_slice_dim": 2,
  "dcmmeta_version": 0.6,
  "global": {
    "const": {
      "AccessionNumber": "qa",
      "AcquisitionMatrix": [80, 0, 0, 80],
      "AngioFlag": "N",
      "BitsAllocated": 16,
      "BitsStored": 12,
      "BodyPartExamined": "BRAIN",
      "Columns": 480,
      "EchoNumbers": 1,
      "EchoTime": 35.0,
      "EchoTrainLength": 39,
      "FlipAngle": 90.0,
      "HighBit": 11,
      "ImageOrientationPatient": [0.99013418786215, -0.1369488538056, -0.0296530178549, 0.13915432146446, 0.9361904035811, 0.32277484886592],
      "ImagePositionPatient": [-810.25276840026, -558.01500440041, -256.68075208036],
      "ImageType": [
        "ORIGINAL",
        "PRIMARY",
        "M",
        "ND",
        "NORM",
        "MOSAIC"
],
      "ImagedNucleus": "1H",
      "ImagingFrequency": 123.259184,
      "InPlanePhaseEncodingDirection": "COL",
      "MRAcquisitionType": "2D",
      "MagneticFieldStrength": 3.0,
      "Manufacturer": "SIEMENS",
      "ManufacturerModelName": "Prisma",
      "Modality": "MR",
      "NumberOfAverages": 1.0,
      "NumberOfPhaseEncodingSteps": 79,
      "PercentPhaseFieldOfView": 100.0,
      "PercentSampling": 100.0,
      "PerformedProcedureStepStartTime": "091700.355000",
      "PhotometricInterpretation": "MONOCHROME2",
      "PixelBandwidth": 2315.0,
      "PixelRepresentation": 0,
      "PixelSpacing": [3.0, 3.0],
      "ProtocolName": "func-bold_task-rest_acq-p2",
      "RepetitionTime": 2000.0,
      "Rows": 480,
      "SAR": 0.08162841948364,
      "SamplesPerPixel": 1,
      "ScanOptions": "FS",
      "ScanningSequence": "EP",
      "SequenceName": "*epfid2d1_80",
      "SequenceVariant": "SK",
      "SeriesDescription": "func-bold_task-rest_acq-p2",
      "SeriesNumber": 5,
      "SeriesTime": "092234.556000",
      "SliceLocation": -48.861241189595,
      "SliceThickness": 3.5,
      "SmallestImagePixelValue": 0,
      "SoftwareVersions": "syngo MR E11",
      "SpacingBetweenSlices": 3.9900000462256,
      "SpecificCharacterSet": "ISO_IR 100",
      "StudyID": "36",
      "StudyTime": "091700.310000",
      "TransmitCoilName": "Body",
      "VariableFlipAngleFlag": "N",
      "WindowCenterWidthExplanation": "Algo1"
    },
    "slices": {}
  },
  "time": {
    "samples": {
      "AcquisitionNumber": [1, 2, 3, 4, 5, 6, 7, 8, 9, 10, 11, 12, 13, 14, 15, 16, 17, 18, 19, 20, 21, 22, 23, 24, 25, 26, 27, 28, 29, 30, 31, 32, 33, 34, 35, 36, 37, 38, 39, 40, 41, 42, 43, 44, 45, 46, 47, 48, 49, 50, 51, 52, 53, 54, 55, 56, 57, 58, 59, 60, 61, 62, 63, 64, 65, 66, 67, 68, 69, 70, 71, 72, 73, 74, 75, 76, 77, 78, 79, 80, 81, 82, 83, 84, 85, 86, 87, 88, 89, 90, 91, 92, 93, 94, 95, 96, 97, 98, 99, 100, 101, 102, 103, 104, 105, 106, 107, 108, 109, 110, 111, 112, 113, 114, 115, 116, 117, 118, 119, 120, 121, 122, 123, 124, 125, 126, 127, 128, 129, 130, 131, 132, 133, 134, 135, 136, 137, 138, 139, 140, 141, 142, 143, 144, 145, 146, 147, 148, 149, 150, 151, 152, 153, 154, 155, 156, 157, 158, 159, 160, 161, 162, 163, 164, 165, 166, 167, 168, 169, 170, 171, 172, 173, 174, 175, 176, 177, 178, 179, 180, 181, 182, 183, 184, 185, 186, 187, 188, 189, 190, 191, 192, 193, 194, 195, 196, 197, 198, 199, 200],
      "AcquisitionTime": ["092154.780000", "092156.780000", "092158.780000", "092200.780000", "092202.780000", "092204.780000", "092206.780000", "092208.780000", "092210.780000", "092212.780000", "092214.780000", "092216.780000", "092218.780000", "092220.780000", "092222.780000", "092224.780000", "092226.780000", "092228.780000", "092230.780000", "092232.780000", "092234.780000", "092236.780000", "092238.780000", "092240.780000", "092242.780000", "092244.780000", "092246.780000", "092248.780000", "092250.780000", "092252.780000", "092254.780000", "092256.780000", "092258.780000", "092300.780000", "092302.780000", "092304.780000", "092306.780000", "092308.780000", "092310.780000", "092312.780000", "092314.780000", "092316.780000", "092318.780000", "092320.780000", "092322.780000", "092324.780000", "092326.780000", "092328.780000", "092330.780000", "092332.780000", "092334.780000", "092336.780000", "092338.780000", "092340.780000", "092342.780000", "092344.780000", "092346.780000", "092348.780000", "092350.780000", "092352.780000", "092354.780000", "092356.780000", "092358.780000", "092400.780000", "092402.780000", "092404.780000", "092406.780000", "092408.780000", "092410.780000", "092412.780000", "092414.780000", "092416.780000", "092418.780000", "092420.780000", "092422.780000", "092424.780000", "092426.780000", "092428.780000", "092430.780000", "092432.780000", "092434.780000", "092436.780000", "092438.780000", "092440.780000", "092442.780000", "092444.780000", "092446.780000", "092448.780000", "092450.780000", "092452.780000", "092454.780000", "092456.780000", "092458.780000", "092500.780000", "092502.780000", "092504.780000", "092506.780000", "092508.780000", "092510.780000", "092512.780000", "092514.780000", "092516.780000", "092518.780000", "092520.780000", "092522.780000", "092524.780000", "092526.780000", "092528.780000", "092530.780000", "092532.780000", "092534.780000", "092536.780000", "092538.780000", "092540.780000", "092542.780000", "092544.780000", "092546.780000", "092548.780000", "092550.780000", "092552.780000", "092554.780000", "092556.780000", "092558.780000", "092600.780000", "092602.780000", "092604.780000", "092606.780000", "092608.780000", "092610.780000", "092612.780000", "092614.780000", "092616.780000", "092618.780000", "092620.780000", "092622.780000", "092624.780000", "092626.780000", "092628.780000", "092630.780000", "092632.780000", "092634.780000", "092636.780000", "092638.780000", "092640.780000", "092642.780000", "092644.780000", "092646.780000", "092648.780000", "092650.780000", "092652.780000", "092654.780000", "092656.780000", "092658.780000", "092700.780000", "092702.780000", "092704.780000", "092706.780000", "092708.780000", "092710.780000", "092712.780000", "092714.780000", "092716.780000", "092718.780000", "092720.780000", "092722.780000", "092724.780000", "092726.780000", "092728.780000", "092730.780000", "092732.780000", "092734.780000", "092736.780000", "092738.780000", "092740.780000", "092742.780000", "092744.780000", "092746.780000", "092748.780000", "092750.780000", "092752.780000", "092754.780000", "092756.780000", "092758.780000", "092800.780000", "092802.780000", "092804.780000", "092806.780000", "092808.780000", "092810.780000", "092812.780000", "092814.780000", "092816.780000", "092818.780000", "092820.780000", "092822.780000", "092824.780000", "092826.780000", "092828.780000", "092830.780000", "092832.780000"],
      "ContentTime": ["092234.559000", "092234.562000", "092234.564000", "092234.567000", "092234.569000", "092234.571000", "092234.574000", "092234.576000", "092234.578000", "092234.581000", "092234.583000", "092234.585000", "092234.588000", "092234.590000", "092234.592000", "092234.603000", "092234.605000", "092234.608000", "092234.610000", "092234.612000", "092314.555000", "092314.565000", "092314.568000", "092314.570000", "092314.572000", "092314.579000", "092314.581000", "092314.584000", "092314.586000", "092314.589000", "092314.591000", "092314.593000", "092314.595000", "092314.598000", "092314.600000", "092314.602000", "092314.605000", "092314.607000", "092314.609000", "092314.612000", "092354.555000", "092354.558000", "092354.560000", "092354.563000", "092354.565000", "092354.567000", "092354.570000", "092354.572000", "092354.574000", "092354.577000", "092354.579000", "092354.581000", "092354.584000", "092354.586000", "092354.594000", "092354.597000", "092354.599000", "092354.601000", "092354.604000", "092354.606000", "092434.554000", "092434.557000", "092434.559000", "092434.561000", "092434.564000", "092434.566000", "092434.569000", "092434.571000", "092434.573000", "092434.576000", "092434.578000", "092434.580000", "092434.583000", "092434.585000", "092434.587000", "092434.590000", "092434.592000", "092434.594000", "092434.597000", "092434.599000", "092514.554000", "092514.557000", "092514.559000", "092514.562000", "092514.564000", "092514.566000", "092514.569000", "092514.571000", "092514.573000", "092514.576000", "092514.578000", "092514.580000", "092514.583000", "092514.585000", "092514.587000", "092514.590000", "092514.592000", "092514.594000", "092514.597000", "092514.599000", "092554.555000", "092554.558000", "092554.560000", "092554.562000", "092554.565000", "092554.567000", "092554.570000", "092554.580000", "092554.583000", "092554.585000", "092554.588000", "092554.590000", "092554.592000", "092554.595000", "092554.597000", "092554.599000", "092554.602000", "092554.604000", "092554.606000", "092554.609000", "092634.555000", "092634.558000", "092634.560000", "092634.562000", "092634.565000", "092634.567000", "092634.569000", "092634.580000", "092634.582000", "092634.584000", "092634.587000", "092634.589000", "092634.591000", "092634.594000", "092634.596000", "092634.598000", "092634.601000", "092634.603000", "092634.605000", "092634.608000", "092714.554000", "092714.557000", "092714.559000", "092714.562000", "092714.564000", "092714.566000", "092714.569000", "092714.571000", "092714.573000", "092714.576000", "092714.578000", "092714.580000", "092714.583000", "092714.585000", "092714.587000", "092714.590000", "092714.592000", "092714.595000", "092714.597000", "092714.599000", "092754.555000", "092754.558000", "092754.560000", "092754.563000", "092754.565000", "092754.567000", "092754.570000", "092754.572000", "092754.574000", "092754.577000", "092754.579000", "092754.582000", "092754.584000", "092754.586000", "092754.589000", "092754.591000", "092754.593000", "092754.596000", "092754.598000", "092754.600000", "092834.312000", "092834.315000", "092834.317000", "092834.320000", "092834.322000", "092834.325000", "092834.327000", "092834.329000", "092834.332000", "092834.334000", "092834.337000", "092834.339000", "092834.343000", "092834.347000", "092834.350000", "092834.353000", "092834.355000", "092834.358000", "092834.360000", "092834.363000"],
      "InstanceCreationTime": ["092234.559000", "092234.562000", "092234.564000", "092234.567000", "092234.569000", "092234.571000", "092234.574000", "092234.576000", "092234.578000", "092234.581000", "092234.583000", "092234.585000", "092234.588000", "092234.590000", "092234.592000", "092234.603000", "092234.605000", "092234.608000", "092234.610000", "092234.612000", "092314.555000", "092314.565000", "092314.568000", "092314.570000", "092314.572000", "092314.579000", "092314.581000", "092314.584000", "092314.586000", "092314.589000", "092314.591000", "092314.593000", "092314.595000", "092314.598000", "092314.600000", "092314.602000", "092314.605000", "092314.607000", "092314.609000", "092314.612000", "092354.555000", "092354.558000", "092354.560000", "092354.563000", "092354.565000", "092354.567000", "092354.570000", "092354.572000", "092354.574000", "092354.577000", "092354.579000", "092354.581000", "092354.584000", "092354.586000", "092354.594000", "092354.597000", "092354.599000", "092354.601000", "092354.604000", "092354.606000", "092434.554000", "092434.557000", "092434.559000", "092434.561000", "092434.564000", "092434.566000", "092434.569000", "092434.571000", "092434.573000", "092434.576000", "092434.578000", "092434.580000", "092434.583000", "092434.585000", "092434.587000", "092434.590000", "092434.592000", "092434.594000", "092434.597000", "092434.599000", "092514.554000", "092514.557000", "092514.559000", "092514.562000", "092514.564000", "092514.566000", "092514.569000", "092514.571000", "092514.573000", "092514.576000", "092514.578000", "092514.580000", "092514.583000", "092514.585000", "092514.587000", "092514.590000", "092514.592000", "092514.594000", "092514.597000", "092514.599000", "092554.555000", "092554.558000", "092554.560000", "092554.562000", "092554.565000", "092554.567000", "092554.570000", "092554.580000", "092554.583000", "092554.585000", "092554.588000", "092554.590000", "092554.592000", "092554.595000", "092554.597000", "092554.599000", "092554.602000", "092554.604000", "092554.606000", "092554.609000", "092634.555000", "092634.558000", "092634.560000", "092634.562000", "092634.565000", "092634.567000", "092634.569000", "092634.580000", "092634.582000", "092634.584000", "092634.587000", "092634.589000", "092634.591000", "092634.594000", "092634.596000", "092634.598000", "092634.601000", "092634.603000", "092634.605000", "092634.608000", "092714.554000", "092714.557000", "092714.559000", "092714.562000", "092714.564000", "092714.566000", "092714.569000", "092714.571000", "092714.573000", "092714.576000", "092714.578000", "092714.580000", "092714.583000", "092714.585000", "092714.587000", "092714.590000", "092714.592000", "092714.595000", "092714.597000", "092714.599000", "092754.555000", "092754.558000", "092754.560000", "092754.563000", "092754.565000", "092754.567000", "092754.570000", "092754.572000", "092754.574000", "092754.577000", "092754.579000", "092754.582000", "092754.584000", "092754.586000", "092754.589000", "092754.591000", "092754.593000", "092754.596000", "092754.598000", "092754.600000", "092834.312000", "092834.315000", "092834.317000", "092834.320000", "092834.322000", "092834.325000", "092834.327000", "092834.329000", "092834.332000", "092834.334000", "092834.337000", "092834.339000", "092834.343000", "092834.347000", "092834.350000", "092834.353000", "092834.355000", "092834.358000", "092834.360000", "092834.363000"],
      "InstanceNumber": [1, 2, 3, 4, 5, 6, 7, 8, 9, 10, 11, 12, 13, 14, 15, 16, 17, 18, 19, 20, 21, 22, 23, 24, 25, 26, 27, 28, 29, 30, 31, 32, 33, 34, 35, 36, 37, 38, 39, 40, 41, 42, 43, 44, 45, 46, 47, 48, 49, 50, 51, 52, 53, 54, 55, 56, 57, 58, 59, 60, 61, 62, 63, 64, 65, 66, 67, 68, 69, 70, 71, 72, 73, 74, 75, 76, 77, 78, 79, 80, 81, 82, 83, 84, 85, 86, 87, 88, 89, 90, 91, 92, 93, 94, 95, 96, 97, 98, 99, 100, 101, 102, 103, 104, 105, 106, 107, 108, 109, 110, 111, 112, 113, 114, 115, 116, 117, 118, 119, 120, 121, 122, 123, 124, 125, 126, 127, 128, 129, 130, 131, 132, 133, 134, 135, 136, 137, 138, 139, 140, 141, 142, 143, 144, 145, 146, 147, 148, 149, 150, 151, 152, 153, 154, 155, 156, 157, 158, 159, 160, 161, 162, 163, 164, 165, 166, 167, 168, 169, 170, 171, 172, 173, 174, 175, 176, 177, 178, 179, 180, 181, 182, 183, 184, 185, 186, 187, 188, 189, 190, 191, 192, 193, 194, 195, 196, 197, 198, 199, 200],
      "LargestImagePixelValue": [2280, 2283, 2287, 2284, 2285, 2282, 2285, 2279, 2280, 2280, 2277, 2286, 2285, 2281, 2287, 2284, 2283, 2289, 2282, 2282, 2285, 2282, 2282, 2282, 2282, 2281, 2287, 2284, 2286, 2283, 2280, 2285, 2284, 2280, 2280, 2283, 2284, 2283, 2286, 2286, 2285, 2282, 2288, 2276, 2284, 2281, 2284, 2286, 2286, 2285, 2285, 2275, 2283, 2278, 2279, 2283, 2284, 2285, 2282, 2282, 2288, 2285, 2273, 2281, 2283, 2288, 2289, 2282, 2286, 2284, 2284, 2280, 2288, 2277, 2283, 2287, 2284, 2281, 2281, 2286, 2281, 2280, 2279, 2288, 2280, 2281, 2286, 2283, 2279, 2278, 2277, 2277, 2281, 2282, 2283, 2277, 2279, 2276, 2282, 2282, 2282, 2282, 2274, 2281, 2281, 2282, 2277, 2287, 2282, 2278, 2281, 2284, 2282, 2280, 2287, 2282, 2275, 2281, 2280, 2281, 2276, 2280, 2277, 2291, 2279, 2288, 2277, 2278, 2279, 2282, 2287, 2284, 2284, 2283, 2278, 2275, 2279, 2280, 2281, 2277, 2281, 2280, 2274, 2270, 2284, 2271, 2282, 2276, 2276, 2283, 2279, 2273, 2281, 2279, 2275, 2279, 2277, 2279, 2286, 2287, 2281, 2280, 2276, 2278, 2272, 2278, 2273, 2281, 2277, 2281, 2278, 2272, 2282, 2281, 2280, 2275, 2277, 2274, 2282, 2280, 2276, 2281, 2277, 2282, 2280, 2279, 2278, 2281, 2277, 2277, 2277, 2282, 2281, 2284, 2275, 2286, 2281, 2281, 2274, 2274],
      "WindowCenter": [1052.0, 1052.0, 1052.0, 1052.0, 1052.0, 1052.0, 1052.0, 1052.0, 1052.0, 1052.0, 1052.0, 1052.0, 1052.0, 1052.0, 1052.0, 1052.0, 1052.0, 1052.0, 1052.0, 1052.0, 1052.0, 1052.0, 1052.0, 1052.0, 1052.0, 1052.0, 1052.0, 1052.0, 1052.0, 1052.0, 1052.0, 1052.0, 1052.0, 1052.0, 1052.0, 1052.0, 1052.0, 1051.0, 1051.0, 1052.0, 1051.0, 1051.0, 1051.0, 1051.0, 1051.0, 1051.0, 1051.0, 1051.0, 1051.0, 1051.0, 1051.0, 1051.0, 1051.0, 1051.0, 1051.0, 1051.0, 1051.0, 1051.0, 1051.0, 1051.0, 1051.0, 1051.0, 1051.0, 1051.0, 1051.0, 1051.0, 1051.0, 1051.0, 1051.0, 1051.0, 1051.0, 1051.0, 1051.0, 1051.0, 1051.0, 1051.0, 1051.0, 1051.0, 1051.0, 1051.0, 1051.0, 1051.0, 1051.0, 1051.0, 1051.0, 1051.0, 1051.0, 1051.0, 1051.0, 1051.0, 1051.0, 1051.0, 1051.0, 1051.0, 1051.0, 1051.0, 1051.0, 1051.0, 1051.0, 1051.0, 1051.0, 1051.0, 1051.0, 1051.0, 1051.0, 1051.0, 1051.0, 1051.0, 1051.0, 1051.0, 1051.0, 1051.0, 1051.0, 1051.0, 1051.0, 1051.0, 1051.0, 1051.0, 1051.0, 1051.0, 1051.0, 1051.0, 1051.0, 1051.0, 1051.0, 1051.0, 1051.0, 1051.0, 1051.0, 1051.0, 1051.0, 1051.0, 1051.0, 1051.0, 1051.0, 1051.0, 1051.0, 1051.0, 1051.0, 1051.0, 1050.0, 1051.0, 1050.0, 1051.0, 1051.0, 1051.0, 1051.0, 1051.0, 1050.0, 1051.0, 1051.0, 1051.0, 1051.0, 1050.0, 1050.0, 1050.0, 1051.0, 1051.0, 1050.0, 1051.0, 1050.0, 1051.0, 1050.0, 1050.0, 1050.0, 1050.0, 1050.0, 1050.0, 1050.0, 1050.0, 1050.0, 1050.0, 1050.0, 1050.0, 1050.0, 1050.0, 1050.0, 1050.0, 1050.0, 1050.0, 1050.0, 1050.0, 1050.0, 1050.0, 1050.0, 1050.0, 1050.0, 1050.0, 1050.0, 1050.0, 1050.0, 1050.0, 1050.0, 1050.0, 1050.0, 1050.0, 1050.0, 1050.0, 1050.0, 1050.0],
      "WindowWidth": [2351.0, 2351.0, 2351.0, 2351.0, 2351.0, 2351.0, 2351.0, 2351.0, 2351.0, 2351.0, 2351.0, 2351.0, 2351.0, 2350.0, 2351.0, 2351.0, 2351.0, 2351.0, 2350.0, 2350.0, 2351.0, 2350.0, 2350.0, 2350.0, 2350.0, 2350.0, 2350.0, 2350.0, 2350.0, 2350.0, 2350.0, 2350.0, 2350.0, 2350.0, 2350.0, 2350.0, 2350.0, 2350.0, 2350.0, 2350.0, 2350.0, 2350.0, 2350.0, 2350.0, 2350.0, 2350.0, 2350.0, 2350.0, 2350.0, 2349.0, 2350.0, 2349.0, 2350.0, 2350.0, 2349.0, 2350.0, 2349.0, 2349.0, 2349.0, 2349.0, 2349.0, 2349.0, 2349.0, 2349.0, 2349.0, 2349.0, 2349.0, 2349.0, 2349.0, 2349.0, 2349.0, 2349.0, 2349.0, 2349.0, 2349.0, 2349.0, 2349.0, 2349.0, 2349.0, 2349.0, 2349.0, 2349.0, 2349.0, 2349.0, 2349.0, 2348.0, 2349.0, 2349.0, 2349.0, 2349.0, 2348.0, 2348.0, 2349.0, 2348.0, 2348.0, 2348.0, 2348.0, 2348.0, 2348.0, 2348.0, 2348.0, 2348.0, 2348.0, 2348.0, 2348.0, 2348.0, 2348.0, 2348.0, 2348.0, 2348.0, 2348.0, 2348.0, 2348.0, 2348.0, 2348.0, 2348.0, 2348.0, 2348.0, 2348.0, 2348.0, 2348.0, 2348.0, 2348.0, 2348.0, 2348.0, 2348.0, 2347.0, 2348.0, 2347.0, 2347.0, 2347.0, 2347.0, 2347.0, 2347.0, 2348.0, 2348.0, 2347.0, 2348.0, 2347.0, 2347.0, 2347.0, 2347.0, 2347.0, 2347.0, 2347.0, 2347.0, 2347.0, 2347.0, 2347.0, 2347.0, 2347.0, 2347.0, 2347.0, 2347.0, 2347.0, 2347.0, 2347.0, 2347.0, 2347.0, 2347.0, 2347.0, 2347.0, 2347.0, 2347.0, 2347.0, 2347.0, 2347.0, 2347.0, 2347.0, 2347.0, 2346.0, 2347.0, 2347.0, 2347.0, 2347.0, 2347.0, 2347.0, 2347.0, 2347.0, 2347.0, 2347.0, 2346.0, 2347.0, 2346.0, 2347.0, 2347.0, 2346.0, 2346.0, 2346.0, 2346.0, 2346.0, 2346.0, 2346.0, 2346.0, 2346.0, 2346.0, 2346.0, 2346.0, 2346.0, 2346.0]
    },
    "slices": {}
  }
}