{
  "AcquisitionMatrixPE": 80,
  "AcquisitionNumber": 1,
  "AcquisitionTime": "09:42:24.477500",
  "BandwidthPerPixelPhaseEncode": 25,
  "BaseResolution": 80,
  "BodyPartExamined": "BRAIN",
  "CoilCombinationMethod": "Sum of Squares",
  "ConsistencyInfo": "N4_VE11E_LATEST_20181129",
  "ConversionSoftware": "dcm2niix",
  "ConversionSoftwareVersion": "v1.0.20220720",
  "DerivedVendorReportedEchoSpacing": 0.0005,
  "DeviceSerialNumber": "66112",
  "DwellTime": 2.7e-06,
  "EchoTime": 0.03,
  "EchoTrainLength": 80,
  "EffectiveEchoSpacing": 0.0005,
  "FlipAngle": 10,
  "HeudiconvVersion": "0.13.1",
  "ImageOrientationPatientDICOM": [0.990134, -0.136949, -0.029653, 0.139154, 0.93619, 0.322775],
  "ImageOrientationText": "Tra>Cor(18.9)>Sag(0.9)",
  "ImageType": [
    "ORIGINAL",
    "PRIMARY",
    "M",
    "ND",
    "NORM",
    "MOSAIC"
],
  "ImagingFrequency": 123.259,
  "InPlanePhaseEncodingDirectionDICOM": "COL",
  "InstitutionAddress": "Maynard 3,Hanover,NH,US,03755",
  "InstitutionName": "Dartmouth College - PBS",
  "InstitutionalDepartmentName": "Department",
  "MRAcquisitionType": "2D",
  "MagneticFieldStrength": 3,
  "Manufacturer": "Siemens",
  "ManufacturersModelName": "Prisma",
  "MatrixCoilMode": "SENSE",
  "Modality": "MR",
  "NonlinearGradientCorrection": false,
  "PartialFourier": 1,
  "PatientPosition": "HFS",
  "PercentPhaseFOV": 100,
  "PercentSampling": 100,
  "PhaseEncodingDirection": "j-",
  "PhaseEncodingSteps": 80,
  "PhaseResolution": 1,
  "PixelBandwidth": 2315,
  "ProcedureStepDescription": "dbic^QA",
  "ProtocolName": "func-bold_fa-10",
  "PulseSequenceDetails": "%SiemensSeq%\\ep2d_bold",
  "ReceiveCoilActiveElements": "HEA;HEP",
  "ReceiveCoilName": "Head_32",
  "ReconMatrixPE": 80,
  "RepetitionTime": 2,
  "SAR": 0.0172076,
  "ScanOptions": "FS",
  "ScanningSequence": "EP",
  "SequenceName": "*epfid2d1_80",
  "SequenceVariant": "SK",
  "SeriesDescription": "func-bold_fa-10",
  "SeriesNumber": 8,
  "ShimSetting": [4222, -7747, -7493, -20, -137, -23, 15, 82],
  "SliceThickness": 3.5,
  "SliceTiming": [0.99, 0, 1.0575, 0.0675, 1.1225, 0.1325, 1.19, 0.2, 1.255, 0.265, 1.32, 0.33, 1.3875, 0.3975, 1.4525, 0.4625, 1.52, 0.53, 1.585, 0.595, 1.65, 0.66, 1.7175, 0.7275, 1.7825, 0.7925, 1.85, 0.86, 1.915, 0.925],
  "SoftwareVersions": "syngo MR E11",
  "SpacingBetweenSlices": 3.99,
  "StationName": "AWP66112",
  "TotalReadoutTime": 0.0395,
  "TxRefAmp": 231.245,
  "dcmmeta_affine": [
    [-2.970402479171753, 0.4174629747867584, 0.06560667604207993, 99.94111633300781],
    [0.4108465611934662, 2.8085711002349854, 1.2916299104690552, -140.96604919433594],
    [-0.08895905315876007, -0.9683245420455933, 3.7745845317840576, -1.0857863426208496],
    [0.0, 0.0, 0.0, 1.0]
],
  "dcmmeta_reorient_transform": [
    [0.0, -1.0, 0.0, 79.0],
    [1.0, 0.0, 0.0, 0.0],
    [0.0, 0.0, 1.0, 0.0],
    [0.0, 0.0, 0.0, 1.0]
],
  "dcmmeta_shape": [80, 80, 30, 200],
  "dcmmeta_slice_dim": 2,
  "dcmmeta_version": 0.6,
  "global": {
    "const": {
      "AccessionNumber": "qa",
      "AcquisitionMatrix": [80, 0, 0, 80],
      "AngioFlag": "N",
      "BitsAllocated": 16,
      "BitsStored": 12,
      "BodyPartExamined": "BRAIN",
      "Columns": 480,
      "EchoNumbers": 1,
      "EchoTime": 30.0,
      "EchoTrainLength": 80,
      "FlipAngle": 10.0,
      "HighBit": 11,
      "ImageOrientationPatient": [0.99013418786215, -0.1369488538056, -0.0296530178549, 0.13915432146446, 0.9361904035811, 0.32277484886592],
      "ImagePositionPatient": [-810.4937924176, -560.45600724617, -253.45652417509],
      "ImageType": [
        "ORIGINAL",
        "PRIMARY",
        "M",
        "ND",
        "NORM",
        "MOSAIC"
],
      "ImagedNucleus": "1H",
      "ImagingFrequency": 123.259183,
      "InPlanePhaseEncodingDirection": "COL",
      "MRAcquisitionType": "2D",
      "MagneticFieldStrength": 3.0,
      "Manufacturer": "SIEMENS",
      "ManufacturerModelName": "Prisma",
      "Modality": "MR",
      "NumberOfAverages": 1.0,
      "NumberOfPhaseEncodingSteps": 80,
      "PercentPhaseFieldOfView": 100.0,
      "PercentSampling": 100.0,
      "PerformedProcedureStepStartTime": "091700.355000",
      "PhotometricInterpretation": "MONOCHROME2",
      "PixelBandwidth": 2315.0,
      "PixelRepresentation": 0,
      "PixelSpacing": [3.0, 3.0],
      "ProtocolName": "func-bold_fa-10",
      "RepetitionTime": 2000.0,
      "Rows": 480,
      "SAR": 0.01720755885844,
      "SamplesPerPixel": 1,
      "ScanOptions": "FS",
      "ScanningSequence": "EP",
      "SequenceName": "*epfid2d1_80",
      "SequenceVariant": "SK",
      "SeriesDescription": "func-bold_fa-10",
      "SeriesNumber": 8,
      "SeriesTime": "094314.556000",
      "SliceLocation": -45.016929009657,
      "SliceThickness": 3.5,
      "SmallestImagePixelValue": 0,
      "SoftwareVersions": "syngo MR E11",
      "SpacingBetweenSlices": 3.9900000569387,
      "SpecificCharacterSet": "ISO_IR 100",
      "StudyID": "36",
      "StudyTime": "091700.310000",
      "TransmitCoilName": "Body",
      "VariableFlipAngleFlag": "N",
      "WindowCenterWidthExplanation": "Algo1"
    },
    "slices": {}
  },
  "time": {
    "samples": {
      "AcquisitionNumber": [1, 2, 3, 4, 5, 6, 7, 8, 9, 10, 11, 12, 13, 14, 15, 16, 17, 18, 19, 20, 21, 22, 23, 24, 25, 26, 27, 28, 29, 30, 31, 32, 33, 34, 35, 36, 37, 38, 39, 40, 41, 42, 43, 44, 45, 46, 47, 48, 49, 50, 51, 52, 53, 54, 55, 56, 57, 58, 59, 60, 61, 62, 63, 64, 65, 66, 67, 68, 69, 70, 71, 72, 73, 74, 75, 76, 77, 78, 79, 80, 81, 82, 83, 84, 85, 86, 87, 88, 89, 90, 91, 92, 93, 94, 95, 96, 97, 98, 99, 100, 101, 102, 103, 104, 105, 106, 107, 108, 109, 110, 111, 112, 113, 114, 115, 116, 117, 118, 119, 120, 121, 122, 123, 124, 125, 126, 127, 128, 129, 130, 131, 132, 133, 134, 135, 136, 137, 138, 139, 140, 141, 142, 143, 144, 145, 146, 147, 148, 149, 150, 151, 152, 153, 154, 155, 156, 157, 158, 159, 160, 161, 162, 163, 164, 165, 166, 167, 168, 169, 170, 171, 172, 173, 174, 175, 176, 177, 178, 179, 180, 181, 182, 183, 184, 185, 186, 187, 188, 189, 190, 191, 192, 193, 194, 195, 196, 197, 198, 199, 200],
      "AcquisitionTime": ["094224.477500", "094226.477500", "094228.477500", "094230.477500", "094232.477500", "094234.477500", "094236.477500", "094238.477500", "094240.477500", "094242.477500", "094244.477500", "094246.477500", "094248.477500", "094250.477500", "094252.477500", "094254.477500", "094256.477500", "094258.477500", "094300.477500", "094302.477500", "094304.477500", "094306.477500", "094308.477500", "094310.477500", "094312.477500", "094314.477500", "094316.477500", "094318.477500", "094320.477500", "094322.477500", "094324.477500", "094326.477500", "094328.477500", "094330.477500", "094332.477500", "094334.477500", "094336.477500", "094338.477500", "094340.477500", "094342.477500", "094344.477500", "094346.477500", "094348.477500", "094350.477500", "094352.477500", "094354.477500", "094356.477500", "094358.477500", "094400.477500", "094402.477500", "094404.477500", "094406.477500", "094408.477500", "094410.477500", "094412.477500", "094414.477500", "094416.477500", "094418.477500", "094420.477500", "094422.477500", "094424.477500", "094426.477500", "094428.477500", "094430.477500", "094432.477500", "094434.477500", "094436.477500", "094438.477500", "094440.477500", "094442.477500", "094444.477500", "094446.477500", "094448.477500", "094450.477500", "094452.477500", "094454.477500", "094456.477500", "094458.477500", "094500.477500", "094502.477500", "094504.477500", "094506.477500", "094508.477500", "094510.477500", "094512.477500", "094514.477500", "094516.477500", "094518.477500", "094520.477500", "094522.477500", "094524.477500", "094526.477500", "094528.477500", "094530.477500", "094532.477500", "094534.477500", "094536.477500", "094538.477500", "094540.477500", "094542.477500", "094544.477500", "094546.477500", "094548.477500", "094550.477500", "094552.477500", "094554.477500", "094556.477500", "094558.477500", "094600.477500", "094602.477500", "094604.477500", "094606.477500", "094608.477500", "094610.477500", "094612.477500", "094614.477500", "094616.477500", "094618.477500", "094620.477500", "094622.477500", "094624.477500", "094626.477500", "094628.477500", "094630.477500", "094632.477500", "094634.477500", "094636.477500", "094638.477500", "094640.477500", "094642.477500", "094644.477500", "094646.477500", "094648.477500", "094650.477500", "094652.477500", "094654.477500", "094656.477500", "094658.477500", "094700.477500", "094702.477500", "094704.477500", "094706.477500", "094708.477500", "094710.477500", "094712.477500", "094714.477500", "094716.477500", "094718.477500", "094720.477500", "094722.477500", "094724.477500", "094726.477500", "094728.477500", "094730.477500", "094732.477500", "094734.477500", "094736.477500", "094738.477500", "094740.477500", "094742.477500", "094744.477500", "094746.477500", "094748.477500", "094750.477500", "094752.477500", "094754.477500", "094756.477500", "094758.477500", "094800.477500", "094802.477500", "094804.477500", "094806.477500", "094808.477500", "094810.477500", "094812.477500", "094814.477500", "094816.477500", "094818.477500", "094820.477500", "094822.477500", "094824.477500", "094826.477500", "094828.477500", "094830.477500", "094832.477500", "094834.477500", "094836.477500", "094838.477500", "094840.477500", "094842.477500", "094844.477500", "094846.477500", "094848.477500", "094850.477500", "094852.477500", "094854.477500", "094856.477500", "094858.477500", "094900.477500", "094902.477500"],
      "ContentTime": ["094314.559000", "094314.562000", "094314.564000", "094314.567000", "094314.569000", "094314.571000", "094314.574000", "094314.576000", "094314.578000", "094314.581000", "094314.583000", "094314.585000", "094314.595000", "094314.598000", "094314.600000", "094314.602000", "094314.605000", "094314.607000", "094314.609000", "094314.612000", "094314.614000", "094314.624000", "094314.626000", "094314.629000", "094314.631000", "094354.554000", "094354.557000", "094354.559000", "094354.561000", "094354.564000", "094354.566000", "094354.568000", "094354.571000", "094354.573000", "094354.575000", "094354.578000", "094354.580000", "094354.582000", "094354.584000", "094354.587000", "094354.589000", "094354.592000", "094354.594000", "094354.596000", "094354.599000", "094434.555000", "094434.558000", "094434.560000", "094434.562000", "094434.565000", "094434.567000", "094434.569000", "094434.571000", "094434.574000", "094434.576000", "094434.578000", "094434.581000", "094434.583000", "094434.585000", "094434.588000", "094434.590000", "094434.592000", "094434.595000", "094434.597000", "094434.599000", "094514.554000", "094514.557000", "094514.559000", "094514.561000", "094514.564000", "094514.566000", "094514.568000", "094514.570000", "094514.573000", "094514.575000", "094514.577000", "094514.580000", "094514.582000", "094514.584000", "094514.586000", "094514.589000", "094514.591000", "094514.594000", "094514.596000", "094514.598000", "094554.554000", "094554.557000", "094554.559000", "094554.561000", "094554.564000", "094554.566000", "094554.568000", "094554.571000", "094554.573000", "094554.575000", "094554.578000", "094554.580000", "094554.582000", "094554.585000", "094554.587000", "094554.589000", "094554.592000", "094554.594000", "094554.596000", "094554.599000", "094634.555000", "094634.558000", "094634.560000", "094634.562000", "094634.565000", "094634.567000", "094634.569000", "094634.572000", "094634.574000", "094634.577000", "094634.579000", "094634.581000", "094634.583000", "094634.586000", "094634.588000", "094634.590000", "094634.593000", "094634.595000", "094634.597000", "094634.600000", "094714.555000", "094714.558000", "094714.560000", "094714.562000", "094714.565000", "094714.567000", "094714.569000", "094714.572000", "094714.574000", "094714.576000", "094714.579000", "094714.581000", "094714.583000", "094714.586000", "094714.588000", "094714.590000", "094714.593000", "094714.595000", "094714.597000", "094714.600000", "094754.554000", "094754.557000", "094754.559000", "094754.561000", "094754.564000", "094754.566000", "094754.568000", "094754.571000", "094754.573000", "094754.575000", "094754.588000", "094754.590000", "094754.593000", "094754.595000", "094754.597000", "094754.599000", "094754.602000", "094754.604000", "094754.606000", "094754.609000", "094834.554000", "094834.557000", "094834.559000", "094834.561000", "094834.564000", "094834.566000", "094834.568000", "094834.571000", "094834.573000", "094834.576000", "094834.578000", "094834.580000", "094834.583000", "094834.585000", "094834.587000", "094834.589000", "094834.592000", "094834.594000", "094834.597000", "094834.599000", "094904.443000", "094904.446000", "094904.448000", "094904.450000", "094904.453000", "094904.455000", "094904.458000", "094904.460000", "094904.462000", "094904.465000", "094904.467000", "094904.469000", "094904.472000", "094904.475000", "094904.485000"],
      "InstanceCreationTime": ["094314.559000", "094314.562000", "094314.564000", "094314.567000", "094314.569000", "094314.571000", "094314.574000", "094314.576000", "094314.578000", "094314.581000", "094314.583000", "094314.585000", "094314.595000", "094314.598000", "094314.600000", "094314.602000", "094314.605000", "094314.607000", "094314.609000", "094314.612000", "094314.614000", "094314.624000", "094314.626000", "094314.629000", "094314.631000", "094354.554000", "094354.557000", "094354.559000", "094354.561000", "094354.564000", "094354.566000", "094354.568000", "094354.571000", "094354.573000", "094354.575000", "094354.578000", "094354.580000", "094354.582000", "094354.584000", "094354.587000", "094354.589000", "094354.592000", "094354.594000", "094354.596000", "094354.599000", "094434.555000", "094434.558000", "094434.560000", "094434.562000", "094434.565000", "094434.567000", "094434.569000", "094434.571000", "094434.574000", "094434.576000", "094434.578000", "094434.581000", "094434.583000", "094434.585000", "094434.588000", "094434.590000", "094434.592000", "094434.595000", "094434.597000", "094434.599000", "094514.554000", "094514.557000", "094514.559000", "094514.561000", "094514.564000", "094514.566000", "094514.568000", "094514.570000", "094514.573000", "094514.575000", "094514.577000", "094514.580000", "094514.582000", "094514.584000", "094514.586000", "094514.589000", "094514.591000", "094514.594000", "094514.596000", "094514.598000", "094554.554000", "094554.557000", "094554.559000", "094554.561000", "094554.564000", "094554.566000", "094554.568000", "094554.571000", "094554.573000", "094554.575000", "094554.578000", "094554.580000", "094554.582000", "094554.585000", "094554.587000", "094554.589000", "094554.592000", "094554.594000", "094554.596000", "094554.599000", "094634.555000", "094634.558000", "094634.560000", "094634.562000", "094634.565000", "094634.567000", "094634.569000", "094634.572000", "094634.574000", "094634.577000", "094634.579000", "094634.581000", "094634.583000", "094634.586000", "094634.588000", "094634.590000", "094634.593000", "094634.595000", "094634.597000", "094634.600000", "094714.555000", "094714.558000", "094714.560000", "094714.562000", "094714.565000", "094714.567000", "094714.569000", "094714.572000", "094714.574000", "094714.576000", "094714.579000", "094714.581000", "094714.583000", "094714.586000", "094714.588000", "094714.590000", "094714.593000", "094714.595000", "094714.597000", "094714.600000", "094754.554000", "094754.557000", "094754.559000", "094754.561000", "094754.564000", "094754.566000", "094754.568000", "094754.571000", "094754.573000", "094754.575000", "094754.588000", "094754.590000", "094754.593000", "094754.595000", "094754.597000", "094754.599000", "094754.602000", "094754.604000", "094754.606000", "094754.609000", "094834.554000", "094834.557000", "094834.559000", "094834.561000", "094834.564000", "094834.566000", "094834.568000", "094834.571000", "094834.573000", "094834.576000", "094834.578000", "094834.580000", "094834.583000", "094834.585000", "094834.587000", "094834.589000", "094834.592000", "094834.594000", "094834.597000", "094834.599000", "094904.443000", "094904.446000", "094904.448000", "094904.450000", "094904.453000", "094904.455000", "094904.458000", "094904.460000", "094904.462000", "094904.465000", "094904.467000", "094904.469000", "094904.472000", "094904.475000", "094904.485000"],
      "InstanceNumber": [1, 2, 3, 4, 5, 6, 7, 8, 9, 10, 11, 12, 13, 14, 15, 16, 17, 18, 19, 20, 21, 22, 23, 24, 25, 26, 27, 28, 29, 30, 31, 32, 33, 34, 35, 36, 37, 38, 39, 40, 41, 42, 43, 44, 45, 46, 47, 48, 49, 50, 51, 52, 53, 54, 55, 56, 57, 58, 59, 60, 61, 62, 63, 64, 65, 66, 67, 68, 69, 70, 71, 72, 73, 74, 75, 76, 77, 78, 79, 80, 81, 82, 83, 84, 85, 86, 87, 88, 89, 90, 91, 92, 93, 94, 95, 96, 97, 98, 99, 100, 101, 102, 103, 104, 105, 106, 107, 108, 109, 110, 111, 112, 113, 114, 115, 116, 117, 118, 119, 120, 121, 122, 123, 124, 125, 126, 127, 128, 129, 130, 131, 132, 133, 134, 135, 136, 137, 138, 139, 140, 141, 142, 143, 144, 145, 146, 147, 148, 149, 150, 151, 152, 153, 154, 155, 156, 157, 158, 159, 160, 161, 162, 163, 164, 165, 166, 167, 168, 169, 170, 171, 172, 173, 174, 175, 176, 177, 178, 179, 180, 181, 182, 183, 184, 185, 186, 187, 188, 189, 190, 191, 192, 193, 194, 195, 196, 197, 198, 199, 200],
      "LargestImagePixelValue": [397, 396, 397, 398, 398, 400, 400, 400, 399, 398, 398, 398, 397, 399, 398, 397, 399, 399, 399, 399, 397, 399, 397, 397, 397, 399, 398, 398, 399, 398, 398, 398, 396, 399, 399, 400, 399, 399, 400, 399, 399, 398, 397, 399, 398, 398, 398, 398, 399, 398, 400, 398, 397, 399, 397, 398, 399, 399, 400, 399, 399, 400, 398, 397, 398, 398, 397, 400, 397, 398, 398, 398, 399, 399, 396, 397, 398, 398, 399, 400, 400, 398, 398, 400, 396, 398, 396, 398, 398, 398, 400, 399, 399, 397, 396, 397, 397, 397, 399, 397, 398, 399, 399, 397, 398, 397, 397, 397, 397, 399, 400, 399, 398, 399, 396, 397, 396, 396, 398, 400, 398, 399, 398, 397, 398, 397, 397, 396, 396, 397, 398, 399, 397, 398, 399, 399, 397, 395, 399, 398, 398, 397, 398, 400, 399, 399, 398, 397, 396, 398, 398, 399, 399, 399, 399, 398, 397, 397, 397, 396, 398, 399, 397, 398, 398, 398, 396, 398, 397, 395, 397, 398, 399, 398, 398, 399, 398, 398, 398, 397, 398, 397, 395, 398, 398, 399, 398, 396, 397, 396, 397, 397, 396, 398, 398, 396, 398, 398, 398, 397],
      "WindowCenter": [313.0, 313.0, 313.0, 313.0, 313.0, 313.0, 313.0, 313.0, 312.0, 313.0, 313.0, 313.0, 313.0, 313.0, 313.0, 313.0, 313.0, 313.0, 313.0, 313.0, 313.0, 313.0, 313.0, 313.0, 313.0, 313.0, 313.0, 313.0, 313.0, 313.0, 313.0, 313.0, 313.0, 313.0, 313.0, 313.0, 313.0, 312.0, 313.0, 313.0, 313.0, 313.0, 313.0, 313.0, 313.0, 313.0, 313.0, 313.0, 313.0, 313.0, 313.0, 313.0, 313.0, 313.0, 313.0, 312.0, 313.0, 313.0, 313.0, 313.0, 313.0, 313.0, 312.0, 312.0, 313.0, 313.0, 313.0, 312.0, 313.0, 313.0, 313.0, 313.0, 313.0, 313.0, 313.0, 312.0, 312.0, 312.0, 313.0, 312.0, 313.0, 313.0, 313.0, 313.0, 313.0, 313.0, 312.0, 313.0, 312.0, 312.0, 312.0, 313.0, 313.0, 313.0, 313.0, 313.0, 313.0, 312.0, 312.0, 312.0, 312.0, 313.0, 313.0, 313.0, 313.0, 313.0, 312.0, 312.0, 312.0, 312.0, 312.0, 312.0, 313.0, 313.0, 313.0, 313.0, 312.0, 312.0, 312.0, 312.0, 312.0, 312.0, 312.0, 313.0, 313.0, 313.0, 313.0, 313.0, 312.0, 312.0, 312.0, 313.0, 312.0, 313.0, 313.0, 313.0, 313.0, 312.0, 312.0, 312.0, 312.0, 312.0, 312.0, 313.0, 313.0, 313.0, 313.0, 312.0, 312.0, 312.0, 312.0, 312.0, 312.0, 312.0, 312.0, 313.0, 312.0, 312.0, 313.0, 312.0, 312.0, 312.0, 312.0, 312.0, 312.0, 312.0, 312.0, 313.0, 312.0, 312.0, 312.0, 312.0, 312.0, 312.0, 312.0, 312.0, 312.0, 312.0, 312.0, 312.0, 312.0, 312.0, 312.0, 312.0, 312.0, 312.0, 312.0, 312.0, 313.0, 312.0, 312.0, 312.0, 312.0, 312.0, 312.0, 311.0, 312.0, 312.0, 312.0, 312.0],
      "WindowWidth": [674.0, 674.0, 674.0, 674.0, 674.0, 674.0, 675.0, 674.0, 674.0, 675.0, 674.0, 674.0, 674.0, 674.0, 674.0, 674.0, 674.0, 674.0, 675.0, 674.0, 674.0, 674.0, 674.0, 674.0, 674.0, 674.0, 674.0, 674.0, 674.0, 674.0, 674.0, 674.0, 674.0, 674.0, 674.0, 674.0, 674.0, 673.0, 674.0, 674.0, 674.0, 674.0, 674.0, 674.0, 674.0, 674.0, 674.0, 674.0, 674.0, 674.0, 674.0, 674.0, 674.0, 674.0, 674.0, 673.0, 674.0, 674.0, 674.0, 674.0, 674.0, 674.0, 674.0, 673.0, 674.0, 674.0, 674.0, 673.0, 674.0, 674.0, 674.0, 674.0, 674.0, 674.0, 674.0, 673.0, 673.0, 673.0, 674.0, 673.0, 674.0, 674.0, 674.0, 674.0, 674.0, 674.0, 673.0, 674.0, 673.0, 673.0, 673.0, 674.0, 674.0, 674.0, 674.0, 674.0, 674.0, 673.0, 673.0, 673.0, 673.0, 674.0, 674.0, 674.0, 674.0, 674.0, 673.0, 673.0, 673.0, 673.0, 673.0, 673.0, 674.0, 674.0, 674.0, 674.0, 673.0, 673.0, 673.0, 672.0, 673.0, 673.0, 673.0, 674.0, 674.0, 674.0, 674.0, 673.0, 673.0, 673.0, 673.0, 674.0, 673.0, 674.0, 674.0, 674.0, 674.0, 673.0, 673.0, 673.0, 673.0, 673.0, 673.0, 674.0, 674.0, 674.0, 674.0, 673.0, 673.0, 673.0, 673.0, 673.0, 673.0, 673.0, 673.0, 674.0, 673.0, 673.0, 674.0, 673.0, 673.0, 673.0, 673.0, 673.0, 673.0, 673.0, 673.0, 674.0, 673.0, 673.0, 673.0, 673.0, 673.0, 673.0, 673.0, 673.0, 673.0, 673.0, 673.0, 673.0, 673.0, 672.0, 673.0, 673.0, 673.0, 673.0, 673.0, 673.0, 674.0, 673.0, 673.0, 673.0, 673.0, 673.0, 673.0, 672.0, 673.0, 673.0, 672.0, 673.0]
    },
    "slices": {}
  }
}