{
  "AcquisitionMatrixPE": 80,
  "AcquisitionNumber": 1,
  "AcquisitionTime": "08:43:18.812500",
  "BandwidthPerPixelPhaseEncode": 48.077,
  "BaseResolution": 80,
  "BodyPartExamined": "BRAIN",
  "CoilCombinationMethod": "Sum of Squares",
  "ConsistencyInfo": "N4_VE11C_LATEST_20160120",
  "ConversionSoftware": "dcm2niix",
  "ConversionSoftwareVersion": "v1.0.20220720",
  "DerivedVendorReportedEchoSpacing": 0.000519999,
  "DeviceSerialNumber": "66112",
  "DwellTime": 2.7e-06,
  "EchoTime": 0.035,
  "EchoTrainLength": 39,
  "EffectiveEchoSpacing": 0.00026,
  "FlipAngle": 90,
  "HeudiconvVersion": "0.13.1",
  "ImageOrientationPatientDICOM": [0.984869, -0.173289, -0.00206196, 0.164987, 0.933913, 0.317154],
  "ImageOrientationText": "Tra>Cor(18.2)>Sag(3.0)",
  "ImageType": [
    "ORIGINAL",
    "PRIMARY",
    "M",
    "ND",
    "NORM",
    "MOSAIC"
],
  "ImagingFrequency": 123.252,
  "InPlanePhaseEncodingDirectionDICOM": "COL",
  "InstitutionAddress": "Maynard 3,Hanover,NH,US,03755",
  "InstitutionName": "Dartmouth College - PBS",
  "InstitutionalDepartmentName": "Department",
  "MRAcquisitionType": "2D",
  "MagneticFieldStrength": 3,
  "Manufacturer": "Siemens",
  "ManufacturersModelName": "Prisma",
  "MatrixCoilMode": "GRAPPA",
  "Modality": "MR",
  "NonlinearGradientCorrection": false,
  "ParallelReductionFactorInPlane": 2,
  "PartialFourier": 1,
  "PatientPosition": "HFS",
  "PercentPhaseFOV": 100,
  "PercentSampling": 100,
  "PhaseEncodingDirection": "j-",
  "PhaseEncodingSteps": 79,
  "PhaseResolution": 1,
  "PixelBandwidth": 2315,
  "ProcedureStepDescription": "dbic^QA",
  "ProtocolName": "func-bold_task-rest_acq-p2",
  "PulseSequenceDetails": "%SiemensSeq%\\ep2d_bold",
  "ReceiveCoilActiveElements": "HC1-7;NC1,2",
  "ReceiveCoilName": "HeadNeck_64",
  "ReconMatrixPE": 80,
  "RefLinesPE": 24,
  "RepetitionTime": 2,
  "SAR": 0.041101,
  "ScanOptions": "FS",
  "ScanningSequence": "EP",
  "SequenceName": "*epfid2d1_80",
  "SequenceVariant": "SK",
  "SeriesDescription": "func-bold_task-rest_acq-p2",
  "SeriesNumber": 5,
  "ShimSetting": [4139, -7707, -7510, 227, -56, -348, -23, 112],
  "SliceThickness": 3.5,
  "SliceTiming": [0.99, 0, 1.0575, 0.0675, 1.1225, 0.1325, 1.1875, 0.1975, 1.255, 0.265, 1.32, 0.33, 1.3875, 0.3975, 1.4525, 0.4625, 1.5175, 0.5275, 1.585, 0.595, 1.65, 0.66, 1.7175, 0.7275, 1.7825, 0.7925, 1.8475, 0.8575, 1.915, 0.925],
  "SoftwareVersions": "syngo MR E11",
  "SpacingBetweenSlices": 3.99,
  "StationName": "AWP66112",
  "TaskName": "rest",
  "TotalReadoutTime": 0.02054,
  "TxRefAmp": 211.061,
  "dcmmeta_affine": [
    [-2.954606533050537, 0.49496179819107056, 0.21160417795181274, 98.27630615234375],
    [0.5198673009872437, 2.8017375469207764, 1.2476539611816406, -134.21633911132812],
    [-0.006185886450111866, -0.9514618515968323, 3.784003496170044, -19.0267276763916],
    [0.0, 0.0, 0.0, 1.0]
],
  "dcmmeta_reorient_transform": [
    [0.0, -1.0, 0.0, 79.0],
    [1.0, 0.0, 0.0, 0.0],
    [0.0, 0.0, 1.0, 0.0],
    [0.0, 0.0, 0.0, 1.0]
],
  "dcmmeta_shape": [80, 80, 30, 200],
  "dcmmeta_slice_dim": 2,
  "dcmmeta_version": 0.6,
  "global": {
    "const": {
      "AccessionNumber": "qa64",
      "AcquisitionMatrix": [80, 0, 0, 80],
      "AngioFlag": "N",
      "BitsAllocated": 16,
      "BitsStored": 12,
      "BodyPartExamined": "BRAIN",
      "Columns": 480,
      "EchoNumbers": 1,
      "EchoTime": 35.0,
      "EchoTrainLength": 39,
      "FlipAngle": 90.0,
      "HighBit": 11,
      "ImageOrientationPatient": [0.98486884248821, -0.1732890977752, -0.0020619622181, 0.16498726377179, 0.93391250868509, 0.31715395144096],
      "ImagePositionPatient": [-827.2919479503, -543.49497144424, -283.24740823537],
      "ImageType": [
        "ORIGINAL",
        "PRIMARY",
        "M",
        "ND",
        "NORM",
        "MOSAIC"
],
      "ImagedNucleus": "1H",
      "ImagingFrequency": 123.252336,
      "InPlanePhaseEncodingDirection": "COL",
      "MRAcquisitionType": "2D",
      "MagneticFieldStrength": 3.0,
      "Manufacturer": "SIEMENS",
      "ManufacturerModelName": "Prisma",
      "Modality": "MR",
      "NumberOfAverages": 1.0,
      "NumberOfPhaseEncodingSteps": 79,
      "PercentPhaseFieldOfView": 100.0,
      "PercentSampling": 100.0,
      "PerformedProcedureStepStartTime": "083941.653000",
      "PhotometricInterpretation": "MONOCHROME2",
      "PixelBandwidth": 2315.0,
      "PixelRepresentation": 0,
      "PixelSpacing": [3.0, 3.0],
      "ProtocolName": "func-bold_task-rest_acq-p2",
      "RepetitionTime": 2000.0,
      "Rows": 480,
      "SAR": 0.04110096452613,
      "SamplesPerPixel": 1,
      "ScanOptions": "FS",
      "ScanningSequence": "EP",
      "SequenceName": "*epfid2d1_80",
      "SequenceVariant": "SK",
      "SeriesDescription": "func-bold_task-rest_acq-p2",
      "SeriesNumber": 5,
      "SeriesTime": "084411.372000",
      "SliceLocation": -54.801274796322,
      "SliceThickness": 3.5,
      "SmallestImagePixelValue": 0,
      "SoftwareVersions": "syngo MR E11",
      "SpacingBetweenSlices": 3.9899999903302,
      "SpecificCharacterSet": "ISO_IR 100",
      "StudyID": "4",
      "StudyTime": "083941.519000",
      "TransmitCoilName": "Body",
      "VariableFlipAngleFlag": "N",
      "WindowCenterWidthExplanation": "Algo1",
      "dBdt": 0.0},
    "slices": {}
  },
  "time": {
    "samples": {
      "AcquisitionNumber": [1, 2, 3, 4, 5, 6, 7, 8, 9, 10, 11, 12, 13, 14, 15, 16, 17, 18, 19, 20, 21, 22, 23, 24, 25, 26, 27, 28, 29, 30, 31, 32, 33, 34, 35, 36, 37, 38, 39, 40, 41, 42, 43, 44, 45, 46, 47, 48, 49, 50, 51, 52, 53, 54, 55, 56, 57, 58, 59, 60, 61, 62, 63, 64, 65, 66, 67, 68, 69, 70, 71, 72, 73, 74, 75, 76, 77, 78, 79, 80, 81, 82, 83, 84, 85, 86, 87, 88, 89, 90, 91, 92, 93, 94, 95, 96, 97, 98, 99, 100, 101, 102, 103, 104, 105, 106, 107, 108, 109, 110, 111, 112, 113, 114, 115, 116, 117, 118, 119, 120, 121, 122, 123, 124, 125, 126, 127, 128, 129, 130, 131, 132, 133, 134, 135, 136, 137, 138, 139, 140, 141, 142, 143, 144, 145, 146, 147, 148, 149, 150, 151, 152, 153, 154, 155, 156, 157, 158, 159, 160, 161, 162, 163, 164, 165, 166, 167, 168, 169, 170, 171, 172, 173, 174, 175, 176, 177, 178, 179, 180, 181, 182, 183, 184, 185, 186, 187, 188, 189, 190, 191, 192, 193, 194, 195, 196, 197, 198, 199, 200],
      "AcquisitionTime": ["084318.812500", "084320.812500", "084322.812500", "084324.812500", "084326.812500", "084328.812500", "084330.812500", "084332.812500", "084334.812500", "084336.812500", "084338.812500", "084340.812500", "084342.812500", "084344.812500", "084346.812500", "084348.812500", "084350.812500", "084352.812500", "084354.812500", "084356.812500", "084358.812500", "084400.812500", "084402.812500", "084404.812500", "084406.812500", "084408.812500", "084410.812500", "084412.812500", "084414.812500", "084416.812500", "084418.812500", "084420.812500", "084422.812500", "084424.812500", "084426.812500", "084428.812500", "084430.812500", "084432.812500", "084434.812500", "084436.812500", "084438.812500", "084440.812500", "084442.812500", "084444.812500", "084446.812500", "084448.812500", "084450.812500", "084452.812500", "084454.812500", "084456.812500", "084458.812500", "084500.812500", "084502.812500", "084504.812500", "084506.812500", "084508.812500", "084510.812500", "084512.812500", "084514.812500", "084516.812500", "084518.812500", "084520.812500", "084522.812500", "084524.812500", "084526.812500", "084528.812500", "084530.812500", "084532.812500", "084534.812500", "084536.812500", "084538.812500", "084540.812500", "084542.812500", "084544.812500", "084546.812500", "084548.812500", "084550.812500", "084552.812500", "084554.812500", "084556.812500", "084558.812500", "084600.812500", "084602.812500", "084604.812500", "084606.812500", "084608.812500", "084610.812500", "084612.812500", "084614.812500", "084616.812500", "084618.812500", "084620.812500", "084622.812500", "084624.812500", "084626.812500", "084628.812500", "084630.812500", "084632.812500", "084634.812500", "084636.812500", "084638.812500", "084640.812500", "084642.812500", "084644.812500", "084646.812500", "084648.812500", "084650.812500", "084652.812500", "084654.812500", "084656.812500", "084658.812500", "084700.812500", "084702.812500", "084704.812500", "084706.812500", "084708.812500", "084710.812500", "084712.812500", "084714.812500", "084716.812500", "084718.812500", "084720.812500", "084722.812500", "084724.812500", "084726.812500", "084728.812500", "084730.812500", "084732.812500", "084734.812500", "084736.812500", "084738.812500", "084740.812500", "084742.812500", "084744.812500", "084746.812500", "084748.812500", "084750.812500", "084752.812500", "084754.812500", "084756.812500", "084758.812500", "084800.812500", "084802.812500", "084804.812500", "084806.812500", "084808.812500", "084810.812500", "084812.812500", "084814.812500", "084816.812500", "084818.812500", "084820.812500", "084822.812500", "084824.812500", "084826.812500", "084828.812500", "084830.812500", "084832.812500", "084834.812500", "084836.812500", "084838.812500", "084840.812500", "084842.812500", "084844.812500", "084846.812500", "084848.812500", "084850.812500", "084852.812500", "084854.812500", "084856.812500", "084858.812500", "084900.812500", "084902.812500", "084904.812500", "084906.812500", "084908.812500", "084910.812500", "084912.812500", "084914.812500", "084916.812500", "084918.812500", "084920.812500", "084922.812500", "084924.812500", "084926.812500", "084928.812500", "084930.812500", "084932.812500", "084934.812500", "084936.812500", "084938.812500", "084940.812500", "084942.812500", "084944.812500", "084946.812500", "084948.812500", "084950.812500", "084952.812500", "084954.812500", "084956.812500"],
      "ContentTime": ["084411.376000", "084411.379000", "084411.382000", "084411.385000", "084411.387000", "084411.396000", "084411.399000", "084411.401000", "084411.404000", "084411.406000", "084411.409000", "084411.412000", "084411.414000", "084411.417000", "084411.420000", "084411.422000", "084411.425000", "084411.427000", "084411.430000", "084411.433000", "084411.435000", "084411.438000", "084411.441000", "084411.443000", "084411.446000", "084411.449000", "084451.371000", "084451.374000", "084451.376000", "084451.379000", "084451.382000", "084451.384000", "084451.387000", "084451.390000", "084451.392000", "084451.395000", "084451.398000", "084451.400000", "084451.403000", "084451.406000", "084451.408000", "084451.411000", "084451.413000", "084451.422000", "084451.424000", "084451.427000", "084531.370000", "084531.373000", "084531.376000", "084531.379000", "084531.381000", "084531.384000", "084531.387000", "084531.389000", "084531.392000", "084531.394000", "084531.397000", "084531.400000", "084531.402000", "084531.405000", "084531.408000", "084531.410000", "084531.413000", "084531.415000", "084531.418000", "084531.421000", "084611.371000", "084611.374000", "084611.376000", "084611.379000", "084611.382000", "084611.384000", "084611.387000", "084611.389000", "084611.392000", "084611.395000", "084611.397000", "084611.400000", "084611.403000", "084611.405000", "084611.408000", "084611.410000", "084611.413000", "084611.416000", "084611.418000", "084611.421000", "084651.371000", "084651.373000", "084651.376000", "084651.379000", "084651.381000", "084651.384000", "084651.387000", "084651.389000", "084651.392000", "084651.395000", "084651.398000", "084651.400000", "084651.403000", "084651.406000", "084651.408000", "084651.411000", "084651.414000", "084651.416000", "084651.419000", "084651.421000", "084731.381000", "084731.384000", "084731.386000", "084731.389000", "084731.392000", "084731.394000", "084731.397000", "084731.399000", "084731.402000", "084731.405000", "084731.407000", "084731.410000", "084731.417000", "084731.420000", "084731.423000", "084731.425000", "084731.428000", "084731.431000", "084731.433000", "084731.436000", "084811.371000", "084811.373000", "084811.376000", "084811.379000", "084811.381000", "084811.384000", "084811.387000", "084811.389000", "084811.392000", "084811.395000", "084811.397000", "084811.400000", "084811.402000", "084811.405000", "084811.408000", "084811.410000", "084811.413000", "084811.416000", "084811.418000", "084811.421000", "084851.371000", "084851.373000", "084851.376000", "084851.379000", "084851.381000", "084851.384000", "084851.387000", "084851.404000", "084851.407000", "084851.409000", "084851.412000", "084851.415000", "084851.417000", "084851.420000", "084851.423000", "084851.425000", "084851.428000", "084851.431000", "084851.433000", "084851.436000", "084931.371000", "084931.373000", "084931.376000", "084931.379000", "084931.381000", "084931.384000", "084931.387000", "084931.389000", "084931.392000", "084931.395000", "084931.397000", "084931.400000", "084931.403000", "084931.405000", "084931.408000", "084931.410000", "084931.413000", "084931.416000", "084931.418000", "084931.421000", "084958.752000", "084958.755000", "084958.758000", "084958.760000", "084958.763000", "084958.766000", "084958.769000", "084958.771000", "084958.774000", "084958.777000", "084958.780000", "084958.793000", "084958.797000", "084958.802000"],
      "InstanceCreationTime": ["084411.376000", "084411.379000", "084411.382000", "084411.385000", "084411.387000", "084411.396000", "084411.399000", "084411.401000", "084411.404000", "084411.406000", "084411.409000", "084411.412000", "084411.414000", "084411.417000", "084411.420000", "084411.422000", "084411.425000", "084411.427000", "084411.430000", "084411.433000", "084411.435000", "084411.438000", "084411.441000", "084411.443000", "084411.446000", "084411.449000", "084451.371000", "084451.374000", "084451.376000", "084451.379000", "084451.382000", "084451.384000", "084451.387000", "084451.390000", "084451.392000", "084451.395000", "084451.398000", "084451.400000", "084451.403000", "084451.406000", "084451.408000", "084451.411000", "084451.413000", "084451.422000", "084451.424000", "084451.427000", "084531.370000", "084531.373000", "084531.376000", "084531.379000", "084531.381000", "084531.384000", "084531.387000", "084531.389000", "084531.392000", "084531.394000", "084531.397000", "084531.400000", "084531.402000", "084531.405000", "084531.408000", "084531.410000", "084531.413000", "084531.415000", "084531.418000", "084531.421000", "084611.371000", "084611.374000", "084611.376000", "084611.379000", "084611.382000", "084611.384000", "084611.387000", "084611.389000", "084611.392000", "084611.395000", "084611.397000", "084611.400000", "084611.403000", "084611.405000", "084611.408000", "084611.410000", "084611.413000", "084611.416000", "084611.418000", "084611.421000", "084651.371000", "084651.373000", "084651.376000", "084651.379000", "084651.381000", "084651.384000", "084651.387000", "084651.389000", "084651.392000", "084651.395000", "084651.398000", "084651.400000", "084651.403000", "084651.406000", "084651.408000", "084651.411000", "084651.414000", "084651.416000", "084651.419000", "084651.421000", "084731.381000", "084731.384000", "084731.386000", "084731.389000", "084731.392000", "084731.394000", "084731.397000", "084731.399000", "084731.402000", "084731.405000", "084731.407000", "084731.410000", "084731.417000", "084731.420000", "084731.423000", "084731.425000", "084731.428000", "084731.431000", "084731.433000", "084731.436000", "084811.371000", "084811.373000", "084811.376000", "084811.379000", "084811.381000", "084811.384000", "084811.387000", "084811.389000", "084811.392000", "084811.395000", "084811.397000", "084811.400000", "084811.402000", "084811.405000", "084811.408000", "084811.410000", "084811.413000", "084811.416000", "084811.418000", "084811.421000", "084851.371000", "084851.373000", "084851.376000", "084851.379000", "084851.381000", "084851.384000", "084851.387000", "084851.404000", "084851.407000", "084851.409000", "084851.412000", "084851.415000", "084851.417000", "084851.420000", "084851.423000", "084851.425000", "084851.428000", "084851.431000", "084851.433000", "084851.436000", "084931.371000", "084931.373000", "084931.376000", "084931.379000", "084931.381000", "084931.384000", "084931.387000", "084931.389000", "084931.392000", "084931.395000", "084931.397000", "084931.400000", "084931.403000", "084931.405000", "084931.408000", "084931.410000", "084931.413000", "084931.416000", "084931.418000", "084931.421000", "084958.752000", "084958.755000", "084958.758000", "084958.760000", "084958.763000", "084958.766000", "084958.769000", "084958.771000", "084958.774000", "084958.777000", "084958.780000", "084958.793000", "084958.797000", "084958.802000"],
      "InstanceNumber": [1, 2, 3, 4, 5, 6, 7, 8, 9, 10, 11, 12, 13, 14, 15, 16, 17, 18, 19, 20, 21, 22, 23, 24, 25, 26, 27, 28, 29, 30, 31, 32, 33, 34, 35, 36, 37, 38, 39, 40, 41, 42, 43, 44, 45, 46, 47, 48, 49, 50, 51, 52, 53, 54, 55, 56, 57, 58, 59, 60, 61, 62, 63, 64, 65, 66, 67, 68, 69, 70, 71, 72, 73, 74, 75, 76, 77, 78, 79, 80, 81, 82, 83, 84, 85, 86, 87, 88, 89, 90, 91, 92, 93, 94, 95, 96, 97, 98, 99, 100, 101, 102, 103, 104, 105, 106, 107, 108, 109, 110, 111, 112, 113, 114, 115, 116, 117, 118, 119, 120, 121, 122, 123, 124, 125, 126, 127, 128, 129, 130, 131, 132, 133, 134, 135, 136, 137, 138, 139, 140, 141, 142, 143, 144, 145, 146, 147, 148, 149, 150, 151, 152, 153, 154, 155, 156, 157, 158, 159, 160, 161, 162, 163, 164, 165, 166, 167, 168, 169, 170, 171, 172, 173, 174, 175, 176, 177, 178, 179, 180, 181, 182, 183, 184, 185, 186, 187, 188, 189, 190, 191, 192, 193, 194, 195, 196, 197, 198, 199, 200],
      "LargestImagePixelValue": [3885, 3882, 3884, 3885, 3879, 3876, 3882, 3874, 3876, 3886, 3886, 3875, 3873, 3870, 3876, 3888, 3878, 3877, 3881, 3872, 3876, 3881, 3881, 3872, 3876, 3885, 3876, 3888, 3875, 3881, 3882, 3873, 3871, 3871, 3874, 3867, 3877, 3871, 3874, 3881, 3879, 3874, 3865, 3877, 3865, 3869, 3872, 3876, 3870, 3875, 3875, 3882, 3873, 3865, 3869, 3866, 3875, 3873, 3868, 3865, 3873, 3871, 3876, 3869, 3875, 3866, 3875, 3869, 3874, 3866, 3872, 3866, 3863, 3868, 3870, 3866, 3875, 3871, 3866, 3861, 3869, 3876, 3871, 3866, 3869, 3867, 3863, 3883, 3855, 3865, 3869, 3868, 3859, 3868, 3870, 3875, 3858, 3866, 3864, 3866, 3860, 3868, 3864, 3864, 3867, 3869, 3871, 3860, 3874, 3873, 3868, 3864, 3864, 3869, 3867, 3873, 3864, 3872, 3864, 3875, 3867, 3871, 3869, 3862, 3869, 3862, 3860, 3871, 3877, 3856, 3863, 3857, 3867, 3872, 3869, 3866, 3857, 3866, 3871, 3861, 3862, 3862, 3864, 3866, 3866, 3859, 3864, 3863, 3864, 3876, 3861, 3864, 3863, 3860, 3870, 3857, 3867, 3862, 3871, 3868, 3864, 3861, 3861, 3866, 3862, 3861, 3861, 3857, 3867, 3859, 3862, 3861, 3862, 3865, 3861, 3862, 3857, 3861, 3864, 3858, 3864, 3865, 3859, 3862, 3859, 3862, 3865, 3852, 3855, 3861, 3854, 3868, 3864, 3861, 3856, 3864, 3872, 3860, 3853, 3866],
      "WindowCenter": [1446.0, 1446.0, 1446.0, 1445.0, 1446.0, 1446.0, 1446.0, 1446.0, 1446.0, 1445.0, 1446.0, 1445.0, 1445.0, 1445.0, 1444.0, 1445.0, 1444.0, 1444.0, 1445.0, 1445.0, 1445.0, 1444.0, 1444.0, 1444.0, 1445.0, 1445.0, 1444.0, 1444.0, 1443.0, 1443.0, 1444.0, 1443.0, 1444.0, 1444.0, 1444.0, 1443.0, 1443.0, 1443.0, 1443.0, 1443.0, 1443.0, 1443.0, 1443.0, 1443.0, 1442.0, 1443.0, 1443.0, 1443.0, 1442.0, 1441.0, 1442.0, 1443.0, 1443.0, 1442.0, 1443.0, 1441.0, 1442.0, 1442.0, 1443.0, 1442.0, 1442.0, 1442.0, 1442.0, 1442.0, 1442.0, 1442.0, 1441.0, 1441.0, 1441.0, 1441.0, 1442.0, 1441.0, 1441.0, 1442.0, 1441.0, 1441.0, 1441.0, 1441.0, 1441.0, 1441.0, 1441.0, 1441.0, 1441.0, 1441.0, 1442.0, 1441.0, 1441.0, 1440.0, 1440.0, 1441.0, 1440.0, 1441.0, 1441.0, 1441.0, 1440.0, 1440.0, 1439.0, 1439.0, 1440.0, 1440.0, 1440.0, 1440.0, 1440.0, 1440.0, 1440.0, 1440.0, 1440.0, 1440.0, 1440.0, 1439.0, 1440.0, 1440.0, 1440.0, 1439.0, 1440.0, 1439.0, 1439.0, 1440.0, 1440.0, 1439.0, 1440.0, 1440.0, 1440.0, 1440.0, 1439.0, 1439.0, 1439.0, 1439.0, 1439.0, 1439.0, 1439.0, 1439.0, 1439.0, 1439.0, 1439.0, 1439.0, 1439.0, 1439.0, 1439.0, 1439.0, 1439.0, 1439.0, 1439.0, 1439.0, 1439.0, 1439.0, 1439.0, 1439.0, 1438.0, 1439.0, 1438.0, 1439.0, 1438.0, 1439.0, 1438.0, 1438.0, 1439.0, 1438.0, 1439.0, 1437.0, 1438.0, 1438.0, 1438.0, 1438.0, 1438.0, 1438.0, 1439.0, 1438.0, 1438.0, 1438.0, 1438.0, 1438.0, 1438.0, 1438.0, 1437.0, 1438.0, 1438.0, 1438.0, 1438.0, 1437.0, 1437.0, 1438.0, 1438.0, 1438.0, 1438.0, 1438.0, 1438.0, 1438.0, 1437.0, 1438.0, 1437.0, 1437.0, 1438.0, 1438.0, 1437.0, 1436.0, 1437.0, 1437.0, 1437.0, 1437.0],
      "WindowWidth": [3314.0, 3314.0, 3313.0, 3314.0, 3314.0, 3314.0, 3314.0, 3313.0, 3313.0, 3313.0, 3313.0, 3313.0, 3313.0, 3313.0, 3312.0, 3313.0, 3312.0, 3312.0, 3312.0, 3312.0, 3312.0, 3312.0, 3312.0, 3312.0, 3312.0, 3312.0, 3312.0, 3312.0, 3312.0, 3312.0, 3312.0, 3312.0, 3312.0, 3312.0, 3312.0, 3311.0, 3311.0, 3311.0, 3311.0, 3311.0, 3311.0, 3311.0, 3311.0, 3311.0, 3311.0, 3311.0, 3311.0, 3311.0, 3311.0, 3311.0, 3311.0, 3310.0, 3310.0, 3310.0, 3310.0, 3310.0, 3310.0, 3310.0, 3310.0, 3310.0, 3310.0, 3310.0, 3310.0, 3310.0, 3310.0, 3309.0, 3310.0, 3310.0, 3310.0, 3310.0, 3310.0, 3310.0, 3310.0, 3309.0, 3309.0, 3310.0, 3309.0, 3309.0, 3309.0, 3309.0, 3309.0, 3309.0, 3309.0, 3309.0, 3308.0, 3309.0, 3309.0, 3309.0, 3309.0, 3309.0, 3309.0, 3308.0, 3308.0, 3308.0, 3309.0, 3308.0, 3308.0, 3308.0, 3308.0, 3307.0, 3308.0, 3308.0, 3307.0, 3307.0, 3308.0, 3308.0, 3307.0, 3308.0, 3308.0, 3308.0, 3307.0, 3307.0, 3307.0, 3308.0, 3307.0, 3308.0, 3307.0, 3307.0, 3307.0, 3307.0, 3307.0, 3307.0, 3307.0, 3307.0, 3307.0, 3307.0, 3306.0, 3306.0, 3306.0, 3306.0, 3306.0, 3306.0, 3306.0, 3306.0, 3306.0, 3306.0, 3306.0, 3306.0, 3306.0, 3306.0, 3306.0, 3306.0, 3306.0, 3306.0, 3306.0, 3306.0, 3306.0, 3306.0, 3306.0, 3306.0, 3305.0, 3305.0, 3305.0, 3305.0, 3305.0, 3305.0, 3304.0, 3305.0, 3305.0, 3305.0, 3304.0, 3305.0, 3305.0, 3305.0, 3305.0, 3305.0, 3304.0, 3305.0, 3305.0, 3305.0, 3305.0, 3305.0, 3305.0, 3304.0, 3305.0, 3304.0, 3304.0, 3304.0, 3304.0, 3304.0, 3304.0, 3303.0, 3303.0, 3303.0, 3303.0, 3303.0, 3303.0, 3303.0, 3304.0, 3303.0, 3304.0, 3304.0, 3303.0, 3303.0, 3304.0, 3304.0, 3303.0, 3304.0, 3303.0, 3303.0]
    },
    "slices": {}
  }
}