{
  "AcquisitionMatrixPE": 80,
  "AcquisitionNumber": 1,
  "AcquisitionTime": "09:11:55.550000",
  "BandwidthPerPixelPhaseEncode": 48.077,
  "BaseResolution": 80,
  "BodyPartExamined": "BRAIN",
  "CoilCombinationMethod": "Sum of Squares",
  "ConsistencyInfo": "N4_VE11C_LATEST_20160120",
  "ConversionSoftware": "dcm2niix",
  "ConversionSoftwareVersion": "v1.0.20220720",
  "DerivedVendorReportedEchoSpacing": 0.000519999,
  "DeviceSerialNumber": "66112",
  "DwellTime": 2.7e-06,
  "EchoTime": 0.035,
  "EchoTrainLength": 39,
  "EffectiveEchoSpacing": 0.00026,
  "FlipAngle": 90,
  "HeudiconvVersion": "0.13.1",
  "ImageOrientationPatientDICOM": [0.986652, 0.162343, 0.0127439, -0.158389, 0.938548, 0.30666],
  "ImageOrientationText": "Tra>Cor(17.7)>Sag(-2.2)",
  "ImageType": [
    "ORIGINAL",
    "PRIMARY",
    "M",
    "ND",
    "NORM",
    "MOSAIC"
],
  "ImagingFrequency": 123.252,
  "InPlanePhaseEncodingDirectionDICOM": "COL",
  "InstitutionAddress": "Maynard 3,Hanover,NH,US,03755",
  "InstitutionName": "Dartmouth College - PBS",
  "InstitutionalDepartmentName": "Department",
  "MRAcquisitionType": "2D",
  "MagneticFieldStrength": 3,
  "Manufacturer": "Siemens",
  "ManufacturersModelName": "Prisma",
  "MatrixCoilMode": "GRAPPA",
  "Modality": "MR",
  "NonlinearGradientCorrection": false,
  "ParallelReductionFactorInPlane": 2,
  "PartialFourier": 1,
  "PatientPosition": "HFS",
  "PercentPhaseFOV": 100,
  "PercentSampling": 100,
  "PhaseEncodingDirection": "j-",
  "PhaseEncodingSteps": 79,
  "PhaseResolution": 1,
  "PixelBandwidth": 2315,
  "ProcedureStepDescription": "dbic^QA",
  "ProtocolName": "func-bold_task-rest_acq-p2",
  "PulseSequenceDetails": "%SiemensSeq%\\ep2d_bold",
  "ReceiveCoilActiveElements": "HEA;HEP",
  "ReceiveCoilName": "Head_32",
  "ReconMatrixPE": 80,
  "RefLinesPE": 24,
  "RepetitionTime": 2,
  "SAR": 0.0557652,
  "ScanOptions": "FS",
  "ScanningSequence": "EP",
  "SequenceName": "*epfid2d1_80",
  "SequenceVariant": "SK",
  "SeriesDescription": "func-bold_task-rest_acq-p2",
  "SeriesNumber": 5,
  "ShimSetting": [4154, -7708, -7519, 259, -39, -128, -1, 70],
  "SliceThickness": 3.5,
  "SliceTiming": [0.99, 0, 1.055, 0.0675, 1.1225, 0.1325, 1.1875, 0.1975, 1.255, 0.265, 1.32, 0.33, 1.385, 0.3975, 1.4525, 0.4625, 1.5175, 0.5275, 1.585, 0.595, 1.65, 0.66, 1.715, 0.725, 1.7825, 0.7925, 1.8475, 0.8575, 1.915, 0.925],
  "SoftwareVersions": "syngo MR E11",
  "SpacingBetweenSlices": 3.99,
  "StationName": "AWP66112",
  "TaskName": "rest",
  "TotalReadoutTime": 0.02054,
  "TxRefAmp": 225.846,
  "dcmmeta_affine": [
    [-2.959956169128418, -0.4751679301261902, -0.1509157419204712, 145.76649475097656],
    [-0.4870302379131317, 2.815643787384033, 1.2152963876724243, -106.50045776367188],
    [0.038231801241636276, -0.9199810028076172, 3.797417402267456, -16.165973663330078],
    [0.0, 0.0, 0.0, 1.0]
],
  "dcmmeta_reorient_transform": [
    [0.0, -1.0, 0.0, 79.0],
    [1.0, 0.0, 0.0, 0.0],
    [0.0, 0.0, 1.0, 0.0],
    [0.0, 0.0, 0.0, 1.0]
],
  "dcmmeta_shape": [80, 80, 30, 200],
  "dcmmeta_slice_dim": 2,
  "dcmmeta_version": 0.6,
  "global": {
    "const": {
      "AccessionNumber": "qa",
      "AcquisitionMatrix": [80, 0, 0, 80],
      "AngioFlag": "N",
      "BitsAllocated": 16,
      "BitsStored": 12,
      "BodyPartExamined": "BRAIN",
      "Columns": 480,
      "EchoNumbers": 1,
      "EchoTime": 35.0,
      "EchoTrainLength": 39,
      "FlipAngle": 90.0,
      "HighBit": 11,
      "ImageOrientationPatient": [0.9866520203783, 0.16234341024013, 0.01274393326364, -0.1583893117354, 0.93854795399608, 0.30666033975355],
      "ImagePositionPatient": [-605.18585924542, -776.47022577729, -280.48703726574],
      "ImageType": [
        "ORIGINAL",
        "PRIMARY",
        "M",
        "ND",
        "NORM",
        "MOSAIC"
],
      "ImagedNucleus": "1H",
      "ImagingFrequency": 123.252349,
      "InPlanePhaseEncodingDirection": "COL",
      "MRAcquisitionType": "2D",
      "MagneticFieldStrength": 3.0,
      "Manufacturer": "SIEMENS",
      "ManufacturerModelName": "Prisma",
      "Modality": "MR",
      "NumberOfAverages": 1.0,
      "NumberOfPhaseEncodingSteps": 79,
      "PercentPhaseFieldOfView": 100.0,
      "PercentSampling": 100.0,
      "PerformedProcedureStepStartTime": "090819.563000",
      "PhotometricInterpretation": "MONOCHROME2",
      "PixelBandwidth": 2315.0,
      "PixelRepresentation": 0,
      "PixelSpacing": [3.0, 3.0],
      "ProtocolName": "func-bold_task-rest_acq-p2",
      "RepetitionTime": 2000.0,
      "Rows": 480,
      "SAR": 0.05576516028979,
      "SamplesPerPixel": 1,
      "ScanOptions": "FS",
      "ScanningSequence": "EP",
      "SequenceName": "*epfid2d1_80",
      "SequenceVariant": "SK",
      "SeriesDescription": "func-bold_task-rest_acq-p2",
      "SeriesNumber": 5,
      "SeriesTime": "091240.528000",
      "SliceLocation": -53.337599548217,
      "SliceThickness": 3.5,
      "SmallestImagePixelValue": 0,
      "SoftwareVersions": "syngo MR E11",
      "SpacingBetweenSlices": 3.9900000449553,
      "SpecificCharacterSet": "ISO_IR 100",
      "StudyID": "5",
      "StudyTime": "090819.523000",
      "TransmitCoilName": "Body",
      "VariableFlipAngleFlag": "N",
      "WindowCenterWidthExplanation": "Algo1",
      "dBdt": 0.0},
    "slices": {}
  },
  "time": {
    "samples": {
      "AcquisitionNumber": [1, 2, 3, 4, 5, 6, 7, 8, 9, 10, 11, 12, 13, 14, 15, 16, 17, 18, 19, 20, 21, 22, 23, 24, 25, 26, 27, 28, 29, 30, 31, 32, 33, 34, 35, 36, 37, 38, 39, 40, 41, 42, 43, 44, 45, 46, 47, 48, 49, 50, 51, 52, 53, 54, 55, 56, 57, 58, 59, 60, 61, 62, 63, 64, 65, 66, 67, 68, 69, 70, 71, 72, 73, 74, 75, 76, 77, 78, 79, 80, 81, 82, 83, 84, 85, 86, 87, 88, 89, 90, 91, 92, 93, 94, 95, 96, 97, 98, 99, 100, 101, 102, 103, 104, 105, 106, 107, 108, 109, 110, 111, 112, 113, 114, 115, 116, 117, 118, 119, 120, 121, 122, 123, 124, 125, 126, 127, 128, 129, 130, 131, 132, 133, 134, 135, 136, 137, 138, 139, 140, 141, 142, 143, 144, 145, 146, 147, 148, 149, 150, 151, 152, 153, 154, 155, 156, 157, 158, 159, 160, 161, 162, 163, 164, 165, 166, 167, 168, 169, 170, 171, 172, 173, 174, 175, 176, 177, 178, 179, 180, 181, 182, 183, 184, 185, 186, 187, 188, 189, 190, 191, 192, 193, 194, 195, 196, 197, 198, 199, 200],
      "AcquisitionTime": ["091155.550000", "091157.550000", "091159.550000", "091201.550000", "091203.550000", "091205.550000", "091207.550000", "091209.550000", "091211.550000", "091213.550000", "091215.550000", "091217.550000", "091219.550000", "091221.550000", "091223.550000", "091225.550000", "091227.550000", "091229.550000", "091231.550000", "091233.550000", "091235.550000", "091237.550000", "091239.550000", "091241.550000", "091243.550000", "091245.550000", "091247.550000", "091249.550000", "091251.550000", "091253.550000", "091255.550000", "091257.550000", "091259.550000", "091301.550000", "091303.550000", "091305.550000", "091307.550000", "091309.550000", "091311.550000", "091313.550000", "091315.550000", "091317.550000", "091319.550000", "091321.550000", "091323.550000", "091325.550000", "091327.550000", "091329.550000", "091331.550000", "091333.550000", "091335.550000", "091337.550000", "091339.550000", "091341.550000", "091343.550000", "091345.550000", "091347.550000", "091349.550000", "091351.550000", "091353.550000", "091355.550000", "091357.550000", "091359.550000", "091401.550000", "091403.550000", "091405.550000", "091407.550000", "091409.550000", "091411.550000", "091413.550000", "091415.550000", "091417.550000", "091419.550000", "091421.550000", "091423.550000", "091425.550000", "091427.550000", "091429.550000", "091431.550000", "091433.550000", "091435.550000", "091437.550000", "091439.550000", "091441.550000", "091443.550000", "091445.550000", "091447.550000", "091449.550000", "091451.550000", "091453.550000", "091455.550000", "091457.550000", "091459.550000", "091501.550000", "091503.550000", "091505.550000", "091507.550000", "091509.550000", "091511.550000", "091513.550000", "091515.550000", "091517.550000", "091519.550000", "091521.550000", "091523.550000", "091525.550000", "091527.550000", "091529.550000", "091531.550000", "091533.550000", "091535.550000", "091537.550000", "091539.550000", "091541.550000", "091543.550000", "091545.550000", "091547.550000", "091549.550000", "091551.550000", "091553.550000", "091555.550000", "091557.550000", "091559.550000", "091601.550000", "091603.550000", "091605.550000", "091607.550000", "091609.550000", "091611.550000", "091613.550000", "091615.550000", "091617.550000", "091619.550000", "091621.550000", "091623.550000", "091625.550000", "091627.550000", "091629.550000", "091631.550000", "091633.550000", "091635.550000", "091637.550000", "091639.550000", "091641.550000", "091643.550000", "091645.550000", "091647.550000", "091649.550000", "091651.550000", "091653.550000", "091655.550000", "091657.550000", "091659.550000", "091701.550000", "091703.550000", "091705.550000", "091707.550000", "091709.550000", "091711.550000", "091713.550000", "091715.550000", "091717.550000", "091719.550000", "091721.550000", "091723.550000", "091725.550000", "091727.550000", "091729.550000", "091731.550000", "091733.550000", "091735.550000", "091737.550000", "091739.550000", "091741.550000", "091743.550000", "091745.550000", "091747.550000", "091749.550000", "091751.550000", "091753.550000", "091755.550000", "091757.550000", "091759.550000", "091801.550000", "091803.550000", "091805.550000", "091807.550000", "091809.550000", "091811.550000", "091813.550000", "091815.550000", "091817.550000", "091819.550000", "091821.550000", "091823.550000", "091825.550000", "091827.550000", "091829.550000", "091831.550000", "091833.550000"],
      "ContentTime": ["091240.532000", "091240.535000", "091240.538000", "091240.540000", "091240.543000", "091240.545000", "091240.548000", "091240.551000", "091240.553000", "091240.556000", "091240.558000", "091240.565000", "091240.568000", "091240.570000", "091240.573000", "091240.575000", "091240.578000", "091240.580000", "091240.583000", "091240.585000", "091240.588000", "091240.591000", "091320.511000", "091320.514000", "091320.517000", "091320.519000", "091320.522000", "091320.524000", "091320.527000", "091320.529000", "091320.532000", "091320.534000", "091320.537000", "091320.539000", "091320.542000", "091320.544000", "091320.547000", "091320.549000", "091320.552000", "091320.554000", "091320.557000", "091320.560000", "091400.512000", "091400.515000", "091400.518000", "091400.520000", "091400.523000", "091400.525000", "091400.528000", "091400.530000", "091400.533000", "091400.535000", "091400.538000", "091400.540000", "091400.543000", "091400.545000", "091400.548000", "091400.551000", "091400.553000", "091400.556000", "091400.558000", "091400.561000", "091440.511000", "091440.514000", "091440.517000", "091440.519000", "091440.522000", "091440.524000", "091440.527000", "091440.529000", "091440.532000", "091440.534000", "091440.537000", "091440.540000", "091440.543000", "091440.545000", "091440.548000", "091440.550000", "091440.553000", "091440.555000", "091440.558000", "091440.561000", "091520.511000", "091520.514000", "091520.517000", "091520.519000", "091520.522000", "091520.524000", "091520.527000", "091520.529000", "091520.532000", "091520.534000", "091520.537000", "091520.539000", "091520.542000", "091520.544000", "091520.547000", "091520.549000", "091520.552000", "091520.554000", "091520.557000", "091520.560000", "091600.512000", "091600.515000", "091600.518000", "091600.520000", "091600.523000", "091600.525000", "091600.528000", "091600.530000", "091600.533000", "091600.535000", "091600.538000", "091600.540000", "091600.543000", "091600.545000", "091600.548000", "091600.550000", "091600.553000", "091600.555000", "091600.558000", "091600.560000", "091640.511000", "091640.514000", "091640.517000", "091640.519000", "091640.522000", "091640.524000", "091640.527000", "091640.529000", "091640.532000", "091640.534000", "091640.537000", "091640.540000", "091640.542000", "091640.545000", "091640.547000", "091640.550000", "091640.552000", "091640.555000", "091640.557000", "091640.560000", "091720.512000", "091720.514000", "091720.517000", "091720.519000", "091720.522000", "091720.524000", "091720.527000", "091720.530000", "091720.532000", "091720.535000", "091720.537000", "091720.540000", "091720.542000", "091720.545000", "091720.547000", "091720.550000", "091720.552000", "091720.555000", "091720.557000", "091720.560000", "091800.513000", "091800.515000", "091800.518000", "091800.521000", "091800.523000", "091800.526000", "091800.528000", "091800.531000", "091800.533000", "091800.536000", "091800.539000", "091800.541000", "091800.544000", "091800.546000", "091800.549000", "091800.564000", "091800.567000", "091800.569000", "091800.572000", "091800.574000", "091835.193000", "091835.195000", "091835.198000", "091835.201000", "091835.203000", "091835.206000", "091835.208000", "091835.211000", "091835.213000", "091835.216000", "091835.218000", "091835.221000", "091835.230000", "091835.234000", "091835.237000", "091835.243000", "091835.247000", "091835.250000"],
      "InstanceCreationTime": ["091240.532000", "091240.535000", "091240.538000", "091240.540000", "091240.543000", "091240.545000", "091240.548000", "091240.551000", "091240.553000", "091240.556000", "091240.558000", "091240.565000", "091240.568000", "091240.570000", "091240.573000", "091240.575000", "091240.578000", "091240.580000", "091240.583000", "091240.585000", "091240.588000", "091240.591000", "091320.511000", "091320.514000", "091320.517000", "091320.519000", "091320.522000", "091320.524000", "091320.527000", "091320.529000", "091320.532000", "091320.534000", "091320.537000", "091320.539000", "091320.542000", "091320.544000", "091320.547000", "091320.549000", "091320.552000", "091320.554000", "091320.557000", "091320.560000", "091400.512000", "091400.515000", "091400.518000", "091400.520000", "091400.523000", "091400.525000", "091400.528000", "091400.530000", "091400.533000", "091400.535000", "091400.538000", "091400.540000", "091400.543000", "091400.545000", "091400.548000", "091400.551000", "091400.553000", "091400.556000", "091400.558000", "091400.561000", "091440.511000", "091440.514000", "091440.517000", "091440.519000", "091440.522000", "091440.524000", "091440.527000", "091440.529000", "091440.532000", "091440.534000", "091440.537000", "091440.540000", "091440.543000", "091440.545000", "091440.548000", "091440.550000", "091440.553000", "091440.555000", "091440.558000", "091440.561000", "091520.511000", "091520.514000", "091520.517000", "091520.519000", "091520.522000", "091520.524000", "091520.527000", "091520.529000", "091520.532000", "091520.534000", "091520.537000", "091520.539000", "091520.542000", "091520.544000", "091520.547000", "091520.549000", "091520.552000", "091520.554000", "091520.557000", "091520.560000", "091600.512000", "091600.515000", "091600.518000", "091600.520000", "091600.523000", "091600.525000", "091600.528000", "091600.530000", "091600.533000", "091600.535000", "091600.538000", "091600.540000", "091600.543000", "091600.545000", "091600.548000", "091600.550000", "091600.553000", "091600.555000", "091600.558000", "091600.560000", "091640.511000", "091640.514000", "091640.517000", "091640.519000", "091640.522000", "091640.524000", "091640.527000", "091640.529000", "091640.532000", "091640.534000", "091640.537000", "091640.540000", "091640.542000", "091640.545000", "091640.547000", "091640.550000", "091640.552000", "091640.555000", "091640.557000", "091640.560000", "091720.512000", "091720.514000", "091720.517000", "091720.519000", "091720.522000", "091720.524000", "091720.527000", "091720.530000", "091720.532000", "091720.535000", "091720.537000", "091720.540000", "091720.542000", "091720.545000", "091720.547000", "091720.550000", "091720.552000", "091720.555000", "091720.557000", "091720.560000", "091800.513000", "091800.515000", "091800.518000", "091800.521000", "091800.523000", "091800.526000", "091800.528000", "091800.531000", "091800.533000", "091800.536000", "091800.539000", "091800.541000", "091800.544000", "091800.546000", "091800.549000", "091800.564000", "091800.567000", "091800.569000", "091800.572000", "091800.574000", "091835.193000", "091835.195000", "091835.198000", "091835.201000", "091835.203000", "091835.206000", "091835.208000", "091835.211000", "091835.213000", "091835.216000", "091835.218000", "091835.221000", "091835.230000", "091835.234000", "091835.237000", "091835.243000", "091835.247000", "091835.250000"],
      "InstanceNumber": [1, 2, 3, 4, 5, 6, 7, 8, 9, 10, 11, 12, 13, 14, 15, 16, 17, 18, 19, 20, 21, 22, 23, 24, 25, 26, 27, 28, 29, 30, 31, 32, 33, 34, 35, 36, 37, 38, 39, 40, 41, 42, 43, 44, 45, 46, 47, 48, 49, 50, 51, 52, 53, 54, 55, 56, 57, 58, 59, 60, 61, 62, 63, 64, 65, 66, 67, 68, 69, 70, 71, 72, 73, 74, 75, 76, 77, 78, 79, 80, 81, 82, 83, 84, 85, 86, 87, 88, 89, 90, 91, 92, 93, 94, 95, 96, 97, 98, 99, 100, 101, 102, 103, 104, 105, 106, 107, 108, 109, 110, 111, 112, 113, 114, 115, 116, 117, 118, 119, 120, 121, 122, 123, 124, 125, 126, 127, 128, 129, 130, 131, 132, 133, 134, 135, 136, 137, 138, 139, 140, 141, 142, 143, 144, 145, 146, 147, 148, 149, 150, 151, 152, 153, 154, 155, 156, 157, 158, 159, 160, 161, 162, 163, 164, 165, 166, 167, 168, 169, 170, 171, 172, 173, 174, 175, 176, 177, 178, 179, 180, 181, 182, 183, 184, 185, 186, 187, 188, 189, 190, 191, 192, 193, 194, 195, 196, 197, 198, 199, 200],
      "LargestImagePixelValue": [2147, 2154, 2149, 2145, 2144, 2146, 2148, 2147, 2150, 2149, 2148, 2145, 2149, 2146, 2144, 2141, 2144, 2141, 2144, 2149, 2146, 2148, 2151, 2150, 2145, 2153, 2145, 2150, 2143, 2148, 2146, 2143, 2148, 2149, 2146, 2137, 2149, 2145, 2146, 2145, 2145, 2142, 2145, 2152, 2146, 2148, 2141, 2143, 2145, 2147, 2143, 2152, 2146, 2148, 2148, 2142, 2153, 2151, 2150, 2150, 2147, 2143, 2151, 2147, 2147, 2146, 2145, 2143, 2144, 2146, 2144, 2152, 2149, 2151, 2152, 2145, 2147, 2155, 2144, 2141, 2145, 2148, 2156, 2152, 2145, 2145, 2143, 2150, 2146, 2145, 2150, 2150, 2147, 2150, 2145, 2147, 2149, 2150, 2151, 2149, 2147, 2147, 2148, 2148, 2141, 2142, 2140, 2151, 2148, 2147, 2149, 2147, 2146, 2146, 2142, 2145, 2139, 2143, 2147, 2148, 2139, 2137, 2147, 2150, 2146, 2148, 2151, 2147, 2149, 2143, 2140, 2149, 2140, 2153, 2141, 2145, 2148, 2149, 2142, 2145, 2151, 2144, 2146, 2143, 2142, 2148, 2147, 2149, 2148, 2145, 2145, 2147, 2147, 2142, 2133, 2142, 2143, 2139, 2139, 2153, 2149, 2144, 2144, 2146, 2146, 2146, 2147, 2141, 2150, 2144, 2142, 2147, 2144, 2144, 2151, 2148, 2147, 2143, 2143, 2148, 2148, 2143, 2148, 2146, 2152, 2142, 2149, 2144, 2145, 2145, 2147, 2138, 2144, 2143, 2137, 2143, 2148, 2146, 2151, 2140],
      "WindowCenter": [1017.0, 1018.0, 1017.0, 1017.0, 1017.0, 1017.0, 1018.0, 1017.0, 1017.0, 1017.0, 1018.0, 1018.0, 1017.0, 1018.0, 1017.0, 1017.0, 1016.0, 1016.0, 1016.0, 1016.0, 1016.0, 1017.0, 1016.0, 1016.0, 1016.0, 1016.0, 1016.0, 1016.0, 1017.0, 1016.0, 1016.0, 1016.0, 1016.0, 1016.0, 1016.0, 1016.0, 1016.0, 1016.0, 1016.0, 1016.0, 1016.0, 1016.0, 1016.0, 1016.0, 1016.0, 1016.0, 1016.0, 1016.0, 1016.0, 1016.0, 1017.0, 1016.0, 1016.0, 1016.0, 1016.0, 1017.0, 1016.0, 1017.0, 1016.0, 1016.0, 1016.0, 1016.0, 1016.0, 1016.0, 1016.0, 1016.0, 1016.0, 1015.0, 1015.0, 1016.0, 1016.0, 1016.0, 1016.0, 1015.0, 1016.0, 1015.0, 1015.0, 1016.0, 1015.0, 1015.0, 1016.0, 1015.0, 1015.0, 1015.0, 1016.0, 1015.0, 1016.0, 1015.0, 1015.0, 1015.0, 1015.0, 1015.0, 1015.0, 1015.0, 1015.0, 1016.0, 1015.0, 1015.0, 1015.0, 1016.0, 1015.0, 1015.0, 1015.0, 1015.0, 1016.0, 1015.0, 1015.0, 1015.0, 1016.0, 1015.0, 1015.0, 1015.0, 1016.0, 1016.0, 1015.0, 1015.0, 1015.0, 1016.0, 1016.0, 1015.0, 1015.0, 1016.0, 1015.0, 1016.0, 1016.0, 1015.0, 1015.0, 1015.0, 1015.0, 1015.0, 1015.0, 1015.0, 1015.0, 1015.0, 1015.0, 1015.0, 1015.0, 1015.0, 1015.0, 1015.0, 1015.0, 1015.0, 1015.0, 1015.0, 1016.0, 1015.0, 1015.0, 1015.0, 1015.0, 1017.0, 1015.0, 1015.0, 1015.0, 1017.0, 1016.0, 1015.0, 1015.0, 1015.0, 1016.0, 1015.0, 1015.0, 1015.0, 1015.0, 1016.0, 1015.0, 1015.0, 1015.0, 1015.0, 1015.0, 1015.0, 1015.0, 1015.0, 1015.0, 1015.0, 1015.0, 1016.0, 1015.0, 1015.0, 1015.0, 1016.0, 1015.0, 1015.0, 1015.0, 1015.0, 1015.0, 1016.0, 1015.0, 1015.0, 1015.0, 1015.0, 1015.0, 1015.0, 1015.0, 1015.0, 1016.0, 1015.0, 1016.0, 1015.0, 1014.0, 1015.0],
      "WindowWidth": [2250.0, 2251.0, 2250.0, 2250.0, 2250.0, 2250.0, 2251.0, 2250.0, 2250.0, 2250.0, 2251.0, 2250.0, 2249.0, 2250.0, 2249.0, 2249.0, 2249.0, 2249.0, 2249.0, 2249.0, 2249.0, 2250.0, 2249.0, 2249.0, 2249.0, 2249.0, 2249.0, 2249.0, 2249.0, 2249.0, 2248.0, 2249.0, 2249.0, 2249.0, 2248.0, 2248.0, 2248.0, 2248.0, 2248.0, 2248.0, 2248.0, 2248.0, 2248.0, 2248.0, 2248.0, 2248.0, 2248.0, 2248.0, 2248.0, 2248.0, 2248.0, 2248.0, 2248.0, 2247.0, 2248.0, 2248.0, 2248.0, 2248.0, 2248.0, 2248.0, 2247.0, 2247.0, 2247.0, 2248.0, 2247.0, 2248.0, 2247.0, 2247.0, 2247.0, 2247.0, 2247.0, 2247.0, 2247.0, 2247.0, 2247.0, 2247.0, 2247.0, 2247.0, 2247.0, 2247.0, 2247.0, 2247.0, 2247.0, 2247.0, 2247.0, 2247.0, 2247.0, 2246.0, 2246.0, 2246.0, 2246.0, 2246.0, 2246.0, 2246.0, 2246.0, 2247.0, 2246.0, 2246.0, 2246.0, 2247.0, 2246.0, 2246.0, 2246.0, 2246.0, 2247.0, 2246.0, 2246.0, 2246.0, 2247.0, 2246.0, 2246.0, 2246.0, 2246.0, 2246.0, 2246.0, 2246.0, 2245.0, 2246.0, 2246.0, 2246.0, 2246.0, 2246.0, 2246.0, 2246.0, 2246.0, 2245.0, 2245.0, 2245.0, 2246.0, 2245.0, 2245.0, 2245.0, 2246.0, 2245.0, 2245.0, 2245.0, 2245.0, 2245.0, 2245.0, 2245.0, 2245.0, 2245.0, 2245.0, 2245.0, 2246.0, 2245.0, 2245.0, 2245.0, 2245.0, 2246.0, 2245.0, 2245.0, 2245.0, 2247.0, 2245.0, 2245.0, 2245.0, 2245.0, 2245.0, 2245.0, 2245.0, 2245.0, 2245.0, 2245.0, 2245.0, 2245.0, 2245.0, 2245.0, 2245.0, 2245.0, 2245.0, 2245.0, 2245.0, 2245.0, 2245.0, 2245.0, 2245.0, 2244.0, 2244.0, 2245.0, 2244.0, 2244.0, 2244.0, 2244.0, 2244.0, 2245.0, 2244.0, 2244.0, 2244.0, 2244.0, 2244.0, 2244.0, 2244.0, 2244.0, 2245.0, 2244.0, 2245.0, 2244.0, 2245.0, 2244.0]
    },
    "slices": {}
  }
}