{
  "AcquisitionMatrixPE": 80,
  "AcquisitionNumber": 1,
  "AcquisitionTime": "09:25:40.495000",
  "BandwidthPerPixelPhaseEncode": 25,
  "BaseResolution": 80,
  "BodyPartExamined": "BRAIN",
  "CoilCombinationMethod": "Sum of Squares",
  "ConsistencyInfo": "N4_VE11C_LATEST_20160120",
  "ConversionSoftware": "dcm2niix",
  "ConversionSoftwareVersion": "v1.0.20220720",
  "DerivedVendorReportedEchoSpacing": 0.0005,
  "DeviceSerialNumber": "66112",
  "DwellTime": 2.7e-06,
  "EchoTime": 0.03,
  "EchoTrainLength": 80,
  "EffectiveEchoSpacing": 0.0005,
  "FlipAngle": 77,
  "HeudiconvVersion": "0.13.1",
  "ImageOrientationPatientDICOM": [0.986652, 0.162343, 0.0127439, -0.158389, 0.938548, 0.30666],
  "ImageOrientationText": "Tra>Cor(17.7)>Sag(-2.2)",
  "ImageType": [
    "ORIGINAL",
    "PRIMARY",
    "M",
    "ND",
    "NORM",
    "MOSAIC"
],
  "ImagingFrequency": 123.252,
  "InPlanePhaseEncodingDirectionDICOM": "COL",
  "InstitutionAddress": "Maynard 3,Hanover,NH,US,03755",
  "InstitutionName": "Dartmouth College - PBS",
  "InstitutionalDepartmentName": "Department",
  "MRAcquisitionType": "2D",
  "MagneticFieldStrength": 3,
  "Manufacturer": "Siemens",
  "ManufacturersModelName": "Prisma",
  "MatrixCoilMode": "SENSE",
  "Modality": "MR",
  "NonlinearGradientCorrection": false,
  "PartialFourier": 1,
  "PatientPosition": "HFS",
  "PercentPhaseFOV": 100,
  "PercentSampling": 100,
  "PhaseEncodingDirection": "j-",
  "PhaseEncodingSteps": 80,
  "PhaseResolution": 1,
  "PixelBandwidth": 2315,
  "ProcedureStepDescription": "dbic^QA",
  "ProtocolName": "func-bold_fa-77",
  "PulseSequenceDetails": "%SiemensSeq%\\ep2d_bold",
  "ReceiveCoilActiveElements": "HEA;HEP",
  "ReceiveCoilName": "Head_32",
  "ReconMatrixPE": 80,
  "RepetitionTime": 2,
  "SAR": 0.043823,
  "ScanOptions": "FS",
  "ScanningSequence": "EP",
  "SequenceName": "*epfid2d1_80",
  "SequenceVariant": "SK",
  "SeriesDescription": "func-bold_fa-77",
  "SeriesNumber": 8,
  "ShimSetting": [4154, -7708, -7519, 259, -38, -127, 0, 70],
  "SliceThickness": 3.5,
  "SliceTiming": [0.99, 0, 1.055, 0.065, 1.1225, 0.1325, 1.1875, 0.1975, 1.2525, 0.2625, 1.32, 0.33, 1.385, 0.395, 1.4525, 0.4625, 1.5175, 0.5275, 1.5825, 0.5925, 1.65, 0.66, 1.715, 0.725, 1.7825, 0.7925, 1.8475, 0.8575, 1.9125, 0.9225],
  "SoftwareVersions": "syngo MR E11",
  "SpacingBetweenSlices": 3.99,
  "StationName": "AWP66112",
  "TotalReadoutTime": 0.0395,
  "TxRefAmp": 225.846,
  "dcmmeta_affine": [
    [-2.959956169128418, -0.4751679301261902, -0.1509157419204712, 143.48316955566406],
    [-0.4870302379131317, 2.815643787384033, 1.2152963876724243, -100.6158218383789],
    [0.038231801241636276, -0.9199810028076172, 3.797417402267456, -17.525253295898438],
    [0.0, 0.0, 0.0, 1.0]
],
  "dcmmeta_reorient_transform": [
    [0.0, -1.0, 0.0, 79.0],
    [1.0, 0.0, 0.0, 0.0],
    [0.0, 0.0, 1.0, 0.0],
    [0.0, 0.0, 0.0, 1.0]
],
  "dcmmeta_shape": [80, 80, 30, 200],
  "dcmmeta_slice_dim": 2,
  "dcmmeta_version": 0.6,
  "global": {
    "const": {
      "AccessionNumber": "qa",
      "AcquisitionMatrix": [80, 0, 0, 80],
      "AngioFlag": "N",
      "BitsAllocated": 16,
      "BitsStored": 12,
      "BodyPartExamined": "BRAIN",
      "Columns": 480,
      "EchoNumbers": 1,
      "EchoTime": 30.0,
      "EchoTrainLength": 80,
      "FlipAngle": 77.0,
      "HighBit": 11,
      "ImageOrientationPatient": [0.9866520203783, 0.16234341024013, 0.01274393326364, -0.1583893117354, 0.93854795399608, 0.30666033975355],
      "ImagePositionPatient": [-602.90252212918, -782.35486360993, -281.8463168983],
      "ImageType": [
        "ORIGINAL",
        "PRIMARY",
        "M",
        "ND",
        "NORM",
        "MOSAIC"
],
      "ImagedNucleus": "1H",
      "ImagingFrequency": 123.252348,
      "InPlanePhaseEncodingDirection": "COL",
      "MRAcquisitionType": "2D",
      "MagneticFieldStrength": 3.0,
      "Manufacturer": "SIEMENS",
      "ManufacturerModelName": "Prisma",
      "Modality": "MR",
      "NumberOfAverages": 1.0,
      "NumberOfPhaseEncodingSteps": 80,
      "PercentPhaseFieldOfView": 100.0,
      "PercentSampling": 100.0,
      "PerformedProcedureStepStartTime": "090819.563000",
      "PhotometricInterpretation": "MONOCHROME2",
      "PixelBandwidth": 2315.0,
      "PixelRepresentation": 0,
      "PixelSpacing": [3.0, 3.0],
      "ProtocolName": "func-bold_fa-77",
      "RepetitionTime": 2000.0,
      "Rows": 480,
      "SAR": 0.04382304364395,
      "SamplesPerPixel": 1,
      "ScanOptions": "FS",
      "ScanningSequence": "EP",
      "SequenceName": "*epfid2d1_80",
      "SequenceVariant": "SK",
      "SeriesDescription": "func-bold_fa-77",
      "SeriesNumber": 8,
      "SeriesTime": "092620.441000",
      "SliceLocation": -52.752532360954,
      "SliceThickness": 3.5,
      "SmallestImagePixelValue": 0,
      "SoftwareVersions": "syngo MR E11",
      "SpacingBetweenSlices": 3.9900000443334,
      "SpecificCharacterSet": "ISO_IR 100",
      "StudyID": "5",
      "StudyTime": "090819.523000",
      "TransmitCoilName": "Body",
      "VariableFlipAngleFlag": "N",
      "WindowCenterWidthExplanation": "Algo1",
      "dBdt": 0.0},
    "slices": {}
  },
  "time": {
    "samples": {
      "AcquisitionNumber": [1, 2, 3, 4, 5, 6, 7, 8, 9, 10, 11, 12, 13, 14, 15, 16, 17, 18, 19, 20, 21, 22, 23, 24, 25, 26, 27, 28, 29, 30, 31, 32, 33, 34, 35, 36, 37, 38, 39, 40, 41, 42, 43, 44, 45, 46, 47, 48, 49, 50, 51, 52, 53, 54, 55, 56, 57, 58, 59, 60, 61, 62, 63, 64, 65, 66, 67, 68, 69, 70, 71, 72, 73, 74, 75, 76, 77, 78, 79, 80, 81, 82, 83, 84, 85, 86, 87, 88, 89, 90, 91, 92, 93, 94, 95, 96, 97, 98, 99, 100, 101, 102, 103, 104, 105, 106, 107, 108, 109, 110, 111, 112, 113, 114, 115, 116, 117, 118, 119, 120, 121, 122, 123, 124, 125, 126, 127, 128, 129, 130, 131, 132, 133, 134, 135, 136, 137, 138, 139, 140, 141, 142, 143, 144, 145, 146, 147, 148, 149, 150, 151, 152, 153, 154, 155, 156, 157, 158, 159, 160, 161, 162, 163, 164, 165, 166, 167, 168, 169, 170, 171, 172, 173, 174, 175, 176, 177, 178, 179, 180, 181, 182, 183, 184, 185, 186, 187, 188, 189, 190, 191, 192, 193, 194, 195, 196, 197, 198, 199, 200],
      "AcquisitionTime": ["092540.495000", "092542.495000", "092544.495000", "092546.495000", "092548.495000", "092550.495000", "092552.495000", "092554.495000", "092556.495000", "092558.495000", "092600.495000", "092602.495000", "092604.495000", "092606.495000", "092608.495000", "092610.495000", "092612.495000", "092614.495000", "092616.495000", "092618.495000", "092620.495000", "092622.495000", "092624.495000", "092626.495000", "092628.495000", "092630.495000", "092632.495000", "092634.495000", "092636.495000", "092638.495000", "092640.495000", "092642.495000", "092644.495000", "092646.495000", "092648.495000", "092650.495000", "092652.495000", "092654.495000", "092656.495000", "092658.495000", "092700.495000", "092702.495000", "092704.495000", "092706.495000", "092708.495000", "092710.495000", "092712.495000", "092714.495000", "092716.495000", "092718.495000", "092720.495000", "092722.495000", "092724.495000", "092726.495000", "092728.495000", "092730.495000", "092732.495000", "092734.495000", "092736.495000", "092738.495000", "092740.495000", "092742.495000", "092744.495000", "092746.495000", "092748.495000", "092750.495000", "092752.495000", "092754.495000", "092756.495000", "092758.495000", "092800.495000", "092802.495000", "092804.495000", "092806.495000", "092808.495000", "092810.495000", "092812.495000", "092814.495000", "092816.495000", "092818.495000", "092820.495000", "092822.495000", "092824.495000", "092826.495000", "092828.495000", "092830.495000", "092832.495000", "092834.495000", "092836.495000", "092838.495000", "092840.495000", "092842.495000", "092844.495000", "092846.495000", "092848.495000", "092850.495000", "092852.495000", "092854.495000", "092856.495000", "092858.495000", "092900.495000", "092902.495000", "092904.495000", "092906.495000", "092908.495000", "092910.495000", "092912.495000", "092914.495000", "092916.495000", "092918.495000", "092920.495000", "092922.495000", "092924.495000", "092926.495000", "092928.495000", "092930.495000", "092932.495000", "092934.495000", "092936.495000", "092938.495000", "092940.495000", "092942.495000", "092944.495000", "092946.495000", "092948.495000", "092950.495000", "092952.495000", "092954.495000", "092956.495000", "092958.495000", "093000.495000", "093002.495000", "093004.495000", "093006.495000", "093008.495000", "093010.495000", "093012.495000", "093014.495000", "093016.495000", "093018.495000", "093020.495000", "093022.495000", "093024.495000", "093026.495000", "093028.495000", "093030.495000", "093032.495000", "093034.495000", "093036.495000", "093038.495000", "093040.495000", "093042.495000", "093044.495000", "093046.495000", "093048.495000", "093050.495000", "093052.495000", "093054.495000", "093056.495000", "093058.495000", "093100.495000", "093102.495000", "093104.495000", "093106.495000", "093108.495000", "093110.495000", "093112.495000", "093114.495000", "093116.495000", "093118.495000", "093120.495000", "093122.495000", "093124.495000", "093126.495000", "093128.495000", "093130.495000", "093132.495000", "093134.495000", "093136.495000", "093138.495000", "093140.495000", "093142.495000", "093144.495000", "093146.495000", "093148.495000", "093150.495000", "093152.495000", "093154.495000", "093156.495000", "093158.495000", "093200.495000", "093202.495000", "093204.495000", "093206.495000", "093208.495000", "093210.495000", "093212.495000", "093214.495000", "093216.495000", "093218.495000"],
      "ContentTime": ["092620.444000", "092620.447000", "092620.450000", "092620.452000", "092620.455000", "092620.457000", "092620.460000", "092620.462000", "092620.465000", "092620.467000", "092620.470000", "092620.472000", "092620.475000", "092620.477000", "092620.480000", "092620.482000", "092620.485000", "092620.487000", "092620.490000", "092620.498000", "092700.440000", "092700.443000", "092700.446000", "092700.449000", "092700.451000", "092700.454000", "092700.456000", "092700.459000", "092700.461000", "092700.464000", "092700.466000", "092700.469000", "092700.472000", "092700.474000", "092700.477000", "092700.479000", "092700.482000", "092700.484000", "092700.487000", "092700.489000", "092740.440000", "092740.443000", "092740.446000", "092740.448000", "092740.451000", "092740.453000", "092740.456000", "092740.458000", "092740.461000", "092740.463000", "092740.466000", "092740.468000", "092740.471000", "092740.473000", "092740.476000", "092740.478000", "092740.481000", "092740.483000", "092740.486000", "092740.488000", "092820.439000", "092820.442000", "092820.445000", "092820.447000", "092820.449000", "092820.452000", "092820.454000", "092820.457000", "092820.460000", "092820.462000", "092820.465000", "092820.467000", "092820.470000", "092820.472000", "092820.475000", "092820.477000", "092820.480000", "092820.482000", "092820.485000", "092820.487000", "092900.439000", "092900.442000", "092900.445000", "092900.447000", "092900.450000", "092900.452000", "092900.455000", "092900.457000", "092900.460000", "092900.462000", "092900.465000", "092900.467000", "092900.470000", "092900.472000", "092900.475000", "092900.477000", "092900.480000", "092900.482000", "092900.484000", "092900.487000", "092940.440000", "092940.443000", "092940.446000", "092940.448000", "092940.450000", "092940.453000", "092940.455000", "092940.458000", "092940.460000", "092940.463000", "092940.465000", "092940.468000", "092940.470000", "092940.473000", "092940.475000", "092940.478000", "092940.480000", "092940.483000", "092940.485000", "092940.488000", "093020.440000", "093020.443000", "093020.446000", "093020.448000", "093020.451000", "093020.453000", "093020.456000", "093020.458000", "093020.460000", "093020.463000", "093020.465000", "093020.468000", "093020.470000", "093020.473000", "093020.476000", "093020.478000", "093020.481000", "093020.483000", "093020.486000", "093020.488000", "093100.439000", "093100.442000", "093100.445000", "093100.447000", "093100.450000", "093100.452000", "093100.455000", "093100.457000", "093100.460000", "093100.462000", "093100.465000", "093100.467000", "093100.470000", "093100.472000", "093100.474000", "093100.477000", "093100.479000", "093100.482000", "093100.484000", "093100.487000", "093140.439000", "093140.442000", "093140.445000", "093140.447000", "093140.450000", "093140.452000", "093140.455000", "093140.457000", "093140.460000", "093140.462000", "093140.465000", "093140.467000", "093140.470000", "093140.472000", "093140.475000", "093140.477000", "093140.480000", "093140.482000", "093140.485000", "093140.487000", "093219.559000", "093219.561000", "093219.564000", "093219.566000", "093219.569000", "093219.571000", "093219.574000", "093219.576000", "093219.579000", "093219.582000", "093219.584000", "093219.587000", "093219.589000", "093219.599000", "093219.603000", "093219.613000", "093219.616000", "093219.619000", "093219.622000", "093219.625000"],
      "InstanceCreationTime": ["092620.444000", "092620.447000", "092620.450000", "092620.452000", "092620.455000", "092620.457000", "092620.460000", "092620.462000", "092620.465000", "092620.467000", "092620.470000", "092620.472000", "092620.475000", "092620.477000", "092620.480000", "092620.482000", "092620.485000", "092620.487000", "092620.490000", "092620.498000", "092700.440000", "092700.443000", "092700.446000", "092700.449000", "092700.451000", "092700.454000", "092700.456000", "092700.459000", "092700.461000", "092700.464000", "092700.466000", "092700.469000", "092700.472000", "092700.474000", "092700.477000", "092700.479000", "092700.482000", "092700.484000", "092700.487000", "092700.489000", "092740.440000", "092740.443000", "092740.446000", "092740.448000", "092740.451000", "092740.453000", "092740.456000", "092740.458000", "092740.461000", "092740.463000", "092740.466000", "092740.468000", "092740.471000", "092740.473000", "092740.476000", "092740.478000", "092740.481000", "092740.483000", "092740.486000", "092740.488000", "092820.439000", "092820.442000", "092820.445000", "092820.447000", "092820.449000", "092820.452000", "092820.454000", "092820.457000", "092820.460000", "092820.462000", "092820.465000", "092820.467000", "092820.470000", "092820.472000", "092820.475000", "092820.477000", "092820.480000", "092820.482000", "092820.485000", "092820.487000", "092900.439000", "092900.442000", "092900.445000", "092900.447000", "092900.450000", "092900.452000", "092900.455000", "092900.457000", "092900.460000", "092900.462000", "092900.465000", "092900.467000", "092900.470000", "092900.472000", "092900.475000", "092900.477000", "092900.480000", "092900.482000", "092900.484000", "092900.487000", "092940.440000", "092940.443000", "092940.446000", "092940.448000", "092940.450000", "092940.453000", "092940.455000", "092940.458000", "092940.460000", "092940.463000", "092940.465000", "092940.468000", "092940.470000", "092940.473000", "092940.475000", "092940.478000", "092940.480000", "092940.483000", "092940.485000", "092940.488000", "093020.440000", "093020.443000", "093020.446000", "093020.448000", "093020.451000", "093020.453000", "093020.456000", "093020.458000", "093020.460000", "093020.463000", "093020.465000", "093020.468000", "093020.470000", "093020.473000", "093020.476000", "093020.478000", "093020.481000", "093020.483000", "093020.486000", "093020.488000", "093100.439000", "093100.442000", "093100.445000", "093100.447000", "093100.450000", "093100.452000", "093100.455000", "093100.457000", "093100.460000", "093100.462000", "093100.465000", "093100.467000", "093100.470000", "093100.472000", "093100.474000", "093100.477000", "093100.479000", "093100.482000", "093100.484000", "093100.487000", "093140.439000", "093140.442000", "093140.445000", "093140.447000", "093140.450000", "093140.452000", "093140.455000", "093140.457000", "093140.460000", "093140.462000", "093140.465000", "093140.467000", "093140.470000", "093140.472000", "093140.475000", "093140.477000", "093140.480000", "093140.482000", "093140.485000", "093140.487000", "093219.559000", "093219.561000", "093219.564000", "093219.566000", "093219.569000", "093219.571000", "093219.574000", "093219.576000", "093219.579000", "093219.582000", "093219.584000", "093219.587000", "093219.589000", "093219.599000", "093219.603000", "093219.613000", "093219.616000", "093219.619000", "093219.622000", "093219.625000"],
      "InstanceNumber": [1, 2, 3, 4, 5, 6, 7, 8, 9, 10, 11, 12, 13, 14, 15, 16, 17, 18, 19, 20, 21, 22, 23, 24, 25, 26, 27, 28, 29, 30, 31, 32, 33, 34, 35, 36, 37, 38, 39, 40, 41, 42, 43, 44, 45, 46, 47, 48, 49, 50, 51, 52, 53, 54, 55, 56, 57, 58, 59, 60, 61, 62, 63, 64, 65, 66, 67, 68, 69, 70, 71, 72, 73, 74, 75, 76, 77, 78, 79, 80, 81, 82, 83, 84, 85, 86, 87, 88, 89, 90, 91, 92, 93, 94, 95, 96, 97, 98, 99, 100, 101, 102, 103, 104, 105, 106, 107, 108, 109, 110, 111, 112, 113, 114, 115, 116, 117, 118, 119, 120, 121, 122, 123, 124, 125, 126, 127, 128, 129, 130, 131, 132, 133, 134, 135, 136, 137, 138, 139, 140, 141, 142, 143, 144, 145, 146, 147, 148, 149, 150, 151, 152, 153, 154, 155, 156, 157, 158, 159, 160, 161, 162, 163, 164, 165, 166, 167, 168, 169, 170, 171, 172, 173, 174, 175, 176, 177, 178, 179, 180, 181, 182, 183, 184, 185, 186, 187, 188, 189, 190, 191, 192, 193, 194, 195, 196, 197, 198, 199, 200],
      "LargestImagePixelValue": [2061, 2062, 2063, 2062, 2059, 2061, 2061, 2062, 2062, 2061, 2062, 2061, 2062, 2062, 2063, 2062, 2061, 2061, 2062, 2064, 2063, 2062, 2062, 2063, 2064, 2062, 2065, 2062, 2062, 2061, 2062, 2062, 2062, 2063, 2061, 2061, 2061, 2061, 2061, 2064, 2062, 2063, 2064, 2062, 2064, 2062, 2062, 2064, 2064, 2062, 2062, 2061, 2060, 2062, 2062, 2063, 2061, 2061, 2060, 2062, 2062, 2063, 2062, 2061, 2062, 2062, 2061, 2061, 2060, 2059, 2060, 2063, 2062, 2062, 2060, 2060, 2061, 2062, 2062, 2061, 2060, 2061, 2061, 2059, 2064, 2060, 2062, 2060, 2061, 2061, 2061, 2059, 2061, 2062, 2061, 2062, 2062, 2062, 2060, 2060, 2062, 2063, 2062, 2060, 2062, 2059, 2061, 2060, 2062, 2061, 2062, 2062, 2061, 2062, 2062, 2061, 2060, 2060, 2062, 2063, 2061, 2063, 2063, 2060, 2063, 2060, 2060, 2062, 2060, 2060, 2060, 2062, 2063, 2061, 2061, 2063, 2060, 2061, 2062, 2061, 2060, 2057, 2060, 2059, 2061, 2059, 2059, 2059, 2060, 2059, 2057, 2059, 2057, 2059, 2060, 2061, 2063, 2061, 2060, 2057, 2059, 2058, 2058, 2058, 2058, 2058, 2059, 2059, 2060, 2061, 2059, 2059, 2059, 2058, 2060, 2059, 2061, 2056, 2060, 2059, 2059, 2058, 2059, 2059, 2060, 2058, 2058, 2059, 2058, 2060, 2059, 2058, 2058, 2058, 2059, 2057, 2059, 2058, 2058, 2058],
      "WindowCenter": [1002.0, 1004.0, 1003.0, 1002.0, 1003.0, 1004.0, 1002.0, 1002.0, 1003.0, 1003.0, 1003.0, 1003.0, 1003.0, 1004.0, 1004.0, 1004.0, 1002.0, 1004.0, 1003.0, 1003.0, 1003.0, 1003.0, 1003.0, 1003.0, 1004.0, 1003.0, 1003.0, 1002.0, 1004.0, 1003.0, 1002.0, 1003.0, 1003.0, 1003.0, 1003.0, 1003.0, 1004.0, 1004.0, 1003.0, 1003.0, 1003.0, 1003.0, 1003.0, 1003.0, 1002.0, 1003.0, 1003.0, 1003.0, 1003.0, 1003.0, 1002.0, 1003.0, 1003.0, 1003.0, 1002.0, 1002.0, 1003.0, 1002.0, 1002.0, 1003.0, 1002.0, 1002.0, 1003.0, 1004.0, 1003.0, 1003.0, 1003.0, 1003.0, 1003.0, 1002.0, 1003.0, 1002.0, 1001.0, 1003.0, 1003.0, 1002.0, 1003.0, 1002.0, 1001.0, 1002.0, 1003.0, 1002.0, 1003.0, 1002.0, 1003.0, 1002.0, 1003.0, 1002.0, 1002.0, 1002.0, 1003.0, 1002.0, 1002.0, 1002.0, 1002.0, 1003.0, 1003.0, 1003.0, 1002.0, 1003.0, 1003.0, 1003.0, 1002.0, 1002.0, 1003.0, 1002.0, 1003.0, 1003.0, 1003.0, 1002.0, 1003.0, 1002.0, 1003.0, 1002.0, 1003.0, 1002.0, 1002.0, 1002.0, 1003.0, 1003.0, 1003.0, 1003.0, 1003.0, 1002.0, 1002.0, 1002.0, 1003.0, 1002.0, 1002.0, 1002.0, 1002.0, 1003.0, 1003.0, 1002.0, 1002.0, 1002.0, 1002.0, 1003.0, 1003.0, 1002.0, 1002.0, 1001.0, 1003.0, 1002.0, 1002.0, 1003.0, 1002.0, 1002.0, 1003.0, 1002.0, 1002.0, 1002.0, 1003.0, 1002.0, 1003.0, 1002.0, 1002.0, 1002.0, 1002.0, 1001.0, 1002.0, 1002.0, 1002.0, 1002.0, 1001.0, 1001.0, 1001.0, 1002.0, 1001.0, 1002.0, 1001.0, 1001.0, 1002.0, 1002.0, 1001.0, 1001.0, 1001.0, 1001.0, 1001.0, 1001.0, 1002.0, 1002.0, 1002.0, 1001.0, 1001.0, 1001.0, 1001.0, 1001.0, 1002.0, 1002.0, 1001.0, 1001.0, 1002.0, 1001.0, 1001.0, 1002.0, 1000.0, 1001.0, 1002.0, 1002.0],
      "WindowWidth": [2217.0, 2219.0, 2218.0, 2218.0, 2218.0, 2219.0, 2218.0, 2218.0, 2218.0, 2218.0, 2218.0, 2218.0, 2218.0, 2219.0, 2219.0, 2219.0, 2217.0, 2219.0, 2218.0, 2218.0, 2218.0, 2218.0, 2218.0, 2218.0, 2219.0, 2218.0, 2218.0, 2217.0, 2219.0, 2218.0, 2217.0, 2218.0, 2218.0, 2218.0, 2218.0, 2219.0, 2219.0, 2219.0, 2219.0, 2218.0, 2218.0, 2219.0, 2219.0, 2219.0, 2218.0, 2219.0, 2219.0, 2219.0, 2217.0, 2218.0, 2217.0, 2218.0, 2218.0, 2218.0, 2218.0, 2217.0, 2218.0, 2217.0, 2218.0, 2218.0, 2218.0, 2218.0, 2218.0, 2219.0, 2218.0, 2218.0, 2218.0, 2218.0, 2218.0, 2218.0, 2218.0, 2217.0, 2216.0, 2218.0, 2218.0, 2217.0, 2218.0, 2217.0, 2216.0, 2217.0, 2218.0, 2217.0, 2218.0, 2217.0, 2218.0, 2217.0, 2218.0, 2217.0, 2217.0, 2217.0, 2217.0, 2217.0, 2217.0, 2217.0, 2217.0, 2217.0, 2217.0, 2217.0, 2217.0, 2217.0, 2218.0, 2217.0, 2217.0, 2217.0, 2217.0, 2217.0, 2217.0, 2217.0, 2217.0, 2217.0, 2217.0, 2217.0, 2217.0, 2217.0, 2217.0, 2217.0, 2217.0, 2216.0, 2217.0, 2217.0, 2217.0, 2217.0, 2217.0, 2216.0, 2216.0, 2216.0, 2217.0, 2216.0, 2216.0, 2216.0, 2216.0, 2216.0, 2217.0, 2216.0, 2216.0, 2217.0, 2216.0, 2217.0, 2217.0, 2216.0, 2216.0, 2216.0, 2217.0, 2216.0, 2217.0, 2216.0, 2216.0, 2217.0, 2216.0, 2216.0, 2216.0, 2216.0, 2216.0, 2216.0, 2216.0, 2216.0, 2216.0, 2216.0, 2215.0, 2215.0, 2216.0, 2216.0, 2216.0, 2216.0, 2215.0, 2215.0, 2215.0, 2216.0, 2215.0, 2216.0, 2215.0, 2215.0, 2216.0, 2216.0, 2215.0, 2215.0, 2215.0, 2215.0, 2215.0, 2215.0, 2216.0, 2216.0, 2216.0, 2215.0, 2215.0, 2215.0, 2215.0, 2215.0, 2216.0, 2216.0, 2215.0, 2215.0, 2216.0, 2215.0, 2215.0, 2216.0, 2215.0, 2215.0, 2216.0, 2216.0]
    },
    "slices": {}
  }
}