{
  "AcquisitionMatrixPE": 80,
  "AcquisitionNumber": 1,
  "AcquisitionTime": "09:18:50.155000",
  "BandwidthPerPixelPhaseEncode": 44.643,
  "BaseResolution": 80,
  "BodyPartExamined": "BRAIN",
  "CoilCombinationMethod": "Sum of Squares",
  "ConsistencyInfo": "N4_VE11C_LATEST_20160120",
  "ConversionSoftware": "dcm2niix",
  "ConversionSoftwareVersion": "v1.0.20220720",
  "DerivedVendorReportedEchoSpacing": 0.000559998,
  "DeviceSerialNumber": "66112",
  "DwellTime": 2.7e-06,
  "EchoTime": 0.035,
  "EchoTrainLength": 39,
  "EffectiveEchoSpacing": 0.000279999,
  "FlipAngle": 90,
  "HeudiconvVersion": "0.13.1",
  "ImageOrientationPatientDICOM": [0.986652, 0.162343, 0.0127439, -0.158389, 0.938548, 0.30666],
  "ImageOrientationText": "Tra>Cor(17.7)>Sag(-2.2)",
  "ImageType": [
    "ORIGINAL",
    "PRIMARY",
    "M",
    "ND",
    "NORM",
    "MOSAIC"
],
  "ImagingFrequency": 123.252,
  "InPlanePhaseEncodingDirectionDICOM": "COL",
  "InstitutionAddress": "Maynard 3,Hanover,NH,US,03755",
  "InstitutionName": "Dartmouth College - PBS",
  "InstitutionalDepartmentName": "Department",
  "MRAcquisitionType": "2D",
  "MagneticFieldStrength": 3,
  "Manufacturer": "Siemens",
  "ManufacturersModelName": "Prisma",
  "Modality": "MR",
  "MultibandAccelerationFactor": 4,
  "NonlinearGradientCorrection": false,
  "ParallelReductionFactorInPlane": 2,
  "PartialFourier": 1,
  "PatientPosition": "HFS",
  "PercentPhaseFOV": 100,
  "PercentSampling": 100,
  "PhaseEncodingDirection": "j-",
  "PhaseEncodingSteps": 79,
  "PhaseResolution": 1,
  "PixelBandwidth": 2315,
  "ProcedureStepDescription": "dbic^QA",
  "ProtocolName": "func-bold_task-rest_acq-p2-s4-3.5mm",
  "PulseSequenceDetails": "%SiemensSeq%\\ep2d_bold",
  "ReceiveCoilActiveElements": "HEA;HEP",
  "ReceiveCoilName": "Head_32",
  "ReconMatrixPE": 80,
  "RefLinesPE": 24,
  "RepetitionTime": 2,
  "SAR": 0.0209693,
  "ScanOptions": "FS",
  "ScanningSequence": "EP",
  "SequenceName": "*epfid2d1_80",
  "SequenceVariant": "SK",
  "SeriesDescription": "func-bold_task-rest_acq-p2-s4-3.5mm",
  "SeriesNumber": 7,
  "ShimSetting": [4154, -7709, -7519, 260, -36, -129, 0, 68],
  "SliceThickness": 3.5,
  "SliceTiming": [1.485, 0, 0.99, 0.2475, 1.2375, 0.7425, 1.7325, 0.495, 1.485, 0, 0.99, 0.2475, 1.2375, 0.7425, 1.7325, 0.495, 1.485, 0, 0.99, 0.2475, 1.2375, 0.7425, 1.7325, 0.495, 1.485, 0, 0.99, 0.2475, 1.2375, 0.7425, 1.7325, 0.495],
  "SoftwareVersions": "syngo MR E11",
  "SpacingBetweenSlices": 3.99,
  "StationName": "AWP66112",
  "TaskName": "rest",
  "TotalReadoutTime": 0.0221199,
  "TxRefAmp": 225.846,
  "dcmmeta_affine": [
    [-2.959956169128418, -0.4751679301261902, -0.1509157419204712, 145.91741943359375],
    [-0.4870302379131317, 2.815643787384033, 1.2152962684631348, -107.71575164794922],
    [0.038231801241636276, -0.9199810028076172, 3.797417402267456, -19.963390350341797],
    [0.0, 0.0, 0.0, 1.0]
],
  "dcmmeta_reorient_transform": [
    [0.0, -1.0, 0.0, 79.0],
    [1.0, 0.0, 0.0, 0.0],
    [0.0, 0.0, 1.0, 0.0],
    [0.0, 0.0, 0.0, 1.0]
],
  "dcmmeta_shape": [80, 80, 32, 200],
  "dcmmeta_slice_dim": 2,
  "dcmmeta_version": 0.6,
  "global": {
    "const": {
      "AccessionNumber": "qa",
      "AcquisitionMatrix": [80, 0, 0, 80],
      "AngioFlag": "N",
      "BitsAllocated": 16,
      "BitsStored": 12,
      "BodyPartExamined": "BRAIN",
      "Columns": 480,
      "EchoNumbers": 1,
      "EchoTime": 35.0,
      "EchoTrainLength": 39,
      "FlipAngle": 90.0,
      "HighBit": 11,
      "ImageOrientationPatient": [0.9866520203783, 0.16234341024013, 0.01274393326364, -0.1583893117354, 0.93854795399608, 0.30666033975355],
      "ImagePositionPatient": [-605.3367743913, -775.25492998567, -284.28445395275],
      "ImageType": [
        "ORIGINAL",
        "PRIMARY",
        "M",
        "ND",
        "NORM",
        "MOSAIC"
],
      "ImagedNucleus": "1H",
      "ImagingFrequency": 123.252349,
      "InPlanePhaseEncodingDirection": "COL",
      "MRAcquisitionType": "2D",
      "MagneticFieldStrength": 3.0,
      "Manufacturer": "SIEMENS",
      "ManufacturerModelName": "Prisma",
      "Modality": "MR",
      "NumberOfAverages": 1.0,
      "NumberOfPhaseEncodingSteps": 79,
      "PercentPhaseFieldOfView": 100.0,
      "PercentSampling": 100.0,
      "PerformedProcedureStepStartTime": "090819.563000",
      "PhotometricInterpretation": "MONOCHROME2",
      "PixelBandwidth": 2315.0,
      "PixelRepresentation": 0,
      "PixelSpacing": [3.0, 3.0],
      "ProtocolName": "func-bold_task-rest_acq-p2-s4-3.5mm",
      "RepetitionTime": 2000.0,
      "Rows": 480,
      "SAR": 0.02096932546263,
      "SamplesPerPixel": 1,
      "ScanOptions": "FS",
      "ScanningSequence": "EP",
      "SequenceName": "*epfid2d1_80",
      "SequenceVariant": "SK",
      "SeriesDescription": "func-bold_task-rest_acq-p2-s4-3.5mm",
      "SeriesNumber": 7,
      "SeriesTime": "091940.369000",
      "SliceLocation": -57.327598638091,
      "SliceThickness": 3.5,
      "SmallestImagePixelValue": 0,
      "SoftwareVersions": "syngo MR E11",
      "SpacingBetweenSlices": 3.9899999839189,
      "SpecificCharacterSet": "ISO_IR 100",
      "StudyID": "5",
      "StudyTime": "090819.523000",
      "TransmitCoilName": "Body",
      "VariableFlipAngleFlag": "N",
      "WindowCenterWidthExplanation": "Algo1",
      "dBdt": 0.0},
    "slices": {}
  },
  "time": {
    "samples": {
      "AcquisitionNumber": [1, 2, 3, 4, 5, 6, 7, 8, 9, 10, 11, 12, 13, 14, 15, 16, 17, 18, 19, 20, 21, 22, 23, 24, 25, 26, 27, 28, 29, 30, 31, 32, 33, 34, 35, 36, 37, 38, 39, 40, 41, 42, 43, 44, 45, 46, 47, 48, 49, 50, 51, 52, 53, 54, 55, 56, 57, 58, 59, 60, 61, 62, 63, 64, 65, 66, 67, 68, 69, 70, 71, 72, 73, 74, 75, 76, 77, 78, 79, 80, 81, 82, 83, 84, 85, 86, 87, 88, 89, 90, 91, 92, 93, 94, 95, 96, 97, 98, 99, 100, 101, 102, 103, 104, 105, 106, 107, 108, 109, 110, 111, 112, 113, 114, 115, 116, 117, 118, 119, 120, 121, 122, 123, 124, 125, 126, 127, 128, 129, 130, 131, 132, 133, 134, 135, 136, 137, 138, 139, 140, 141, 142, 143, 144, 145, 146, 147, 148, 149, 150, 151, 152, 153, 154, 155, 156, 157, 158, 159, 160, 161, 162, 163, 164, 165, 166, 167, 168, 169, 170, 171, 172, 173, 174, 175, 176, 177, 178, 179, 180, 181, 182, 183, 184, 185, 186, 187, 188, 189, 190, 191, 192, 193, 194, 195, 196, 197, 198, 199, 200],
      "AcquisitionTime": ["091850.155000", "091852.155000", "091854.155000", "091856.155000", "091858.155000", "091900.155000", "091902.155000", "091904.155000", "091906.155000", "091908.155000", "091910.155000", "091912.155000", "091914.155000", "091916.155000", "091918.155000", "091920.155000", "091922.155000", "091924.155000", "091926.155000", "091928.155000", "091930.155000", "091932.155000", "091934.155000", "091936.155000", "091938.155000", "091940.155000", "091942.155000", "091944.155000", "091946.155000", "091948.155000", "091950.155000", "091952.155000", "091954.155000", "091956.155000", "091958.155000", "092000.155000", "092002.155000", "092004.155000", "092006.155000", "092008.155000", "092010.155000", "092012.155000", "092014.155000", "092016.155000", "092018.155000", "092020.155000", "092022.155000", "092024.155000", "092026.155000", "092028.155000", "092030.155000", "092032.155000", "092034.155000", "092036.155000", "092038.155000", "092040.155000", "092042.155000", "092044.155000", "092046.155000", "092048.155000", "092050.155000", "092052.155000", "092054.155000", "092056.155000", "092058.155000", "092100.155000", "092102.155000", "092104.155000", "092106.155000", "092108.155000", "092110.155000", "092112.155000", "092114.155000", "092116.155000", "092118.155000", "092120.155000", "092122.155000", "092124.155000", "092126.155000", "092128.155000", "092130.155000", "092132.155000", "092134.155000", "092136.155000", "092138.155000", "092140.155000", "092142.155000", "092144.155000", "092146.155000", "092148.155000", "092150.155000", "092152.155000", "092154.155000", "092156.155000", "092158.155000", "092200.155000", "092202.155000", "092204.155000", "092206.155000", "092208.155000", "092210.155000", "092212.155000", "092214.155000", "092216.155000", "092218.155000", "092220.155000", "092222.155000", "092224.155000", "092226.155000", "092228.155000", "092230.155000", "092232.155000", "092234.155000", "092236.155000", "092238.155000", "092240.155000", "092242.155000", "092244.155000", "092246.155000", "092248.155000", "092250.155000", "092252.155000", "092254.155000", "092256.155000", "092258.155000", "092300.155000", "092302.155000", "092304.155000", "092306.155000", "092308.155000", "092310.155000", "092312.155000", "092314.155000", "092316.155000", "092318.155000", "092320.155000", "092322.155000", "092324.155000", "092326.155000", "092328.155000", "092330.155000", "092332.155000", "092334.155000", "092336.155000", "092338.155000", "092340.155000", "092342.155000", "092344.155000", "092346.155000", "092348.155000", "092350.155000", "092352.155000", "092354.155000", "092356.155000", "092358.155000", "092400.155000", "092402.155000", "092404.155000", "092406.155000", "092408.155000", "092410.155000", "092412.155000", "092414.155000", "092416.155000", "092418.155000", "092420.155000", "092422.155000", "092424.155000", "092426.155000", "092428.155000", "092430.155000", "092432.155000", "092434.155000", "092436.155000", "092438.155000", "092440.155000", "092442.155000", "092444.155000", "092446.155000", "092448.155000", "092450.155000", "092452.155000", "092454.155000", "092456.155000", "092458.155000", "092500.155000", "092502.155000", "092504.155000", "092506.155000", "092508.155000", "092510.155000", "092512.155000", "092514.155000", "092516.155000", "092518.155000", "092520.155000", "092522.155000", "092524.155000", "092526.155000", "092528.155000"],
      "ContentTime": ["091940.372000", "091940.376000", "091940.378000", "091940.381000", "091940.389000", "091940.392000", "091940.394000", "091940.397000", "091940.399000", "091940.402000", "091940.404000", "091940.407000", "091940.409000", "091940.412000", "091940.414000", "091940.417000", "091940.419000", "091940.430000", "091940.432000", "091940.435000", "091940.437000", "091940.440000", "091940.442000", "091940.445000", "091940.447000", "092020.368000", "092020.371000", "092020.374000", "092020.376000", "092020.379000", "092020.381000", "092020.384000", "092020.387000", "092020.389000", "092020.392000", "092020.394000", "092020.397000", "092020.399000", "092020.402000", "092020.404000", "092020.407000", "092020.409000", "092020.412000", "092020.414000", "092020.417000", "092100.368000", "092100.371000", "092100.374000", "092100.376000", "092100.379000", "092100.381000", "092100.384000", "092100.386000", "092100.389000", "092100.392000", "092100.394000", "092100.397000", "092100.399000", "092100.402000", "092100.404000", "092100.407000", "092100.409000", "092100.412000", "092100.414000", "092100.417000", "092140.367000", "092140.370000", "092140.373000", "092140.375000", "092140.378000", "092140.380000", "092140.383000", "092140.385000", "092140.388000", "092140.390000", "092140.393000", "092140.395000", "092140.398000", "092140.400000", "092140.403000", "092140.405000", "092140.408000", "092140.411000", "092140.413000", "092140.416000", "092220.368000", "092220.370000", "092220.373000", "092220.375000", "092220.378000", "092220.381000", "092220.383000", "092220.386000", "092220.388000", "092220.391000", "092220.393000", "092220.396000", "092220.398000", "092220.401000", "092220.403000", "092220.406000", "092220.408000", "092220.411000", "092220.413000", "092220.416000", "092300.368000", "092300.371000", "092300.374000", "092300.376000", "092300.379000", "092300.381000", "092300.384000", "092300.386000", "092300.389000", "092300.391000", "092300.394000", "092300.396000", "092300.399000", "092300.401000", "092300.404000", "092300.406000", "092300.409000", "092300.412000", "092300.414000", "092300.417000", "092340.367000", "092340.370000", "092340.386000", "092340.389000", "092340.392000", "092340.394000", "092340.397000", "092340.399000", "092340.402000", "092340.404000", "092340.407000", "092340.409000", "092340.412000", "092340.414000", "092340.417000", "092340.419000", "092340.422000", "092340.424000", "092340.427000", "092340.429000", "092420.368000", "092420.370000", "092420.373000", "092420.376000", "092420.378000", "092420.381000", "092420.383000", "092420.386000", "092420.388000", "092420.391000", "092420.393000", "092420.396000", "092420.398000", "092420.401000", "092420.404000", "092420.406000", "092420.409000", "092420.411000", "092420.414000", "092420.416000", "092500.368000", "092500.371000", "092500.374000", "092500.376000", "092500.379000", "092500.382000", "092500.384000", "092500.387000", "092500.389000", "092500.392000", "092500.394000", "092500.397000", "092500.399000", "092500.402000", "092500.404000", "092500.407000", "092500.409000", "092500.412000", "092500.414000", "092500.417000", "092529.246000", "092529.249000", "092529.252000", "092529.254000", "092529.257000", "092529.260000", "092529.263000", "092529.265000", "092529.268000", "092529.270000", "092529.273000", "092529.277000", "092529.280000", "092529.284000", "092529.288000"],
      "InstanceCreationTime": ["091940.372000", "091940.376000", "091940.378000", "091940.381000", "091940.389000", "091940.392000", "091940.394000", "091940.397000", "091940.399000", "091940.402000", "091940.404000", "091940.407000", "091940.409000", "091940.412000", "091940.414000", "091940.417000", "091940.419000", "091940.430000", "091940.432000", "091940.435000", "091940.437000", "091940.440000", "091940.442000", "091940.445000", "091940.447000", "092020.368000", "092020.371000", "092020.374000", "092020.376000", "092020.379000", "092020.381000", "092020.384000", "092020.387000", "092020.389000", "092020.392000", "092020.394000", "092020.397000", "092020.399000", "092020.402000", "092020.404000", "092020.407000", "092020.409000", "092020.412000", "092020.414000", "092020.417000", "092100.368000", "092100.371000", "092100.374000", "092100.376000", "092100.379000", "092100.381000", "092100.384000", "092100.386000", "092100.389000", "092100.392000", "092100.394000", "092100.397000", "092100.399000", "092100.402000", "092100.404000", "092100.407000", "092100.409000", "092100.412000", "092100.414000", "092100.417000", "092140.367000", "092140.370000", "092140.373000", "092140.375000", "092140.378000", "092140.380000", "092140.383000", "092140.385000", "092140.388000", "092140.390000", "092140.393000", "092140.395000", "092140.398000", "092140.400000", "092140.403000", "092140.405000", "092140.408000", "092140.411000", "092140.413000", "092140.416000", "092220.368000", "092220.370000", "092220.373000", "092220.375000", "092220.378000", "092220.381000", "092220.383000", "092220.386000", "092220.388000", "092220.391000", "092220.393000", "092220.396000", "092220.398000", "092220.401000", "092220.403000", "092220.406000", "092220.408000", "092220.411000", "092220.413000", "092220.416000", "092300.368000", "092300.371000", "092300.374000", "092300.376000", "092300.379000", "092300.381000", "092300.384000", "092300.386000", "092300.389000", "092300.391000", "092300.394000", "092300.396000", "092300.399000", "092300.401000", "092300.404000", "092300.406000", "092300.409000", "092300.412000", "092300.414000", "092300.417000", "092340.367000", "092340.370000", "092340.386000", "092340.389000", "092340.392000", "092340.394000", "092340.397000", "092340.399000", "092340.402000", "092340.404000", "092340.407000", "092340.409000", "092340.412000", "092340.414000", "092340.417000", "092340.419000", "092340.422000", "092340.424000", "092340.427000", "092340.429000", "092420.368000", "092420.370000", "092420.373000", "092420.376000", "092420.378000", "092420.381000", "092420.383000", "092420.386000", "092420.388000", "092420.391000", "092420.393000", "092420.396000", "092420.398000", "092420.401000", "092420.404000", "092420.406000", "092420.409000", "092420.411000", "092420.414000", "092420.416000", "092500.368000", "092500.371000", "092500.374000", "092500.376000", "092500.379000", "092500.382000", "092500.384000", "092500.387000", "092500.389000", "092500.392000", "092500.394000", "092500.397000", "092500.399000", "092500.402000", "092500.404000", "092500.407000", "092500.409000", "092500.412000", "092500.414000", "092500.417000", "092529.246000", "092529.249000", "092529.252000", "092529.254000", "092529.257000", "092529.260000", "092529.263000", "092529.265000", "092529.268000", "092529.270000", "092529.273000", "092529.277000", "092529.280000", "092529.284000", "092529.288000"],
      "InstanceNumber": [1, 2, 3, 4, 5, 6, 7, 8, 9, 10, 11, 12, 13, 14, 15, 16, 17, 18, 19, 20, 21, 22, 23, 24, 25, 26, 27, 28, 29, 30, 31, 32, 33, 34, 35, 36, 37, 38, 39, 40, 41, 42, 43, 44, 45, 46, 47, 48, 49, 50, 51, 52, 53, 54, 55, 56, 57, 58, 59, 60, 61, 62, 63, 64, 65, 66, 67, 68, 69, 70, 71, 72, 73, 74, 75, 76, 77, 78, 79, 80, 81, 82, 83, 84, 85, 86, 87, 88, 89, 90, 91, 92, 93, 94, 95, 96, 97, 98, 99, 100, 101, 102, 103, 104, 105, 106, 107, 108, 109, 110, 111, 112, 113, 114, 115, 116, 117, 118, 119, 120, 121, 122, 123, 124, 125, 126, 127, 128, 129, 130, 131, 132, 133, 134, 135, 136, 137, 138, 139, 140, 141, 142, 143, 144, 145, 146, 147, 148, 149, 150, 151, 152, 153, 154, 155, 156, 157, 158, 159, 160, 161, 162, 163, 164, 165, 166, 167, 168, 169, 170, 171, 172, 173, 174, 175, 176, 177, 178, 179, 180, 181, 182, 183, 184, 185, 186, 187, 188, 189, 190, 191, 192, 193, 194, 195, 196, 197, 198, 199, 200],
      "LargestImagePixelValue": [2133, 2139, 2142, 2143, 2140, 2136, 2138, 2137, 2140, 2141, 2135, 2139, 2139, 2139, 2136, 2140, 2137, 2138, 2140, 2134, 2141, 2141, 2140, 2143, 2141, 2136, 2139, 2141, 2141, 2142, 2138, 2137, 2139, 2136, 2139, 2139, 2142, 2139, 2137, 2139, 2143, 2143, 2139, 2141, 2139, 2140, 2142, 2135, 2140, 2136, 2144, 2141, 2137, 2144, 2139, 2138, 2144, 2140, 2142, 2137, 2141, 2139, 2140, 2142, 2142, 2144, 2137, 2139, 2142, 2142, 2141, 2135, 2146, 2145, 2145, 2140, 2143, 2142, 2145, 2141, 2143, 2142, 2141, 2140, 2143, 2141, 2143, 2137, 2139, 2141, 2144, 2139, 2145, 2141, 2141, 2142, 2141, 2140, 2140, 2139, 2144, 2142, 2141, 2142, 2142, 2144, 2142, 2141, 2146, 2139, 2142, 2141, 2141, 2140, 2143, 2141, 2139, 2140, 2141, 2144, 2144, 2141, 2143, 2142, 2144, 2144, 2147, 2146, 2144, 2142, 2137, 2141, 2142, 2139, 2140, 2144, 2140, 2140, 2143, 2139, 2140, 2140, 2139, 2144, 2141, 2140, 2144, 2141, 2139, 2147, 2141, 2142, 2144, 2144, 2143, 2141, 2142, 2144, 2143, 2138, 2148, 2141, 2144, 2142, 2137, 2140, 2144, 2146, 2141, 2138, 2146, 2142, 2145, 2142, 2143, 2140, 2143, 2145, 2151, 2142, 2145, 2139, 2144, 2140, 2144, 2141, 2145, 2142, 2140, 2141, 2141, 2138, 2137, 2146, 2139, 2144, 2143, 2145, 2144, 2139],
      "WindowCenter": [943.0, 944.0, 944.0, 944.0, 944.0, 944.0, 944.0, 944.0, 944.0, 944.0, 944.0, 944.0, 944.0, 944.0, 944.0, 944.0, 944.0, 944.0, 944.0, 944.0, 944.0, 944.0, 944.0, 944.0, 944.0, 944.0, 944.0, 944.0, 944.0, 944.0, 944.0, 944.0, 944.0, 944.0, 944.0, 944.0, 944.0, 944.0, 944.0, 944.0, 944.0, 944.0, 944.0, 944.0, 944.0, 944.0, 944.0, 944.0, 944.0, 944.0, 944.0, 943.0, 944.0, 944.0, 944.0, 944.0, 944.0, 943.0, 944.0, 944.0, 943.0, 943.0, 944.0, 944.0, 944.0, 944.0, 943.0, 944.0, 944.0, 944.0, 944.0, 944.0, 944.0, 944.0, 944.0, 944.0, 944.0, 944.0, 944.0, 944.0, 944.0, 944.0, 944.0, 944.0, 944.0, 944.0, 944.0, 944.0, 944.0, 944.0, 944.0, 944.0, 944.0, 944.0, 944.0, 944.0, 944.0, 943.0, 944.0, 944.0, 944.0, 944.0, 944.0, 944.0, 944.0, 944.0, 944.0, 944.0, 944.0, 943.0, 944.0, 944.0, 944.0, 944.0, 943.0, 944.0, 944.0, 943.0, 944.0, 944.0, 944.0, 944.0, 944.0, 944.0, 944.0, 944.0, 944.0, 944.0, 944.0, 944.0, 944.0, 944.0, 944.0, 943.0, 944.0, 944.0, 944.0, 944.0, 944.0, 943.0, 944.0, 944.0, 944.0, 944.0, 943.0, 943.0, 944.0, 944.0, 944.0, 944.0, 944.0, 944.0, 943.0, 943.0, 944.0, 943.0, 944.0, 943.0, 944.0, 944.0, 944.0, 944.0, 944.0, 944.0, 944.0, 944.0, 944.0, 944.0, 944.0, 944.0, 944.0, 944.0, 944.0, 944.0, 944.0, 944.0, 944.0, 944.0, 944.0, 943.0, 944.0, 944.0, 943.0, 944.0, 944.0, 943.0, 944.0, 944.0, 944.0, 943.0, 944.0, 944.0, 944.0, 944.0, 944.0, 944.0, 944.0, 944.0, 944.0, 944.0],
      "WindowWidth": [2179.0, 2179.0, 2180.0, 2180.0, 2180.0, 2180.0, 2180.0, 2179.0, 2179.0, 2180.0, 2179.0, 2180.0, 2180.0, 2180.0, 2180.0, 2180.0, 2180.0, 2180.0, 2180.0, 2180.0, 2180.0, 2180.0, 2180.0, 2180.0, 2180.0, 2180.0, 2180.0, 2180.0, 2180.0, 2180.0, 2180.0, 2180.0, 2180.0, 2180.0, 2180.0, 2180.0, 2180.0, 2180.0, 2180.0, 2180.0, 2180.0, 2180.0, 2180.0, 2180.0, 2180.0, 2180.0, 2180.0, 2180.0, 2180.0, 2180.0, 2180.0, 2180.0, 2180.0, 2180.0, 2180.0, 2180.0, 2180.0, 2179.0, 2180.0, 2180.0, 2179.0, 2179.0, 2180.0, 2180.0, 2180.0, 2180.0, 2179.0, 2180.0, 2180.0, 2181.0, 2180.0, 2181.0, 2180.0, 2180.0, 2180.0, 2180.0, 2180.0, 2180.0, 2180.0, 2180.0, 2180.0, 2180.0, 2181.0, 2181.0, 2180.0, 2180.0, 2181.0, 2181.0, 2180.0, 2181.0, 2180.0, 2180.0, 2180.0, 2180.0, 2180.0, 2180.0, 2181.0, 2180.0, 2180.0, 2180.0, 2180.0, 2181.0, 2180.0, 2181.0, 2181.0, 2180.0, 2181.0, 2180.0, 2181.0, 2180.0, 2180.0, 2181.0, 2180.0, 2180.0, 2180.0, 2180.0, 2181.0, 2180.0, 2180.0, 2180.0, 2180.0, 2181.0, 2181.0, 2181.0, 2181.0, 2181.0, 2180.0, 2180.0, 2180.0, 2181.0, 2180.0, 2180.0, 2180.0, 2180.0, 2180.0, 2180.0, 2180.0, 2180.0, 2180.0, 2180.0, 2180.0, 2180.0, 2180.0, 2180.0, 2180.0, 2179.0, 2180.0, 2180.0, 2180.0, 2180.0, 2180.0, 2180.0, 2179.0, 2180.0, 2181.0, 2179.0, 2180.0, 2179.0, 2180.0, 2181.0, 2181.0, 2181.0, 2180.0, 2180.0, 2180.0, 2180.0, 2180.0, 2181.0, 2181.0, 2180.0, 2181.0, 2181.0, 2180.0, 2180.0, 2181.0, 2180.0, 2180.0, 2180.0, 2180.0, 2179.0, 2181.0, 2180.0, 2179.0, 2180.0, 2180.0, 2179.0, 2180.0, 2180.0, 2180.0, 2179.0, 2180.0, 2180.0, 2180.0, 2180.0, 2180.0, 2180.0, 2180.0, 2180.0, 2180.0, 2180.0]
    },
    "slices": {}
  }
}