{
  "AcquisitionMatrixPE": 80,
  "AcquisitionNumber": 1,
  "AcquisitionTime": "09:32:26.500000",
  "BandwidthPerPixelPhaseEncode": 25,
  "BaseResolution": 80,
  "BodyPartExamined": "BRAIN",
  "CoilCombinationMethod": "Sum of Squares",
  "ConsistencyInfo": "N4_VE11C_LATEST_20160120",
  "ConversionSoftware": "dcm2niix",
  "ConversionSoftwareVersion": "v1.0.20220720",
  "DerivedVendorReportedEchoSpacing": 0.0005,
  "DeviceSerialNumber": "66112",
  "DwellTime": 2.7e-06,
  "EchoTime": 0.03,
  "EchoTrainLength": 80,
  "EffectiveEchoSpacing": 0.0005,
  "FlipAngle": 10,
  "HeudiconvVersion": "0.13.1",
  "ImageOrientationPatientDICOM": [0.986652, 0.162343, 0.0127439, -0.158389, 0.938548, 0.30666],
  "ImageOrientationText": "Tra>Cor(17.7)>Sag(-2.2)",
  "ImageType": [
    "ORIGINAL",
    "PRIMARY",
    "M",
    "ND",
    "NORM",
    "MOSAIC"
],
  "ImagingFrequency": 123.252,
  "InPlanePhaseEncodingDirectionDICOM": "COL",
  "InstitutionAddress": "Maynard 3,Hanover,NH,US,03755",
  "InstitutionName": "Dartmouth College - PBS",
  "InstitutionalDepartmentName": "Department",
  "MRAcquisitionType": "2D",
  "MagneticFieldStrength": 3,
  "Manufacturer": "Siemens",
  "ManufacturersModelName": "Prisma",
  "MatrixCoilMode": "SENSE",
  "Modality": "MR",
  "NonlinearGradientCorrection": false,
  "PartialFourier": 1,
  "PatientPosition": "HFS",
  "PercentPhaseFOV": 100,
  "PercentSampling": 100,
  "PhaseEncodingDirection": "j-",
  "PhaseEncodingSteps": 80,
  "PhaseResolution": 1,
  "PixelBandwidth": 2315,
  "ProcedureStepDescription": "dbic^QA",
  "ProtocolName": "func-bold_fa-10",
  "PulseSequenceDetails": "%SiemensSeq%\\ep2d_bold",
  "ReceiveCoilActiveElements": "HEA;HEP",
  "ReceiveCoilName": "Head_32",
  "ReconMatrixPE": 80,
  "RepetitionTime": 2,
  "SAR": 0.0117555,
  "ScanOptions": "FS",
  "ScanningSequence": "EP",
  "SequenceName": "*epfid2d1_80",
  "SequenceVariant": "SK",
  "SeriesDescription": "func-bold_fa-10",
  "SeriesNumber": 10,
  "ShimSetting": [4154, -7708, -7519, 259, -38, -127, 0, 70],
  "SliceThickness": 3.5,
  "SliceTiming": [0.99, 0, 1.0575, 0.0675, 1.1225, 0.1325, 1.1875, 0.1975, 1.255, 0.265, 1.32, 0.33, 1.3875, 0.3975, 1.4525, 0.4625, 1.5175, 0.5275, 1.585, 0.595, 1.65, 0.66, 1.7175, 0.7275, 1.7825, 0.7925, 1.8475, 0.8575, 1.915, 0.925],
  "SoftwareVersions": "syngo MR E11",
  "SpacingBetweenSlices": 3.99,
  "StationName": "AWP66112",
  "TotalReadoutTime": 0.0395,
  "TxRefAmp": 225.846,
  "dcmmeta_affine": [
    [-2.959956169128418, -0.4751679301261902, -0.1509157419204712, 143.48316955566406],
    [-0.4870302379131317, 2.815643787384033, 1.2152963876724243, -100.6158218383789],
    [0.038231801241636276, -0.9199810028076172, 3.797417402267456, -17.525253295898438],
    [0.0, 0.0, 0.0, 1.0]
],
  "dcmmeta_reorient_transform": [
    [0.0, -1.0, 0.0, 79.0],
    [1.0, 0.0, 0.0, 0.0],
    [0.0, 0.0, 1.0, 0.0],
    [0.0, 0.0, 0.0, 1.0]
],
  "dcmmeta_shape": [80, 80, 30, 200],
  "dcmmeta_slice_dim": 2,
  "dcmmeta_version": 0.6,
  "global": {
    "const": {
      "AccessionNumber": "qa",
      "AcquisitionMatrix": [80, 0, 0, 80],
      "AngioFlag": "N",
      "BitsAllocated": 16,
      "BitsStored": 12,
      "BodyPartExamined": "BRAIN",
      "Columns": 480,
      "EchoNumbers": 1,
      "EchoTime": 30.0,
      "EchoTrainLength": 80,
      "FlipAngle": 10.0,
      "HighBit": 11,
      "ImageOrientationPatient": [0.9866520203783, 0.16234341024013, 0.01274393326364, -0.1583893117354, 0.93854795399608, 0.30666033975355],
      "ImagePositionPatient": [-602.90252212918, -782.35486360993, -281.8463168983],
      "ImageType": [
        "ORIGINAL",
        "PRIMARY",
        "M",
        "ND",
        "NORM",
        "MOSAIC"
],
      "ImagedNucleus": "1H",
      "ImagingFrequency": 123.252348,
      "InPlanePhaseEncodingDirection": "COL",
      "MRAcquisitionType": "2D",
      "MagneticFieldStrength": 3.0,
      "Manufacturer": "SIEMENS",
      "ManufacturerModelName": "Prisma",
      "Modality": "MR",
      "NumberOfAverages": 1.0,
      "NumberOfPhaseEncodingSteps": 80,
      "PercentPhaseFieldOfView": 100.0,
      "PercentSampling": 100.0,
      "PerformedProcedureStepStartTime": "090819.563000",
      "PhotometricInterpretation": "MONOCHROME2",
      "PixelBandwidth": 2315.0,
      "PixelRepresentation": 0,
      "PixelSpacing": [3.0, 3.0],
      "ProtocolName": "func-bold_fa-10",
      "RepetitionTime": 2000.0,
      "Rows": 480,
      "SAR": 0.01175549212076,
      "SamplesPerPixel": 1,
      "ScanOptions": "FS",
      "ScanningSequence": "EP",
      "SequenceName": "*epfid2d1_80",
      "SequenceVariant": "SK",
      "SeriesDescription": "func-bold_fa-10",
      "SeriesNumber": 10,
      "SeriesTime": "093320.513000",
      "SliceLocation": -52.752532360954,
      "SliceThickness": 3.5,
      "SmallestImagePixelValue": 0,
      "SoftwareVersions": "syngo MR E11",
      "SpacingBetweenSlices": 3.9900000443334,
      "SpecificCharacterSet": "ISO_IR 100",
      "StudyID": "5",
      "StudyTime": "090819.523000",
      "TransmitCoilName": "Body",
      "VariableFlipAngleFlag": "N",
      "WindowCenterWidthExplanation": "Algo1",
      "dBdt": 0.0},
    "slices": {}
  },
  "time": {
    "samples": {
      "AcquisitionNumber": [1, 2, 3, 4, 5, 6, 7, 8, 9, 10, 11, 12, 13, 14, 15, 16, 17, 18, 19, 20, 21, 22, 23, 24, 25, 26, 27, 28, 29, 30, 31, 32, 33, 34, 35, 36, 37, 38, 39, 40, 41, 42, 43, 44, 45, 46, 47, 48, 49, 50, 51, 52, 53, 54, 55, 56, 57, 58, 59, 60, 61, 62, 63, 64, 65, 66, 67, 68, 69, 70, 71, 72, 73, 74, 75, 76, 77, 78, 79, 80, 81, 82, 83, 84, 85, 86, 87, 88, 89, 90, 91, 92, 93, 94, 95, 96, 97, 98, 99, 100, 101, 102, 103, 104, 105, 106, 107, 108, 109, 110, 111, 112, 113, 114, 115, 116, 117, 118, 119, 120, 121, 122, 123, 124, 125, 126, 127, 128, 129, 130, 131, 132, 133, 134, 135, 136, 137, 138, 139, 140, 141, 142, 143, 144, 145, 146, 147, 148, 149, 150, 151, 152, 153, 154, 155, 156, 157, 158, 159, 160, 161, 162, 163, 164, 165, 166, 167, 168, 169, 170, 171, 172, 173, 174, 175, 176, 177, 178, 179, 180, 181, 182, 183, 184, 185, 186, 187, 188, 189, 190, 191, 192, 193, 194, 195, 196, 197, 198, 199, 200],
      "AcquisitionTime": ["093226.500000", "093228.500000", "093230.500000", "093232.500000", "093234.500000", "093236.500000", "093238.500000", "093240.500000", "093242.500000", "093244.500000", "093246.500000", "093248.500000", "093250.500000", "093252.500000", "093254.500000", "093256.500000", "093258.500000", "093300.500000", "093302.500000", "093304.500000", "093306.500000", "093308.500000", "093310.500000", "093312.500000", "093314.500000", "093316.500000", "093318.500000", "093320.500000", "093322.500000", "093324.500000", "093326.500000", "093328.500000", "093330.500000", "093332.500000", "093334.500000", "093336.500000", "093338.500000", "093340.500000", "093342.500000", "093344.500000", "093346.500000", "093348.500000", "093350.500000", "093352.500000", "093354.500000", "093356.500000", "093358.500000", "093400.500000", "093402.500000", "093404.500000", "093406.500000", "093408.500000", "093410.500000", "093412.500000", "093414.500000", "093416.500000", "093418.500000", "093420.500000", "093422.500000", "093424.500000", "093426.500000", "093428.500000", "093430.500000", "093432.500000", "093434.500000", "093436.500000", "093438.500000", "093440.500000", "093442.500000", "093444.500000", "093446.500000", "093448.500000", "093450.500000", "093452.500000", "093454.500000", "093456.500000", "093458.500000", "093500.500000", "093502.500000", "093504.500000", "093506.500000", "093508.500000", "093510.500000", "093512.500000", "093514.500000", "093516.500000", "093518.500000", "093520.500000", "093522.500000", "093524.500000", "093526.500000", "093528.500000", "093530.500000", "093532.500000", "093534.500000", "093536.500000", "093538.500000", "093540.500000", "093542.500000", "093544.500000", "093546.500000", "093548.500000", "093550.500000", "093552.500000", "093554.500000", "093556.500000", "093558.500000", "093600.500000", "093602.500000", "093604.500000", "093606.500000", "093608.500000", "093610.500000", "093612.500000", "093614.500000", "093616.500000", "093618.500000", "093620.500000", "093622.500000", "093624.500000", "093626.500000", "093628.500000", "093630.500000", "093632.500000", "093634.500000", "093636.500000", "093638.500000", "093640.500000", "093642.500000", "093644.500000", "093646.500000", "093648.500000", "093650.500000", "093652.500000", "093654.500000", "093656.500000", "093658.500000", "093700.500000", "093702.500000", "093704.500000", "093706.500000", "093708.500000", "093710.500000", "093712.500000", "093714.500000", "093716.500000", "093718.500000", "093720.500000", "093722.500000", "093724.500000", "093726.500000", "093728.500000", "093730.500000", "093732.500000", "093734.500000", "093736.500000", "093738.500000", "093740.500000", "093742.500000", "093744.500000", "093746.500000", "093748.500000", "093750.500000", "093752.500000", "093754.500000", "093756.500000", "093758.500000", "093800.500000", "093802.500000", "093804.500000", "093806.500000", "093808.500000", "093810.500000", "093812.500000", "093814.500000", "093816.500000", "093818.500000", "093820.500000", "093822.500000", "093824.500000", "093826.500000", "093828.500000", "093830.500000", "093832.500000", "093834.500000", "093836.500000", "093838.500000", "093840.500000", "093842.500000", "093844.500000", "093846.500000", "093848.500000", "093850.500000", "093852.500000", "093854.500000", "093856.500000", "093858.500000", "093900.500000", "093902.500000", "093904.500000"],
      "ContentTime": ["093320.516000", "093320.520000", "093320.522000", "093320.525000", "093320.527000", "093320.530000", "093320.532000", "093320.535000", "093320.537000", "093320.540000", "093320.542000", "093320.544000", "093320.547000", "093320.549000", "093320.552000", "093320.554000", "093320.557000", "093320.560000", "093320.562000", "093320.565000", "093320.567000", "093320.569000", "093320.572000", "093320.575000", "093320.577000", "093320.579000", "093320.582000", "093400.511000", "093400.514000", "093400.517000", "093400.519000", "093400.522000", "093400.524000", "093400.527000", "093400.529000", "093400.532000", "093400.534000", "093400.536000", "093400.539000", "093400.542000", "093400.544000", "093400.547000", "093400.549000", "093400.552000", "093400.554000", "093400.557000", "093400.559000", "093440.512000", "093440.515000", "093440.518000", "093440.520000", "093440.523000", "093440.525000", "093440.528000", "093440.530000", "093440.532000", "093440.535000", "093440.537000", "093440.540000", "093440.542000", "093440.545000", "093440.547000", "093440.550000", "093440.552000", "093440.555000", "093440.558000", "093440.561000", "093520.511000", "093520.514000", "093520.517000", "093520.519000", "093520.522000", "093520.524000", "093520.527000", "093520.529000", "093520.531000", "093520.534000", "093520.536000", "093520.539000", "093520.541000", "093520.544000", "093520.546000", "093520.549000", "093520.551000", "093520.554000", "093520.557000", "093520.559000", "093600.511000", "093600.514000", "093600.517000", "093600.519000", "093600.522000", "093600.524000", "093600.527000", "093600.529000", "093600.532000", "093600.534000", "093600.537000", "093600.539000", "093600.541000", "093600.544000", "093600.546000", "093600.549000", "093600.551000", "093600.554000", "093600.556000", "093600.559000", "093640.512000", "093640.515000", "093640.518000", "093640.520000", "093640.523000", "093640.525000", "093640.527000", "093640.530000", "093640.533000", "093640.535000", "093640.538000", "093640.540000", "093640.543000", "093640.545000", "093640.548000", "093640.550000", "093640.553000", "093640.555000", "093640.557000", "093640.560000", "093720.512000", "093720.514000", "093720.517000", "093720.519000", "093720.522000", "093720.524000", "093720.527000", "093720.529000", "093720.532000", "093720.534000", "093720.537000", "093720.539000", "093720.543000", "093720.545000", "093720.548000", "093720.550000", "093720.553000", "093720.556000", "093720.558000", "093720.561000", "093800.511000", "093800.514000", "093800.517000", "093800.519000", "093800.522000", "093800.524000", "093800.527000", "093800.529000", "093800.532000", "093800.534000", "093800.537000", "093800.540000", "093800.543000", "093800.545000", "093800.548000", "093800.551000", "093800.553000", "093800.556000", "093800.558000", "093800.561000", "093840.511000", "093840.514000", "093840.517000", "093840.519000", "093840.522000", "093840.524000", "093840.527000", "093840.529000", "093840.532000", "093840.534000", "093840.537000", "093840.540000", "093840.543000", "093840.545000", "093840.548000", "093840.550000", "093840.553000", "093840.555000", "093840.558000", "093840.561000", "093905.974000", "093905.977000", "093905.979000", "093905.982000", "093905.984000", "093905.987000", "093905.989000", "093905.992000", "093905.995000", "093905.997000", "093906.001000", "093906.003000", "093906.006000"],
      "InstanceCreationTime": ["093320.516000", "093320.520000", "093320.522000", "093320.525000", "093320.527000", "093320.530000", "093320.532000", "093320.535000", "093320.537000", "093320.540000", "093320.542000", "093320.544000", "093320.547000", "093320.549000", "093320.552000", "093320.554000", "093320.557000", "093320.560000", "093320.562000", "093320.565000", "093320.567000", "093320.569000", "093320.572000", "093320.575000", "093320.577000", "093320.579000", "093320.582000", "093400.511000", "093400.514000", "093400.517000", "093400.519000", "093400.522000", "093400.524000", "093400.527000", "093400.529000", "093400.532000", "093400.534000", "093400.536000", "093400.539000", "093400.542000", "093400.544000", "093400.547000", "093400.549000", "093400.552000", "093400.554000", "093400.557000", "093400.559000", "093440.512000", "093440.515000", "093440.518000", "093440.520000", "093440.523000", "093440.525000", "093440.528000", "093440.530000", "093440.532000", "093440.535000", "093440.537000", "093440.540000", "093440.542000", "093440.545000", "093440.547000", "093440.550000", "093440.552000", "093440.555000", "093440.558000", "093440.561000", "093520.511000", "093520.514000", "093520.517000", "093520.519000", "093520.522000", "093520.524000", "093520.527000", "093520.529000", "093520.531000", "093520.534000", "093520.536000", "093520.539000", "093520.541000", "093520.544000", "093520.546000", "093520.549000", "093520.551000", "093520.554000", "093520.557000", "093520.559000", "093600.511000", "093600.514000", "093600.517000", "093600.519000", "093600.522000", "093600.524000", "093600.527000", "093600.529000", "093600.532000", "093600.534000", "093600.537000", "093600.539000", "093600.541000", "093600.544000", "093600.546000", "093600.549000", "093600.551000", "093600.554000", "093600.556000", "093600.559000", "093640.512000", "093640.515000", "093640.518000", "093640.520000", "093640.523000", "093640.525000", "093640.527000", "093640.530000", "093640.533000", "093640.535000", "093640.538000", "093640.540000", "093640.543000", "093640.545000", "093640.548000", "093640.550000", "093640.553000", "093640.555000", "093640.557000", "093640.560000", "093720.512000", "093720.514000", "093720.517000", "093720.519000", "093720.522000", "093720.524000", "093720.527000", "093720.529000", "093720.532000", "093720.534000", "093720.537000", "093720.539000", "093720.543000", "093720.545000", "093720.548000", "093720.550000", "093720.553000", "093720.556000", "093720.558000", "093720.561000", "093800.511000", "093800.514000", "093800.517000", "093800.519000", "093800.522000", "093800.524000", "093800.527000", "093800.529000", "093800.532000", "093800.534000", "093800.537000", "093800.540000", "093800.543000", "093800.545000", "093800.548000", "093800.551000", "093800.553000", "093800.556000", "093800.558000", "093800.561000", "093840.511000", "093840.514000", "093840.517000", "093840.519000", "093840.522000", "093840.524000", "093840.527000", "093840.529000", "093840.532000", "093840.534000", "093840.537000", "093840.540000", "093840.543000", "093840.545000", "093840.548000", "093840.550000", "093840.553000", "093840.555000", "093840.558000", "093840.561000", "093905.974000", "093905.977000", "093905.979000", "093905.982000", "093905.984000", "093905.987000", "093905.989000", "093905.992000", "093905.995000", "093905.997000", "093906.001000", "093906.003000", "093906.006000"],
      "InstanceNumber": [1, 2, 3, 4, 5, 6, 7, 8, 9, 10, 11, 12, 13, 14, 15, 16, 17, 18, 19, 20, 21, 22, 23, 24, 25, 26, 27, 28, 29, 30, 31, 32, 33, 34, 35, 36, 37, 38, 39, 40, 41, 42, 43, 44, 45, 46, 47, 48, 49, 50, 51, 52, 53, 54, 55, 56, 57, 58, 59, 60, 61, 62, 63, 64, 65, 66, 67, 68, 69, 70, 71, 72, 73, 74, 75, 76, 77, 78, 79, 80, 81, 82, 83, 84, 85, 86, 87, 88, 89, 90, 91, 92, 93, 94, 95, 96, 97, 98, 99, 100, 101, 102, 103, 104, 105, 106, 107, 108, 109, 110, 111, 112, 113, 114, 115, 116, 117, 118, 119, 120, 121, 122, 123, 124, 125, 126, 127, 128, 129, 130, 131, 132, 133, 134, 135, 136, 137, 138, 139, 140, 141, 142, 143, 144, 145, 146, 147, 148, 149, 150, 151, 152, 153, 154, 155, 156, 157, 158, 159, 160, 161, 162, 163, 164, 165, 166, 167, 168, 169, 170, 171, 172, 173, 174, 175, 176, 177, 178, 179, 180, 181, 182, 183, 184, 185, 186, 187, 188, 189, 190, 191, 192, 193, 194, 195, 196, 197, 198, 199, 200],
      "LargestImagePixelValue": [350, 351, 351, 350, 351, 353, 353, 346, 351, 351, 351, 350, 349, 350, 349, 348, 350, 349, 349, 352, 349, 347, 350, 350, 349, 349, 351, 350, 350, 349, 348, 347, 349, 350, 348, 349, 348, 348, 351, 349, 349, 350, 348, 352, 349, 348, 349, 348, 350, 350, 349, 350, 348, 349, 351, 353, 347, 351, 348, 349, 349, 351, 350, 349, 348, 350, 349, 349, 348, 348, 347, 354, 349, 349, 349, 346, 349, 352, 345, 350, 351, 351, 352, 351, 347, 347, 352, 352, 349, 352, 350, 346, 347, 347, 347, 350, 352, 350, 348, 350, 348, 350, 349, 349, 351, 346, 350, 349, 350, 350, 348, 350, 349, 351, 350, 346, 349, 348, 349, 351, 349, 347, 350, 348, 349, 349, 348, 350, 350, 349, 347, 350, 348, 349, 347, 350, 349, 348, 347, 347, 346, 348, 348, 347, 348, 350, 350, 347, 347, 348, 350, 348, 348, 350, 347, 348, 347, 347, 349, 348, 346, 347, 346, 348, 346, 351, 345, 348, 348, 348, 348, 348, 347, 350, 348, 347, 350, 349, 348, 346, 348, 352, 346, 349, 352, 349, 347, 350, 349, 348, 347, 347, 349, 345, 347, 350, 348, 347, 350, 348],
      "WindowCenter": [292.0, 292.0, 292.0, 292.0, 292.0, 292.0, 292.0, 291.0, 292.0, 292.0, 292.0, 292.0, 291.0, 292.0, 291.0, 291.0, 292.0, 291.0, 291.0, 292.0, 291.0, 291.0, 292.0, 292.0, 291.0, 291.0, 292.0, 292.0, 292.0, 291.0, 291.0, 291.0, 291.0, 292.0, 291.0, 291.0, 291.0, 291.0, 292.0, 291.0, 291.0, 292.0, 291.0, 292.0, 291.0, 291.0, 291.0, 291.0, 292.0, 292.0, 291.0, 292.0, 291.0, 291.0, 292.0, 292.0, 291.0, 292.0, 291.0, 291.0, 291.0, 292.0, 292.0, 291.0, 291.0, 292.0, 291.0, 291.0, 291.0, 291.0, 291.0, 292.0, 291.0, 291.0, 291.0, 291.0, 291.0, 292.0, 291.0, 292.0, 292.0, 292.0, 292.0, 292.0, 291.0, 291.0, 292.0, 292.0, 291.0, 292.0, 292.0, 291.0, 291.0, 291.0, 291.0, 292.0, 292.0, 292.0, 291.0, 292.0, 291.0, 292.0, 291.0, 291.0, 292.0, 291.0, 292.0, 291.0, 291.0, 292.0, 291.0, 292.0, 291.0, 292.0, 292.0, 291.0, 291.0, 291.0, 291.0, 292.0, 291.0, 291.0, 292.0, 291.0, 291.0, 291.0, 291.0, 291.0, 292.0, 291.0, 291.0, 291.0, 291.0, 291.0, 291.0, 291.0, 291.0, 291.0, 291.0, 291.0, 291.0, 291.0, 291.0, 291.0, 291.0, 291.0, 292.0, 291.0, 291.0, 290.0, 292.0, 291.0, 291.0, 292.0, 291.0, 291.0, 291.0, 291.0, 291.0, 291.0, 290.0, 291.0, 291.0, 291.0, 291.0, 291.0, 291.0, 291.0, 291.0, 290.0, 291.0, 290.0, 290.0, 291.0, 290.0, 291.0, 292.0, 291.0, 291.0, 291.0, 291.0, 292.0, 290.0, 291.0, 291.0, 291.0, 291.0, 291.0, 290.0, 290.0, 290.0, 291.0, 291.0, 291.0, 291.0, 291.0, 290.0, 290.0, 291.0, 291.0],
      "WindowWidth": [635.0, 634.0, 634.0, 635.0, 635.0, 635.0, 634.0, 634.0, 634.0, 635.0, 634.0, 635.0, 634.0, 634.0, 634.0, 633.0, 635.0, 634.0, 634.0, 635.0, 634.0, 634.0, 634.0, 634.0, 634.0, 634.0, 635.0, 635.0, 634.0, 633.0, 634.0, 633.0, 634.0, 635.0, 634.0, 634.0, 633.0, 634.0, 635.0, 634.0, 633.0, 634.0, 633.0, 634.0, 634.0, 634.0, 634.0, 634.0, 634.0, 634.0, 634.0, 634.0, 634.0, 634.0, 634.0, 634.0, 634.0, 635.0, 634.0, 634.0, 634.0, 634.0, 634.0, 634.0, 634.0, 634.0, 633.0, 633.0, 634.0, 633.0, 633.0, 634.0, 633.0, 633.0, 633.0, 633.0, 634.0, 634.0, 633.0, 634.0, 634.0, 634.0, 634.0, 634.0, 633.0, 633.0, 634.0, 634.0, 633.0, 634.0, 634.0, 633.0, 633.0, 633.0, 633.0, 634.0, 634.0, 634.0, 633.0, 634.0, 633.0, 634.0, 633.0, 633.0, 634.0, 633.0, 634.0, 633.0, 634.0, 634.0, 633.0, 634.0, 633.0, 634.0, 634.0, 633.0, 633.0, 633.0, 633.0, 634.0, 633.0, 633.0, 634.0, 633.0, 633.0, 633.0, 633.0, 634.0, 634.0, 633.0, 633.0, 634.0, 633.0, 633.0, 633.0, 634.0, 633.0, 633.0, 633.0, 633.0, 633.0, 633.0, 633.0, 633.0, 633.0, 634.0, 634.0, 633.0, 633.0, 632.0, 634.0, 633.0, 633.0, 634.0, 633.0, 633.0, 633.0, 633.0, 633.0, 633.0, 632.0, 633.0, 633.0, 633.0, 633.0, 633.0, 633.0, 633.0, 633.0, 632.0, 633.0, 632.0, 632.0, 633.0, 632.0, 633.0, 634.0, 633.0, 633.0, 633.0, 633.0, 634.0, 632.0, 633.0, 633.0, 633.0, 633.0, 633.0, 632.0, 632.0, 632.0, 633.0, 632.0, 633.0, 633.0, 633.0, 632.0, 632.0, 633.0, 633.0]
    },
    "slices": {}
  }
}