{
  "AcquisitionMatrixPE": 80,
  "AcquisitionNumber": 1,
  "AcquisitionTime": "09:46:8.187500",
  "BandwidthPerPixelPhaseEncode": 48.077,
  "BaseResolution": 80,
  "BodyPartExamined": "BRAIN",
  "CoilCombinationMethod": "Sum of Squares",
  "ConsistencyInfo": "N4_VE11C_LATEST_20160120",
  "ConversionSoftware": "dcm2niix",
  "ConversionSoftwareVersion": "v1.0.20220720",
  "DerivedVendorReportedEchoSpacing": 0.000519999,
  "DeviceSerialNumber": "66112",
  "DwellTime": 2.7e-06,
  "EchoTime": 0.035,
  "EchoTrainLength": 39,
  "EffectiveEchoSpacing": 0.00026,
  "FlipAngle": 90,
  "HeudiconvVersion": "0.13.1",
  "ImageOrientationPatientDICOM": [0.983262, 0.181912, 0.0101537, -0.176208, 0.935307, 0.306842],
  "ImageOrientationText": "Tra>Cor(17.7)>Sag(-2.7)",
  "ImageType": [
    "ORIGINAL",
    "PRIMARY",
    "M",
    "ND",
    "NORM",
    "MOSAIC"
],
  "ImagingFrequency": 123.252,
  "InPlanePhaseEncodingDirectionDICOM": "COL",
  "InstitutionAddress": "Maynard 3,Hanover,NH,US,03755",
  "InstitutionName": "Dartmouth College - PBS",
  "InstitutionalDepartmentName": "Department",
  "MRAcquisitionType": "2D",
  "MagneticFieldStrength": 3,
  "Manufacturer": "Siemens",
  "ManufacturersModelName": "Prisma",
  "MatrixCoilMode": "GRAPPA",
  "Modality": "MR",
  "NonlinearGradientCorrection": false,
  "ParallelReductionFactorInPlane": 2,
  "PartialFourier": 1,
  "PatientPosition": "HFS",
  "PercentPhaseFOV": 100,
  "PercentSampling": 100,
  "PhaseEncodingDirection": "j-",
  "PhaseEncodingSteps": 79,
  "PhaseResolution": 1,
  "PixelBandwidth": 2315,
  "ProcedureStepDescription": "dbic^QA",
  "ProtocolName": "func-bold_task-rest_acq-p2",
  "PulseSequenceDetails": "%SiemensSeq%\\ep2d_bold",
  "ReceiveCoilActiveElements": "HEA;HEP",
  "ReceiveCoilName": "Head_32",
  "ReconMatrixPE": 80,
  "RefLinesPE": 24,
  "RepetitionTime": 2,
  "SAR": 0.0557805,
  "ScanOptions": "FS",
  "ScanningSequence": "EP",
  "SequenceName": "*epfid2d1_80",
  "SequenceVariant": "SK",
  "SeriesDescription": "func-bold_task-rest_acq-p2",
  "SeriesNumber": 5,
  "ShimSetting": [4141, -7705, -7517, 261, -88, -186, 8, 63],
  "SliceThickness": 3.5,
  "SliceTiming": [0.99, 0, 1.055, 0.065, 1.1225, 0.1325, 1.1875, 0.1975, 1.2525, 0.2625, 1.32, 0.33, 1.385, 0.395, 1.4525, 0.4625, 1.5175, 0.5275, 1.5825, 0.5925, 1.65, 0.66, 1.715, 0.725, 1.7825, 0.7925, 1.8475, 0.8575, 1.9125, 0.9225],
  "SoftwareVersions": "syngo MR E11",
  "SpacingBetweenSlices": 3.99,
  "StationName": "AWP66112",
  "TaskName": "rest",
  "TotalReadoutTime": 0.02054,
  "TxRefAmp": 230.757,
  "dcmmeta_affine": [
    [-2.949787139892578, -0.5286247730255127, -0.18482224643230438, 144.12765502929688],
    [-0.5457355380058289, 2.805920124053955, 1.2109469175338745, -98.52066040039062],
    [0.03046116791665554, -0.9205262660980225, 3.7973079681396484, -23.6512393951416],
    [0.0, 0.0, 0.0, 1.0]
],
  "dcmmeta_reorient_transform": [
    [0.0, -1.0, 0.0, 79.0],
    [1.0, 0.0, 0.0, 0.0],
    [0.0, 0.0, 1.0, 0.0],
    [0.0, 0.0, 0.0, 1.0]
],
  "dcmmeta_shape": [80, 80, 30, 200],
  "dcmmeta_slice_dim": 2,
  "dcmmeta_version": 0.6,
  "global": {
    "const": {
      "AccessionNumber": "qa",
      "AcquisitionMatrix": [80, 0, 0, 80],
      "AngioFlag": "N",
      "BitsAllocated": 16,
      "BitsStored": 12,
      "BodyPartExamined": "BRAIN",
      "Columns": 480,
      "EchoNumbers": 1,
      "EchoTime": 35.0,
      "EchoTrainLength": 39,
      "FlipAngle": 90.0,
      "HighBit": 11,
      "ImageOrientationPatient": [0.98326241736568, 0.18191184817599, 0.01015372293316, -0.1762082563332, 0.93530667869381, 0.30684208836266],
      "ImagePositionPatient": [-586.59878802329, -793.47813844904, -286.57030093597],
      "ImageType": [
        "ORIGINAL",
        "PRIMARY",
        "M",
        "ND",
        "NORM",
        "MOSAIC"
],
      "ImagedNucleus": "1H",
      "ImagingFrequency": 123.252443,
      "InPlanePhaseEncodingDirection": "COL",
      "MRAcquisitionType": "2D",
      "MagneticFieldStrength": 3.0,
      "Manufacturer": "SIEMENS",
      "ManufacturerModelName": "Prisma",
      "Modality": "MR",
      "NumberOfAverages": 1.0,
      "NumberOfPhaseEncodingSteps": 79,
      "PercentPhaseFieldOfView": 100.0,
      "PercentSampling": 100.0,
      "PerformedProcedureStepStartTime": "094438.219000",
      "PhotometricInterpretation": "MONOCHROME2",
      "PixelBandwidth": 2315.0,
      "PixelRepresentation": 0,
      "PixelSpacing": [3.0, 3.0],
      "ProtocolName": "func-bold_task-rest_acq-p2",
      "RepetitionTime": 2000.0,
      "Rows": 480,
      "SAR": 0.05578051555431,
      "SamplesPerPixel": 1,
      "ScanOptions": "FS",
      "ScanningSequence": "EP",
      "SequenceName": "*epfid2d1_80",
      "SequenceVariant": "SK",
      "SeriesDescription": "func-bold_task-rest_acq-p2",
      "SeriesNumber": 5,
      "SeriesTime": "094705.071000",
      "SliceLocation": -59.085795916803,
      "SliceThickness": 3.5,
      "SmallestImagePixelValue": 0,
      "SoftwareVersions": "syngo MR E11",
      "SpacingBetweenSlices": 3.9899999769015,
      "SpecificCharacterSet": "ISO_IR 100",
      "StudyID": "110",
      "StudyTime": "094438.143000",
      "TransmitCoilName": "Body",
      "VariableFlipAngleFlag": "N",
      "WindowCenterWidthExplanation": "Algo1",
      "dBdt": 0.0},
    "slices": {}
  },
  "time": {
    "samples": {
      "AcquisitionNumber": [1, 2, 3, 4, 5, 6, 7, 8, 9, 10, 11, 12, 13, 14, 15, 16, 17, 18, 19, 20, 21, 22, 23, 24, 25, 26, 27, 28, 29, 30, 31, 32, 33, 34, 35, 36, 37, 38, 39, 40, 41, 42, 43, 44, 45, 46, 47, 48, 49, 50, 51, 52, 53, 54, 55, 56, 57, 58, 59, 60, 61, 62, 63, 64, 65, 66, 67, 68, 69, 70, 71, 72, 73, 74, 75, 76, 77, 78, 79, 80, 81, 82, 83, 84, 85, 86, 87, 88, 89, 90, 91, 92, 93, 94, 95, 96, 97, 98, 99, 100, 101, 102, 103, 104, 105, 106, 107, 108, 109, 110, 111, 112, 113, 114, 115, 116, 117, 118, 119, 120, 121, 122, 123, 124, 125, 126, 127, 128, 129, 130, 131, 132, 133, 134, 135, 136, 137, 138, 139, 140, 141, 142, 143, 144, 145, 146, 147, 148, 149, 150, 151, 152, 153, 154, 155, 156, 157, 158, 159, 160, 161, 162, 163, 164, 165, 166, 167, 168, 169, 170, 171, 172, 173, 174, 175, 176, 177, 178, 179, 180, 181, 182, 183, 184, 185, 186, 187, 188, 189, 190, 191, 192, 193, 194, 195, 196, 197, 198, 199, 200],
      "AcquisitionTime": ["094608.187500", "094610.187500", "094612.187500", "094614.187500", "094616.187500", "094618.187500", "094620.187500", "094622.187500", "094624.187500", "094626.187500", "094628.187500", "094630.187500", "094632.187500", "094634.187500", "094636.187500", "094638.187500", "094640.187500", "094642.187500", "094644.187500", "094646.187500", "094648.187500", "094650.187500", "094652.187500", "094654.187500", "094656.187500", "094658.187500", "094700.187500", "094702.187500", "094704.187500", "094706.187500", "094708.187500", "094710.187500", "094712.187500", "094714.187500", "094716.187500", "094718.187500", "094720.187500", "094722.187500", "094724.187500", "094726.187500", "094728.187500", "094730.187500", "094732.187500", "094734.187500", "094736.187500", "094738.187500", "094740.187500", "094742.187500", "094744.187500", "094746.187500", "094748.187500", "094750.187500", "094752.187500", "094754.187500", "094756.187500", "094758.187500", "094800.187500", "094802.187500", "094804.187500", "094806.187500", "094808.187500", "094810.187500", "094812.187500", "094814.187500", "094816.187500", "094818.187500", "094820.187500", "094822.187500", "094824.187500", "094826.187500", "094828.187500", "094830.187500", "094832.187500", "094834.187500", "094836.187500", "094838.187500", "094840.187500", "094842.187500", "094844.187500", "094846.187500", "094848.187500", "094850.187500", "094852.187500", "094854.187500", "094856.187500", "094858.187500", "094900.187500", "094902.187500", "094904.187500", "094906.187500", "094908.187500", "094910.187500", "094912.187500", "094914.187500", "094916.187500", "094918.187500", "094920.187500", "094922.187500", "094924.187500", "094926.187500", "094928.187500", "094930.187500", "094932.187500", "094934.187500", "094936.187500", "094938.187500", "094940.187500", "094942.187500", "094944.187500", "094946.187500", "094948.187500", "094950.187500", "094952.187500", "094954.187500", "094956.187500", "094958.187500", "095000.187500", "095002.187500", "095004.187500", "095006.187500", "095008.187500", "095010.187500", "095012.187500", "095014.187500", "095016.187500", "095018.187500", "095020.187500", "095022.187500", "095024.187500", "095026.187500", "095028.187500", "095030.187500", "095032.187500", "095034.187500", "095036.187500", "095038.187500", "095040.187500", "095042.187500", "095044.187500", "095046.187500", "095048.187500", "095050.187500", "095052.187500", "095054.187500", "095056.187500", "095058.187500", "095100.187500", "095102.187500", "095104.187500", "095106.187500", "095108.187500", "095110.187500", "095112.187500", "095114.187500", "095116.187500", "095118.187500", "095120.187500", "095122.187500", "095124.187500", "095126.187500", "095128.187500", "095130.187500", "095132.187500", "095134.187500", "095136.187500", "095138.187500", "095140.187500", "095142.187500", "095144.187500", "095146.187500", "095148.187500", "095150.187500", "095152.187500", "095154.187500", "095156.187500", "095158.187500", "095200.187500", "095202.187500", "095204.187500", "095206.187500", "095208.187500", "095210.187500", "095212.187500", "095214.187500", "095216.187500", "095218.187500", "095220.187500", "095222.187500", "095224.187500", "095226.187500", "095228.187500", "095230.187500", "095232.187500", "095234.187500", "095236.187500", "095238.187500", "095240.187500", "095242.187500", "095244.187500", "095246.187500"],
      "ContentTime": ["094705.075000", "094705.078000", "094705.081000", "094705.083000", "094705.086000", "094705.089000", "094705.091000", "094705.094000", "094705.096000", "094705.099000", "094705.102000", "094705.104000", "094705.107000", "094705.113000", "094705.116000", "094705.119000", "094705.121000", "094705.124000", "094705.126000", "094705.129000", "094705.138000", "094705.141000", "094705.144000", "094705.146000", "094705.149000", "094705.152000", "094705.154000", "094705.157000", "094745.069000", "094745.071000", "094745.074000", "094745.077000", "094745.080000", "094745.082000", "094745.085000", "094745.087000", "094745.090000", "094745.093000", "094745.095000", "094745.098000", "094745.100000", "094745.103000", "094745.106000", "094745.108000", "094745.111000", "094745.113000", "094745.116000", "094745.118000", "094825.070000", "094825.072000", "094825.075000", "094825.078000", "094825.080000", "094825.083000", "094825.085000", "094825.088000", "094825.091000", "094825.093000", "094825.096000", "094825.099000", "094825.101000", "094825.104000", "094825.106000", "094825.109000", "094825.112000", "094825.114000", "094825.117000", "094825.119000", "094905.069000", "094905.072000", "094905.075000", "094905.077000", "094905.080000", "094905.083000", "094905.086000", "094905.088000", "094905.097000", "094905.100000", "094905.102000", "094905.105000", "094905.107000", "094905.110000", "094905.113000", "094905.115000", "094905.118000", "094905.121000", "094905.123000", "094905.126000", "094945.069000", "094945.072000", "094945.075000", "094945.078000", "094945.085000", "094945.087000", "094945.090000", "094945.092000", "094945.095000", "094945.098000", "094945.107000", "094945.109000", "094945.112000", "094945.115000", "094945.117000", "094945.120000", "094945.123000", "094945.125000", "094945.128000", "094945.131000", "095025.070000", "095025.072000", "095025.075000", "095025.078000", "095025.080000", "095025.083000", "095025.086000", "095025.088000", "095025.091000", "095025.094000", "095025.096000", "095025.099000", "095025.101000", "095025.104000", "095025.106000", "095025.109000", "095025.112000", "095025.114000", "095025.117000", "095025.126000", "095105.070000", "095105.073000", "095105.075000", "095105.078000", "095105.081000", "095105.083000", "095105.086000", "095105.088000", "095105.091000", "095105.094000", "095105.097000", "095105.099000", "095105.102000", "095105.105000", "095105.107000", "095105.110000", "095105.112000", "095105.115000", "095105.118000", "095105.120000", "095145.069000", "095145.072000", "095145.075000", "095145.078000", "095145.080000", "095145.083000", "095145.086000", "095145.088000", "095145.091000", "095145.094000", "095145.096000", "095145.099000", "095145.101000", "095145.104000", "095145.107000", "095145.109000", "095145.112000", "095145.114000", "095145.117000", "095145.120000", "095225.069000", "095225.071000", "095225.074000", "095225.077000", "095225.080000", "095225.082000", "095225.085000", "095225.087000", "095225.090000", "095225.093000", "095225.095000", "095225.098000", "095225.101000", "095225.103000", "095225.106000", "095225.108000", "095225.111000", "095225.114000", "095225.116000", "095225.119000", "095247.240000", "095247.243000", "095247.253000", "095247.256000", "095247.259000", "095247.262000", "095247.264000", "095247.267000", "095247.272000", "095247.275000", "095247.279000", "095247.282000"],
      "InstanceCreationTime": ["094705.075000", "094705.078000", "094705.081000", "094705.083000", "094705.086000", "094705.089000", "094705.091000", "094705.094000", "094705.096000", "094705.099000", "094705.102000", "094705.104000", "094705.107000", "094705.113000", "094705.116000", "094705.119000", "094705.121000", "094705.124000", "094705.126000", "094705.129000", "094705.138000", "094705.141000", "094705.144000", "094705.146000", "094705.149000", "094705.152000", "094705.154000", "094705.157000", "094745.069000", "094745.071000", "094745.074000", "094745.077000", "094745.080000", "094745.082000", "094745.085000", "094745.087000", "094745.090000", "094745.093000", "094745.095000", "094745.098000", "094745.100000", "094745.103000", "094745.106000", "094745.108000", "094745.111000", "094745.113000", "094745.116000", "094745.118000", "094825.070000", "094825.072000", "094825.075000", "094825.078000", "094825.080000", "094825.083000", "094825.085000", "094825.088000", "094825.091000", "094825.093000", "094825.096000", "094825.099000", "094825.101000", "094825.104000", "094825.106000", "094825.109000", "094825.112000", "094825.114000", "094825.117000", "094825.119000", "094905.069000", "094905.072000", "094905.075000", "094905.077000", "094905.080000", "094905.083000", "094905.086000", "094905.088000", "094905.097000", "094905.100000", "094905.102000", "094905.105000", "094905.107000", "094905.110000", "094905.113000", "094905.115000", "094905.118000", "094905.121000", "094905.123000", "094905.126000", "094945.069000", "094945.072000", "094945.075000", "094945.078000", "094945.085000", "094945.087000", "094945.090000", "094945.092000", "094945.095000", "094945.098000", "094945.107000", "094945.109000", "094945.112000", "094945.115000", "094945.117000", "094945.120000", "094945.123000", "094945.125000", "094945.128000", "094945.131000", "095025.070000", "095025.072000", "095025.075000", "095025.078000", "095025.080000", "095025.083000", "095025.086000", "095025.088000", "095025.091000", "095025.094000", "095025.096000", "095025.099000", "095025.101000", "095025.104000", "095025.106000", "095025.109000", "095025.112000", "095025.114000", "095025.117000", "095025.126000", "095105.070000", "095105.073000", "095105.075000", "095105.078000", "095105.081000", "095105.083000", "095105.086000", "095105.088000", "095105.091000", "095105.094000", "095105.097000", "095105.099000", "095105.102000", "095105.105000", "095105.107000", "095105.110000", "095105.112000", "095105.115000", "095105.118000", "095105.120000", "095145.069000", "095145.072000", "095145.075000", "095145.078000", "095145.080000", "095145.083000", "095145.086000", "095145.088000", "095145.091000", "095145.094000", "095145.096000", "095145.099000", "095145.101000", "095145.104000", "095145.107000", "095145.109000", "095145.112000", "095145.114000", "095145.117000", "095145.120000", "095225.069000", "095225.071000", "095225.074000", "095225.077000", "095225.080000", "095225.082000", "095225.085000", "095225.087000", "095225.090000", "095225.093000", "095225.095000", "095225.098000", "095225.101000", "095225.103000", "095225.106000", "095225.108000", "095225.111000", "095225.114000", "095225.116000", "095225.119000", "095247.240000", "095247.243000", "095247.253000", "095247.256000", "095247.259000", "095247.262000", "095247.264000", "095247.267000", "095247.272000", "095247.275000", "095247.279000", "095247.282000"],
      "InstanceNumber": [1, 2, 3, 4, 5, 6, 7, 8, 9, 10, 11, 12, 13, 14, 15, 16, 17, 18, 19, 20, 21, 22, 23, 24, 25, 26, 27, 28, 29, 30, 31, 32, 33, 34, 35, 36, 37, 38, 39, 40, 41, 42, 43, 44, 45, 46, 47, 48, 49, 50, 51, 52, 53, 54, 55, 56, 57, 58, 59, 60, 61, 62, 63, 64, 65, 66, 67, 68, 69, 70, 71, 72, 73, 74, 75, 76, 77, 78, 79, 80, 81, 82, 83, 84, 85, 86, 87, 88, 89, 90, 91, 92, 93, 94, 95, 96, 97, 98, 99, 100, 101, 102, 103, 104, 105, 106, 107, 108, 109, 110, 111, 112, 113, 114, 115, 116, 117, 118, 119, 120, 121, 122, 123, 124, 125, 126, 127, 128, 129, 130, 131, 132, 133, 134, 135, 136, 137, 138, 139, 140, 141, 142, 143, 144, 145, 146, 147, 148, 149, 150, 151, 152, 153, 154, 155, 156, 157, 158, 159, 160, 161, 162, 163, 164, 165, 166, 167, 168, 169, 170, 171, 172, 173, 174, 175, 176, 177, 178, 179, 180, 181, 182, 183, 184, 185, 186, 187, 188, 189, 190, 191, 192, 193, 194, 195, 196, 197, 198, 199, 200],
      "LargestImagePixelValue": [2166, 2160, 2160, 2158, 2158, 2157, 2158, 2163, 2159, 2154, 2163, 2160, 2155, 2157, 2159, 2156, 2156, 2158, 2156, 2157, 2153, 2154, 2155, 2160, 2163, 2165, 2162, 2155, 2161, 2160, 2156, 2162, 2164, 2152, 2159, 2163, 2157, 2157, 2154, 2156, 2157, 2156, 2153, 2160, 2154, 2156, 2160, 2152, 2155, 2158, 2165, 2163, 2165, 2166, 2151, 2159, 2153, 2154, 2151, 2159, 2163, 2158, 2149, 2161, 2161, 2160, 2165, 2169, 2155, 2160, 2157, 2157, 2155, 2166, 2158, 2152, 2155, 2163, 2153, 2154, 2159, 2172, 2157, 2162, 2160, 2155, 2158, 2160, 2158, 2161, 2161, 2150, 2163, 2159, 2161, 2157, 2163, 2162, 2160, 2165, 2155, 2156, 2164, 2160, 2163, 2152, 2153, 2154, 2156, 2158, 2156, 2158, 2152, 2163, 2156, 2164, 2156, 2161, 2155, 2161, 2155, 2158, 2154, 2158, 2155, 2151, 2160, 2155, 2155, 2157, 2157, 2152, 2154, 2150, 2153, 2150, 2159, 2157, 2159, 2154, 2159, 2158, 2160, 2153, 2154, 2154, 2155, 2153, 2152, 2155, 2161, 2154, 2146, 2156, 2151, 2149, 2150, 2159, 2154, 2157, 2165, 2156, 2157, 2154, 2154, 2158, 2163, 2156, 2152, 2154, 2157, 2157, 2155, 2153, 2161, 2155, 2154, 2161, 2163, 2150, 2161, 2157, 2158, 2157, 2156, 2168, 2158, 2153, 2156, 2156, 2157, 2160, 2152, 2159, 2155, 2166, 2161, 2163, 2156, 2157],
      "WindowCenter": [1009.0, 1010.0, 1009.0, 1009.0, 1009.0, 1009.0, 1009.0, 1009.0, 1009.0, 1010.0, 1009.0, 1009.0, 1009.0, 1009.0, 1010.0, 1009.0, 1010.0, 1009.0, 1009.0, 1010.0, 1009.0, 1009.0, 1009.0, 1009.0, 1009.0, 1009.0, 1009.0, 1009.0, 1009.0, 1009.0, 1010.0, 1009.0, 1009.0, 1009.0, 1009.0, 1009.0, 1009.0, 1010.0, 1010.0, 1009.0, 1009.0, 1009.0, 1010.0, 1009.0, 1009.0, 1009.0, 1009.0, 1009.0, 1009.0, 1009.0, 1009.0, 1009.0, 1009.0, 1009.0, 1008.0, 1008.0, 1009.0, 1009.0, 1009.0, 1008.0, 1008.0, 1008.0, 1008.0, 1009.0, 1008.0, 1008.0, 1008.0, 1009.0, 1008.0, 1008.0, 1009.0, 1008.0, 1009.0, 1008.0, 1008.0, 1008.0, 1008.0, 1009.0, 1008.0, 1008.0, 1008.0, 1008.0, 1008.0, 1008.0, 1008.0, 1008.0, 1008.0, 1008.0, 1008.0, 1008.0, 1008.0, 1008.0, 1008.0, 1008.0, 1008.0, 1008.0, 1008.0, 1008.0, 1008.0, 1008.0, 1008.0, 1008.0, 1008.0, 1008.0, 1008.0, 1008.0, 1008.0, 1008.0, 1008.0, 1008.0, 1008.0, 1008.0, 1008.0, 1007.0, 1008.0, 1008.0, 1008.0, 1008.0, 1007.0, 1008.0, 1008.0, 1007.0, 1008.0, 1008.0, 1008.0, 1007.0, 1008.0, 1007.0, 1008.0, 1007.0, 1008.0, 1007.0, 1008.0, 1007.0, 1007.0, 1007.0, 1007.0, 1007.0, 1007.0, 1007.0, 1007.0, 1007.0, 1007.0, 1008.0, 1007.0, 1007.0, 1007.0, 1007.0, 1007.0, 1007.0, 1008.0, 1007.0, 1007.0, 1007.0, 1007.0, 1007.0, 1007.0, 1007.0, 1007.0, 1007.0, 1008.0, 1007.0, 1007.0, 1007.0, 1007.0, 1008.0, 1007.0, 1007.0, 1007.0, 1007.0, 1008.0, 1008.0, 1007.0, 1007.0, 1007.0, 1007.0, 1007.0, 1007.0, 1007.0, 1007.0, 1007.0, 1007.0, 1007.0, 1007.0, 1008.0, 1008.0, 1007.0, 1007.0, 1007.0, 1007.0, 1008.0, 1007.0, 1008.0, 1007.0, 1007.0, 1008.0, 1007.0, 1007.0, 1008.0, 1007.0],
      "WindowWidth": [2223.0, 2224.0, 2223.0, 2223.0, 2223.0, 2223.0, 2223.0, 2223.0, 2223.0, 2224.0, 2223.0, 2224.0, 2223.0, 2224.0, 2224.0, 2223.0, 2225.0, 2224.0, 2223.0, 2224.0, 2223.0, 2224.0, 2223.0, 2223.0, 2223.0, 2223.0, 2223.0, 2223.0, 2223.0, 2223.0, 2223.0, 2223.0, 2223.0, 2223.0, 2223.0, 2223.0, 2223.0, 2223.0, 2223.0, 2223.0, 2223.0, 2223.0, 2223.0, 2223.0, 2222.0, 2223.0, 2223.0, 2223.0, 2223.0, 2223.0, 2223.0, 2222.0, 2222.0, 2222.0, 2222.0, 2222.0, 2223.0, 2222.0, 2222.0, 2222.0, 2222.0, 2222.0, 2222.0, 2222.0, 2222.0, 2222.0, 2221.0, 2222.0, 2221.0, 2221.0, 2222.0, 2221.0, 2222.0, 2221.0, 2221.0, 2221.0, 2221.0, 2222.0, 2221.0, 2221.0, 2221.0, 2221.0, 2221.0, 2221.0, 2221.0, 2221.0, 2221.0, 2221.0, 2221.0, 2221.0, 2221.0, 2221.0, 2221.0, 2221.0, 2221.0, 2221.0, 2221.0, 2221.0, 2220.0, 2221.0, 2220.0, 2220.0, 2220.0, 2220.0, 2220.0, 2220.0, 2221.0, 2220.0, 2220.0, 2219.0, 2220.0, 2220.0, 2220.0, 2220.0, 2220.0, 2220.0, 2219.0, 2219.0, 2219.0, 2219.0, 2220.0, 2220.0, 2219.0, 2220.0, 2219.0, 2220.0, 2219.0, 2219.0, 2220.0, 2219.0, 2220.0, 2219.0, 2219.0, 2219.0, 2219.0, 2219.0, 2219.0, 2219.0, 2219.0, 2219.0, 2219.0, 2219.0, 2219.0, 2220.0, 2219.0, 2219.0, 2219.0, 2219.0, 2219.0, 2219.0, 2219.0, 2219.0, 2219.0, 2219.0, 2219.0, 2219.0, 2219.0, 2219.0, 2219.0, 2219.0, 2219.0, 2218.0, 2218.0, 2218.0, 2218.0, 2219.0, 2218.0, 2219.0, 2218.0, 2219.0, 2219.0, 2219.0, 2218.0, 2218.0, 2218.0, 2218.0, 2218.0, 2218.0, 2218.0, 2218.0, 2218.0, 2218.0, 2218.0, 2218.0, 2219.0, 2219.0, 2218.0, 2218.0, 2218.0, 2218.0, 2219.0, 2218.0, 2219.0, 2218.0, 2218.0, 2219.0, 2218.0, 2218.0, 2219.0, 2218.0]
    },
    "slices": {}
  }
}