{
  "AcquisitionMatrixPE": 80,
  "AcquisitionNumber": 1,
  "AcquisitionTime": "09:59:51.475000",
  "BandwidthPerPixelPhaseEncode": 25,
  "BaseResolution": 80,
  "BodyPartExamined": "BRAIN",
  "CoilCombinationMethod": "Sum of Squares",
  "ConsistencyInfo": "N4_VE11C_LATEST_20160120",
  "ConversionSoftware": "dcm2niix",
  "ConversionSoftwareVersion": "v1.0.20220720",
  "DerivedVendorReportedEchoSpacing": 0.0005,
  "DeviceSerialNumber": "66112",
  "DwellTime": 2.7e-06,
  "EchoTime": 0.03,
  "EchoTrainLength": 80,
  "EffectiveEchoSpacing": 0.0005,
  "FlipAngle": 77,
  "HeudiconvVersion": "0.13.1",
  "ImageOrientationPatientDICOM": [0.983262, 0.181912, 0.0101537, -0.176208, 0.935307, 0.306842],
  "ImageOrientationText": "Tra>Cor(17.7)>Sag(-2.7)",
  "ImageType": [
    "ORIGINAL",
    "PRIMARY",
    "M",
    "ND",
    "NORM",
    "MOSAIC"
],
  "ImagingFrequency": 123.252,
  "InPlanePhaseEncodingDirectionDICOM": "COL",
  "InstitutionAddress": "Maynard 3,Hanover,NH,US,03755",
  "InstitutionName": "Dartmouth College - PBS",
  "InstitutionalDepartmentName": "Department",
  "MRAcquisitionType": "2D",
  "MagneticFieldStrength": 3,
  "Manufacturer": "Siemens",
  "ManufacturersModelName": "Prisma",
  "MatrixCoilMode": "SENSE",
  "Modality": "MR",
  "NonlinearGradientCorrection": false,
  "PartialFourier": 1,
  "PatientPosition": "HFS",
  "PercentPhaseFOV": 100,
  "PercentSampling": 100,
  "PhaseEncodingDirection": "j-",
  "PhaseEncodingSteps": 80,
  "PhaseResolution": 1,
  "PixelBandwidth": 2315,
  "ProcedureStepDescription": "dbic^QA",
  "ProtocolName": "func-bold_acq-32ch-77flip",
  "PulseSequenceDetails": "%SiemensSeq%\\ep2d_bold",
  "ReceiveCoilActiveElements": "HEA;HEP",
  "ReceiveCoilName": "Head_32",
  "ReconMatrixPE": 80,
  "RepetitionTime": 2,
  "SAR": 0.0438351,
  "ScanOptions": "FS",
  "ScanningSequence": "EP",
  "SequenceName": "*epfid2d1_80",
  "SequenceVariant": "SK",
  "SeriesDescription": "func-bold_acq-32ch-77flip",
  "SeriesNumber": 8,
  "ShimSetting": [4141, -7705, -7516, 260, -91, -184, 10, 63],
  "SliceThickness": 3.5,
  "SliceTiming": [0.99, 0, 1.055, 0.065, 1.12, 0.13, 1.1875, 0.1975, 1.2525, 0.2625, 1.32, 0.33, 1.385, 0.395, 1.45, 0.46, 1.5175, 0.5275, 1.5825, 0.5925, 1.65, 0.66, 1.715, 0.725, 1.78, 0.79, 1.8475, 0.8575, 1.9125, 0.9225],
  "SoftwareVersions": "syngo MR E11",
  "SpacingBetweenSlices": 3.99,
  "StationName": "AWP66112",
  "TotalReadoutTime": 0.0395,
  "TxRefAmp": 230.757,
  "dcmmeta_affine": [
    [-2.949787139892578, -0.5286247730255127, -0.18482224643230438, 143.9259033203125],
    [-0.5457355380058289, 2.805920124053955, 1.2109469175338745, -97.33943939208984],
    [0.03046116791665554, -0.9205262660980225, 3.7973079681396484, -22.01958656311035],
    [0.0, 0.0, 0.0, 1.0]
],
  "dcmmeta_reorient_transform": [
    [0.0, -1.0, 0.0, 79.0],
    [1.0, 0.0, 0.0, 0.0],
    [0.0, 0.0, 1.0, 0.0],
    [0.0, 0.0, 0.0, 1.0]
],
  "dcmmeta_shape": [80, 80, 30, 200],
  "dcmmeta_slice_dim": 2,
  "dcmmeta_version": 0.6,
  "global": {
    "const": {
      "AccessionNumber": "qa",
      "AcquisitionMatrix": [80, 0, 0, 80],
      "AngioFlag": "N",
      "BitsAllocated": 16,
      "BitsStored": 12,
      "BodyPartExamined": "BRAIN",
      "Columns": 480,
      "EchoNumbers": 1,
      "EchoTime": 30.0,
      "EchoTrainLength": 80,
      "FlipAngle": 77.0,
      "HighBit": 11,
      "ImageOrientationPatient": [0.98326241736568, 0.18191184817599, 0.01015372293316, -0.1762082563332, 0.93530667869381, 0.30684208836266],
      "ImagePositionPatient": [-586.39704918891, -794.65935850367, -284.93864810394],
      "ImageType": [
        "ORIGINAL",
        "PRIMARY",
        "M",
        "ND",
        "NORM",
        "MOSAIC"
],
      "ImagedNucleus": "1H",
      "ImagingFrequency": 123.252435,
      "InPlanePhaseEncodingDirection": "COL",
      "MRAcquisitionType": "2D",
      "MagneticFieldStrength": 3.0,
      "Manufacturer": "SIEMENS",
      "ManufacturerModelName": "Prisma",
      "Modality": "MR",
      "NumberOfAverages": 1.0,
      "NumberOfPhaseEncodingSteps": 80,
      "PercentPhaseFieldOfView": 100.0,
      "PercentSampling": 100.0,
      "PerformedProcedureStepStartTime": "094438.219000",
      "PhotometricInterpretation": "MONOCHROME2",
      "PixelBandwidth": 2315.0,
      "PixelRepresentation": 0,
      "PixelSpacing": [3.0, 3.0],
      "ProtocolName": "func-bold_acq-32ch-77flip",
      "RepetitionTime": 2000.0,
      "Rows": 480,
      "SAR": 0.04383511081665,
      "SamplesPerPixel": 1,
      "ScanOptions": "FS",
      "ScanningSequence": "EP",
      "SequenceName": "*epfid2d1_80",
      "SequenceVariant": "SK",
      "SeriesDescription": "func-bold_acq-32ch-77flip",
      "SeriesNumber": 8,
      "SeriesTime": "100045.212000",
      "SliceLocation": -57.165101930908,
      "SliceThickness": 3.5,
      "SmallestImagePixelValue": 0,
      "SoftwareVersions": "syngo MR E11",
      "SpacingBetweenSlices": 3.9899999863703,
      "SpecificCharacterSet": "ISO_IR 100",
      "StudyID": "110",
      "StudyTime": "094438.143000",
      "TransmitCoilName": "Body",
      "VariableFlipAngleFlag": "N",
      "WindowCenterWidthExplanation": "Algo1",
      "dBdt": 0.0},
    "slices": {}
  },
  "time": {
    "samples": {
      "AcquisitionNumber": [1, 2, 3, 4, 5, 6, 7, 8, 9, 10, 11, 12, 13, 14, 15, 16, 17, 18, 19, 20, 21, 22, 23, 24, 25, 26, 27, 28, 29, 30, 31, 32, 33, 34, 35, 36, 37, 38, 39, 40, 41, 42, 43, 44, 45, 46, 47, 48, 49, 50, 51, 52, 53, 54, 55, 56, 57, 58, 59, 60, 61, 62, 63, 64, 65, 66, 67, 68, 69, 70, 71, 72, 73, 74, 75, 76, 77, 78, 79, 80, 81, 82, 83, 84, 85, 86, 87, 88, 89, 90, 91, 92, 93, 94, 95, 96, 97, 98, 99, 100, 101, 102, 103, 104, 105, 106, 107, 108, 109, 110, 111, 112, 113, 114, 115, 116, 117, 118, 119, 120, 121, 122, 123, 124, 125, 126, 127, 128, 129, 130, 131, 132, 133, 134, 135, 136, 137, 138, 139, 140, 141, 142, 143, 144, 145, 146, 147, 148, 149, 150, 151, 152, 153, 154, 155, 156, 157, 158, 159, 160, 161, 162, 163, 164, 165, 166, 167, 168, 169, 170, 171, 172, 173, 174, 175, 176, 177, 178, 179, 180, 181, 182, 183, 184, 185, 186, 187, 188, 189, 190, 191, 192, 193, 194, 195, 196, 197, 198, 199, 200],
      "AcquisitionTime": ["095951.475000", "095953.475000", "095955.475000", "095957.475000", "095959.475000", "100001.475000", "100003.475000", "100005.475000", "100007.475000", "100009.475000", "100011.475000", "100013.475000", "100015.475000", "100017.475000", "100019.475000", "100021.475000", "100023.475000", "100025.475000", "100027.475000", "100029.475000", "100031.475000", "100033.475000", "100035.475000", "100037.475000", "100039.475000", "100041.475000", "100043.475000", "100045.475000", "100047.475000", "100049.475000", "100051.475000", "100053.475000", "100055.475000", "100057.475000", "100059.475000", "100101.475000", "100103.475000", "100105.475000", "100107.475000", "100109.475000", "100111.475000", "100113.475000", "100115.475000", "100117.475000", "100119.475000", "100121.475000", "100123.475000", "100125.475000", "100127.475000", "100129.475000", "100131.475000", "100133.475000", "100135.475000", "100137.475000", "100139.475000", "100141.475000", "100143.475000", "100145.475000", "100147.475000", "100149.475000", "100151.475000", "100153.475000", "100155.475000", "100157.475000", "100159.475000", "100201.475000", "100203.475000", "100205.475000", "100207.475000", "100209.475000", "100211.475000", "100213.475000", "100215.475000", "100217.475000", "100219.475000", "100221.475000", "100223.475000", "100225.475000", "100227.475000", "100229.475000", "100231.475000", "100233.475000", "100235.475000", "100237.475000", "100239.475000", "100241.475000", "100243.475000", "100245.475000", "100247.475000", "100249.475000", "100251.475000", "100253.475000", "100255.475000", "100257.475000", "100259.475000", "100301.475000", "100303.475000", "100305.475000", "100307.475000", "100309.475000", "100311.475000", "100313.475000", "100315.475000", "100317.475000", "100319.475000", "100321.475000", "100323.475000", "100325.475000", "100327.475000", "100329.475000", "100331.475000", "100333.475000", "100335.475000", "100337.475000", "100339.475000", "100341.475000", "100343.475000", "100345.475000", "100347.475000", "100349.475000", "100351.475000", "100353.475000", "100355.475000", "100357.475000", "100359.475000", "100401.475000", "100403.475000", "100405.475000", "100407.475000", "100409.475000", "100411.475000", "100413.475000", "100415.475000", "100417.475000", "100419.475000", "100421.475000", "100423.475000", "100425.475000", "100427.475000", "100429.475000", "100431.475000", "100433.475000", "100435.475000", "100437.475000", "100439.475000", "100441.475000", "100443.475000", "100445.475000", "100447.475000", "100449.475000", "100451.475000", "100453.475000", "100455.475000", "100457.475000", "100459.475000", "100501.475000", "100503.475000", "100505.475000", "100507.475000", "100509.475000", "100511.475000", "100513.475000", "100515.475000", "100517.475000", "100519.475000", "100521.475000", "100523.475000", "100525.475000", "100527.475000", "100529.475000", "100531.475000", "100533.475000", "100535.475000", "100537.475000", "100539.475000", "100541.475000", "100543.475000", "100545.475000", "100547.475000", "100549.475000", "100551.475000", "100553.475000", "100555.475000", "100557.475000", "100559.475000", "100601.475000", "100603.475000", "100605.475000", "100607.475000", "100609.475000", "100611.475000", "100613.475000", "100615.475000", "100617.475000", "100619.475000", "100621.475000", "100623.475000", "100625.475000", "100627.475000", "100629.475000"],
      "ContentTime": ["100045.215000", "100045.219000", "100045.222000", "100045.224000", "100045.227000", "100045.229000", "100045.232000", "100045.235000", "100045.237000", "100045.240000", "100045.242000", "100045.245000", "100045.247000", "100045.250000", "100045.253000", "100045.255000", "100045.258000", "100045.260000", "100045.263000", "100045.265000", "100045.268000", "100045.271000", "100045.273000", "100045.276000", "100045.278000", "100045.281000", "100125.209000", "100125.212000", "100125.215000", "100125.217000", "100125.220000", "100125.223000", "100125.225000", "100125.228000", "100125.230000", "100125.233000", "100125.235000", "100125.238000", "100125.246000", "100125.249000", "100125.251000", "100125.254000", "100125.257000", "100125.259000", "100125.262000", "100125.264000", "100205.210000", "100205.213000", "100205.216000", "100205.218000", "100205.221000", "100205.224000", "100205.226000", "100205.229000", "100205.231000", "100205.234000", "100205.236000", "100205.239000", "100205.242000", "100205.244000", "100205.247000", "100205.249000", "100205.252000", "100205.254000", "100205.257000", "100205.260000", "100245.211000", "100245.221000", "100245.224000", "100245.226000", "100245.229000", "100245.232000", "100245.234000", "100245.237000", "100245.239000", "100245.242000", "100245.244000", "100245.247000", "100245.250000", "100245.252000", "100245.255000", "100245.257000", "100245.260000", "100245.262000", "100245.265000", "100245.268000", "100325.210000", "100325.213000", "100325.216000", "100325.218000", "100325.221000", "100325.224000", "100325.226000", "100325.229000", "100325.231000", "100325.234000", "100325.236000", "100325.239000", "100325.241000", "100325.244000", "100325.246000", "100325.249000", "100325.251000", "100325.254000", "100325.256000", "100325.275000", "100405.209000", "100405.212000", "100405.215000", "100405.217000", "100405.220000", "100405.223000", "100405.225000", "100405.228000", "100405.230000", "100405.233000", "100405.235000", "100405.238000", "100405.240000", "100405.243000", "100405.245000", "100405.248000", "100405.250000", "100405.253000", "100405.256000", "100405.258000", "100445.211000", "100445.213000", "100445.216000", "100445.219000", "100445.221000", "100445.224000", "100445.227000", "100445.229000", "100445.232000", "100445.234000", "100445.237000", "100445.240000", "100445.242000", "100445.245000", "100445.247000", "100445.250000", "100445.252000", "100445.255000", "100445.258000", "100445.260000", "100525.210000", "100525.213000", "100525.216000", "100525.218000", "100525.221000", "100525.223000", "100525.226000", "100525.229000", "100525.231000", "100525.234000", "100525.236000", "100525.239000", "100525.241000", "100525.244000", "100525.246000", "100525.249000", "100525.251000", "100525.254000", "100525.256000", "100525.259000", "100605.209000", "100605.212000", "100605.215000", "100605.218000", "100605.220000", "100605.223000", "100605.225000", "100605.228000", "100605.231000", "100605.241000", "100605.243000", "100605.246000", "100605.248000", "100605.251000", "100605.254000", "100605.256000", "100605.259000", "100605.261000", "100605.264000", "100605.266000", "100631.435000", "100631.438000", "100631.440000", "100631.443000", "100631.446000", "100631.448000", "100631.451000", "100631.453000", "100631.456000", "100631.459000", "100631.461000", "100631.464000", "100631.467000", "100631.477000"],
      "InstanceCreationTime": ["100045.215000", "100045.219000", "100045.222000", "100045.224000", "100045.227000", "100045.229000", "100045.232000", "100045.235000", "100045.237000", "100045.240000", "100045.242000", "100045.245000", "100045.247000", "100045.250000", "100045.253000", "100045.255000", "100045.258000", "100045.260000", "100045.263000", "100045.265000", "100045.268000", "100045.271000", "100045.273000", "100045.276000", "100045.278000", "100045.281000", "100125.209000", "100125.212000", "100125.215000", "100125.217000", "100125.220000", "100125.223000", "100125.225000", "100125.228000", "100125.230000", "100125.233000", "100125.235000", "100125.238000", "100125.246000", "100125.249000", "100125.251000", "100125.254000", "100125.257000", "100125.259000", "100125.262000", "100125.264000", "100205.210000", "100205.213000", "100205.216000", "100205.218000", "100205.221000", "100205.224000", "100205.226000", "100205.229000", "100205.231000", "100205.234000", "100205.236000", "100205.239000", "100205.242000", "100205.244000", "100205.247000", "100205.249000", "100205.252000", "100205.254000", "100205.257000", "100205.260000", "100245.211000", "100245.221000", "100245.224000", "100245.226000", "100245.229000", "100245.232000", "100245.234000", "100245.237000", "100245.239000", "100245.242000", "100245.244000", "100245.247000", "100245.250000", "100245.252000", "100245.255000", "100245.257000", "100245.260000", "100245.262000", "100245.265000", "100245.268000", "100325.210000", "100325.213000", "100325.216000", "100325.218000", "100325.221000", "100325.224000", "100325.226000", "100325.229000", "100325.231000", "100325.234000", "100325.236000", "100325.239000", "100325.241000", "100325.244000", "100325.246000", "100325.249000", "100325.251000", "100325.254000", "100325.256000", "100325.275000", "100405.209000", "100405.212000", "100405.215000", "100405.217000", "100405.220000", "100405.223000", "100405.225000", "100405.228000", "100405.230000", "100405.233000", "100405.235000", "100405.238000", "100405.240000", "100405.243000", "100405.245000", "100405.248000", "100405.250000", "100405.253000", "100405.256000", "100405.258000", "100445.211000", "100445.213000", "100445.216000", "100445.219000", "100445.221000", "100445.224000", "100445.227000", "100445.229000", "100445.232000", "100445.234000", "100445.237000", "100445.240000", "100445.242000", "100445.245000", "100445.247000", "100445.250000", "100445.252000", "100445.255000", "100445.258000", "100445.260000", "100525.210000", "100525.213000", "100525.216000", "100525.218000", "100525.221000", "100525.223000", "100525.226000", "100525.229000", "100525.231000", "100525.234000", "100525.236000", "100525.239000", "100525.241000", "100525.244000", "100525.246000", "100525.249000", "100525.251000", "100525.254000", "100525.256000", "100525.259000", "100605.209000", "100605.212000", "100605.215000", "100605.218000", "100605.220000", "100605.223000", "100605.225000", "100605.228000", "100605.231000", "100605.241000", "100605.243000", "100605.246000", "100605.248000", "100605.251000", "100605.254000", "100605.256000", "100605.259000", "100605.261000", "100605.264000", "100605.266000", "100631.435000", "100631.438000", "100631.440000", "100631.443000", "100631.446000", "100631.448000", "100631.451000", "100631.453000", "100631.456000", "100631.459000", "100631.461000", "100631.464000", "100631.467000", "100631.477000"],
      "InstanceNumber": [1, 2, 3, 4, 5, 6, 7, 8, 9, 10, 11, 12, 13, 14, 15, 16, 17, 18, 19, 20, 21, 22, 23, 24, 25, 26, 27, 28, 29, 30, 31, 32, 33, 34, 35, 36, 37, 38, 39, 40, 41, 42, 43, 44, 45, 46, 47, 48, 49, 50, 51, 52, 53, 54, 55, 56, 57, 58, 59, 60, 61, 62, 63, 64, 65, 66, 67, 68, 69, 70, 71, 72, 73, 74, 75, 76, 77, 78, 79, 80, 81, 82, 83, 84, 85, 86, 87, 88, 89, 90, 91, 92, 93, 94, 95, 96, 97, 98, 99, 100, 101, 102, 103, 104, 105, 106, 107, 108, 109, 110, 111, 112, 113, 114, 115, 116, 117, 118, 119, 120, 121, 122, 123, 124, 125, 126, 127, 128, 129, 130, 131, 132, 133, 134, 135, 136, 137, 138, 139, 140, 141, 142, 143, 144, 145, 146, 147, 148, 149, 150, 151, 152, 153, 154, 155, 156, 157, 158, 159, 160, 161, 162, 163, 164, 165, 166, 167, 168, 169, 170, 171, 172, 173, 174, 175, 176, 177, 178, 179, 180, 181, 182, 183, 184, 185, 186, 187, 188, 189, 190, 191, 192, 193, 194, 195, 196, 197, 198, 199, 200],
      "LargestImagePixelValue": [2214, 2214, 2214, 2216, 2213, 2220, 2222, 2217, 2217, 2216, 2216, 2214, 2210, 2211, 2210, 2212, 2212, 2212, 2213, 2215, 2215, 2214, 2211, 2210, 2210, 2212, 2212, 2210, 2211, 2214, 2217, 2215, 2213, 2213, 2213, 2213, 2211, 2209, 2211, 2209, 2211, 2210, 2211, 2206, 2206, 2208, 2207, 2209, 2209, 2209, 2211, 2218, 2216, 2211, 2207, 2204, 2202, 2204, 2210, 2214, 2212, 2211, 2211, 2216, 2211, 2207, 2205, 2206, 2211, 2211, 2210, 2206, 2207, 2206, 2206, 2206, 2211, 2211, 2213, 2211, 2208, 2212, 2213, 2212, 2211, 2210, 2212, 2214, 2211, 2212, 2210, 2209, 2210, 2211, 2213, 2212, 2211, 2207, 2204, 2207, 2211, 2213, 2208, 2206, 2211, 2211, 2208, 2204, 2209, 2210, 2209, 2204, 2205, 2206, 2205, 2206, 2205, 2210, 2208, 2209, 2209, 2206, 2209, 2205, 2203, 2201, 2201, 2202, 2209, 2210, 2207, 2207, 2206, 2206, 2206, 2207, 2207, 2209, 2208, 2205, 2209, 2211, 2209, 2206, 2207, 2209, 2208, 2206, 2205, 2205, 2205, 2206, 2208, 2209, 2208, 2207, 2208, 2209, 2210, 2205, 2207, 2213, 2214, 2211, 2210, 2210, 2212, 2209, 2208, 2207, 2207, 2212, 2209, 2208, 2210, 2211, 2215, 2214, 2212, 2210, 2207, 2211, 2212, 2210, 2210, 2213, 2205, 2208, 2212, 2209, 2206, 2208, 2209, 2207, 2208, 2209, 2213, 2210, 2210, 2211],
      "WindowCenter": [995.0, 995.0, 995.0, 995.0, 995.0, 995.0, 995.0, 995.0, 995.0, 995.0, 996.0, 994.0, 995.0, 995.0, 995.0, 994.0, 995.0, 993.0, 995.0, 994.0, 995.0, 995.0, 994.0, 994.0, 995.0, 995.0, 995.0, 995.0, 995.0, 995.0, 995.0, 995.0, 995.0, 993.0, 995.0, 995.0, 994.0, 995.0, 994.0, 995.0, 995.0, 995.0, 995.0, 995.0, 995.0, 995.0, 995.0, 995.0, 994.0, 995.0, 996.0, 994.0, 995.0, 995.0, 995.0, 996.0, 994.0, 994.0, 995.0, 995.0, 995.0, 994.0, 995.0, 995.0, 995.0, 995.0, 995.0, 994.0, 995.0, 995.0, 994.0, 994.0, 994.0, 994.0, 995.0, 996.0, 994.0, 993.0, 995.0, 994.0, 994.0, 993.0, 994.0, 994.0, 994.0, 994.0, 994.0, 994.0, 993.0, 994.0, 994.0, 994.0, 994.0, 994.0, 994.0, 993.0, 994.0, 994.0, 994.0, 993.0, 993.0, 994.0, 994.0, 993.0, 994.0, 994.0, 993.0, 994.0, 994.0, 993.0, 994.0, 992.0, 994.0, 995.0, 993.0, 994.0, 994.0, 993.0, 994.0, 994.0, 993.0, 994.0, 993.0, 994.0, 994.0, 994.0, 992.0, 994.0, 994.0, 992.0, 994.0, 994.0, 994.0, 994.0, 994.0, 994.0, 993.0, 993.0, 994.0, 994.0, 993.0, 994.0, 993.0, 994.0, 994.0, 995.0, 994.0, 993.0, 994.0, 994.0, 994.0, 994.0, 994.0, 994.0, 993.0, 993.0, 992.0, 994.0, 994.0, 993.0, 994.0, 994.0, 994.0, 993.0, 994.0, 995.0, 994.0, 994.0, 993.0, 994.0, 992.0, 993.0, 993.0, 994.0, 994.0, 994.0, 994.0, 993.0, 994.0, 993.0, 993.0, 994.0, 994.0, 993.0, 993.0, 993.0, 994.0, 993.0, 994.0, 993.0, 994.0, 994.0, 994.0, 994.0, 994.0, 994.0, 993.0, 994.0, 995.0, 993.0],
      "WindowWidth": [2186.0, 2186.0, 2186.0, 2186.0, 2186.0, 2186.0, 2186.0, 2186.0, 2186.0, 2186.0, 2187.0, 2185.0, 2185.0, 2185.0, 2185.0, 2185.0, 2185.0, 2185.0, 2186.0, 2185.0, 2186.0, 2186.0, 2185.0, 2186.0, 2187.0, 2186.0, 2186.0, 2186.0, 2186.0, 2186.0, 2186.0, 2186.0, 2186.0, 2185.0, 2186.0, 2186.0, 2185.0, 2186.0, 2186.0, 2186.0, 2186.0, 2186.0, 2186.0, 2186.0, 2186.0, 2186.0, 2186.0, 2186.0, 2185.0, 2186.0, 2187.0, 2185.0, 2186.0, 2186.0, 2186.0, 2187.0, 2184.0, 2184.0, 2185.0, 2185.0, 2186.0, 2184.0, 2186.0, 2186.0, 2186.0, 2186.0, 2186.0, 2185.0, 2186.0, 2186.0, 2185.0, 2185.0, 2185.0, 2185.0, 2186.0, 2186.0, 2185.0, 2184.0, 2186.0, 2184.0, 2185.0, 2183.0, 2185.0, 2185.0, 2185.0, 2185.0, 2185.0, 2185.0, 2184.0, 2185.0, 2185.0, 2185.0, 2185.0, 2184.0, 2184.0, 2184.0, 2184.0, 2184.0, 2183.0, 2184.0, 2183.0, 2184.0, 2184.0, 2183.0, 2184.0, 2184.0, 2184.0, 2184.0, 2184.0, 2184.0, 2184.0, 2183.0, 2184.0, 2185.0, 2184.0, 2184.0, 2184.0, 2184.0, 2184.0, 2184.0, 2184.0, 2184.0, 2184.0, 2184.0, 2184.0, 2184.0, 2182.0, 2184.0, 2184.0, 2182.0, 2184.0, 2184.0, 2184.0, 2184.0, 2184.0, 2184.0, 2183.0, 2183.0, 2184.0, 2184.0, 2183.0, 2184.0, 2183.0, 2184.0, 2184.0, 2184.0, 2184.0, 2183.0, 2184.0, 2184.0, 2184.0, 2184.0, 2184.0, 2184.0, 2183.0, 2183.0, 2182.0, 2184.0, 2184.0, 2183.0, 2184.0, 2184.0, 2184.0, 2183.0, 2184.0, 2184.0, 2184.0, 2184.0, 2183.0, 2183.0, 2182.0, 2183.0, 2183.0, 2184.0, 2184.0, 2183.0, 2183.0, 2183.0, 2183.0, 2183.0, 2183.0, 2183.0, 2183.0, 2183.0, 2183.0, 2183.0, 2183.0, 2183.0, 2183.0, 2183.0, 2183.0, 2183.0, 2183.0, 2183.0, 2183.0, 2183.0, 2183.0, 2183.0, 2184.0, 2183.0]
    },
    "slices": {}
  }
}