{
  "AcquisitionMatrixPE": 80,
  "AcquisitionNumber": 1,
  "AcquisitionTime": "10:06:38.492500",
  "BandwidthPerPixelPhaseEncode": 25,
  "BaseResolution": 80,
  "BodyPartExamined": "BRAIN",
  "CoilCombinationMethod": "Sum of Squares",
  "ConsistencyInfo": "N4_VE11C_LATEST_20160120",
  "ConversionSoftware": "dcm2niix",
  "ConversionSoftwareVersion": "v1.0.20220720",
  "DerivedVendorReportedEchoSpacing": 0.0005,
  "DeviceSerialNumber": "66112",
  "DwellTime": 2.7e-06,
  "EchoTime": 0.03,
  "EchoTrainLength": 80,
  "EffectiveEchoSpacing": 0.0005,
  "FlipAngle": 10,
  "HeudiconvVersion": "0.13.1",
  "ImageOrientationPatientDICOM": [0.983262, 0.181912, 0.0101537, -0.176208, 0.935307, 0.306842],
  "ImageOrientationText": "Tra>Cor(17.7)>Sag(-2.7)",
  "ImageType": [
    "ORIGINAL",
    "PRIMARY",
    "M",
    "ND",
    "NORM",
    "MOSAIC"
],
  "ImagingFrequency": 123.252,
  "InPlanePhaseEncodingDirectionDICOM": "COL",
  "InstitutionAddress": "Maynard 3,Hanover,NH,US,03755",
  "InstitutionName": "Dartmouth College - PBS",
  "InstitutionalDepartmentName": "Department",
  "MRAcquisitionType": "2D",
  "MagneticFieldStrength": 3,
  "Manufacturer": "Siemens",
  "ManufacturersModelName": "Prisma",
  "MatrixCoilMode": "SENSE",
  "Modality": "MR",
  "NonlinearGradientCorrection": false,
  "PartialFourier": 1,
  "PatientPosition": "HFS",
  "PercentPhaseFOV": 100,
  "PercentSampling": 100,
  "PhaseEncodingDirection": "j-",
  "PhaseEncodingSteps": 80,
  "PhaseResolution": 1,
  "PixelBandwidth": 2315,
  "ProcedureStepDescription": "dbic^QA",
  "ProtocolName": "func-bold_acq-32ch-10flip",
  "PulseSequenceDetails": "%SiemensSeq%\\ep2d_bold",
  "ReceiveCoilActiveElements": "HEA;HEP",
  "ReceiveCoilName": "Head_32",
  "ReconMatrixPE": 80,
  "RepetitionTime": 2,
  "SAR": 0.0117587,
  "ScanOptions": "FS",
  "ScanningSequence": "EP",
  "SequenceName": "*epfid2d1_80",
  "SequenceVariant": "SK",
  "SeriesDescription": "func-bold_acq-32ch-10flip",
  "SeriesNumber": 10,
  "ShimSetting": [4141, -7705, -7516, 260, -91, -184, 10, 63],
  "SliceThickness": 3.5,
  "SliceTiming": [0.99, 0, 1.0575, 0.0675, 1.1225, 0.1325, 1.19, 0.2, 1.255, 0.265, 1.32, 0.33, 1.3875, 0.3975, 1.4525, 0.4625, 1.52, 0.53, 1.585, 0.595, 1.65, 0.66, 1.7175, 0.7275, 1.7825, 0.7925, 1.8475, 0.86, 1.915, 0.925],
  "SoftwareVersions": "syngo MR E11",
  "SpacingBetweenSlices": 3.99,
  "StationName": "AWP66112",
  "TotalReadoutTime": 0.0395,
  "TxRefAmp": 230.757,
  "dcmmeta_affine": [
    [-2.949787139892578, -0.5286247730255127, -0.18482224643230438, 143.9259033203125],
    [-0.5457355380058289, 2.805920124053955, 1.2109469175338745, -97.33943939208984],
    [0.03046116791665554, -0.9205262660980225, 3.7973079681396484, -22.01958656311035],
    [0.0, 0.0, 0.0, 1.0]
],
  "dcmmeta_reorient_transform": [
    [0.0, -1.0, 0.0, 79.0],
    [1.0, 0.0, 0.0, 0.0],
    [0.0, 0.0, 1.0, 0.0],
    [0.0, 0.0, 0.0, 1.0]
],
  "dcmmeta_shape": [80, 80, 30, 200],
  "dcmmeta_slice_dim": 2,
  "dcmmeta_version": 0.6,
  "global": {
    "const": {
      "AccessionNumber": "qa",
      "AcquisitionMatrix": [80, 0, 0, 80],
      "AngioFlag": "N",
      "BitsAllocated": 16,
      "BitsStored": 12,
      "BodyPartExamined": "BRAIN",
      "Columns": 480,
      "EchoNumbers": 1,
      "EchoTime": 30.0,
      "EchoTrainLength": 80,
      "FlipAngle": 10.0,
      "HighBit": 11,
      "ImageOrientationPatient": [0.98326241736568, 0.18191184817599, 0.01015372293316, -0.1762082563332, 0.93530667869381, 0.30684208836266],
      "ImagePositionPatient": [-586.39704918891, -794.65935850367, -284.93864810394],
      "ImageType": [
        "ORIGINAL",
        "PRIMARY",
        "M",
        "ND",
        "NORM",
        "MOSAIC"
],
      "ImagedNucleus": "1H",
      "ImagingFrequency": 123.252435,
      "InPlanePhaseEncodingDirection": "COL",
      "MRAcquisitionType": "2D",
      "MagneticFieldStrength": 3.0,
      "Manufacturer": "SIEMENS",
      "ManufacturerModelName": "Prisma",
      "Modality": "MR",
      "NumberOfAverages": 1.0,
      "NumberOfPhaseEncodingSteps": 80,
      "PercentPhaseFieldOfView": 100.0,
      "PercentSampling": 100.0,
      "PerformedProcedureStepStartTime": "094438.219000",
      "PhotometricInterpretation": "MONOCHROME2",
      "PixelBandwidth": 2315.0,
      "PixelRepresentation": 0,
      "PixelSpacing": [3.0, 3.0],
      "ProtocolName": "func-bold_acq-32ch-10flip",
      "RepetitionTime": 2000.0,
      "Rows": 480,
      "SAR": 0.01175873058802,
      "SamplesPerPixel": 1,
      "ScanOptions": "FS",
      "ScanningSequence": "EP",
      "SequenceName": "*epfid2d1_80",
      "SequenceVariant": "SK",
      "SeriesDescription": "func-bold_acq-32ch-10flip",
      "SeriesNumber": 10,
      "SeriesTime": "100725.071000",
      "SliceLocation": -57.165101930908,
      "SliceThickness": 3.5,
      "SmallestImagePixelValue": 0,
      "SoftwareVersions": "syngo MR E11",
      "SpacingBetweenSlices": 3.9899999863703,
      "SpecificCharacterSet": "ISO_IR 100",
      "StudyID": "110",
      "StudyTime": "094438.143000",
      "TransmitCoilName": "Body",
      "VariableFlipAngleFlag": "N",
      "WindowCenterWidthExplanation": "Algo1",
      "dBdt": 0.0},
    "slices": {}
  },
  "time": {
    "samples": {
      "AcquisitionNumber": [1, 2, 3, 4, 5, 6, 7, 8, 9, 10, 11, 12, 13, 14, 15, 16, 17, 18, 19, 20, 21, 22, 23, 24, 25, 26, 27, 28, 29, 30, 31, 32, 33, 34, 35, 36, 37, 38, 39, 40, 41, 42, 43, 44, 45, 46, 47, 48, 49, 50, 51, 52, 53, 54, 55, 56, 57, 58, 59, 60, 61, 62, 63, 64, 65, 66, 67, 68, 69, 70, 71, 72, 73, 74, 75, 76, 77, 78, 79, 80, 81, 82, 83, 84, 85, 86, 87, 88, 89, 90, 91, 92, 93, 94, 95, 96, 97, 98, 99, 100, 101, 102, 103, 104, 105, 106, 107, 108, 109, 110, 111, 112, 113, 114, 115, 116, 117, 118, 119, 120, 121, 122, 123, 124, 125, 126, 127, 128, 129, 130, 131, 132, 133, 134, 135, 136, 137, 138, 139, 140, 141, 142, 143, 144, 145, 146, 147, 148, 149, 150, 151, 152, 153, 154, 155, 156, 157, 158, 159, 160, 161, 162, 163, 164, 165, 166, 167, 168, 169, 170, 171, 172, 173, 174, 175, 176, 177, 178, 179, 180, 181, 182, 183, 184, 185, 186, 187, 188, 189, 190, 191, 192, 193, 194, 195, 196, 197, 198, 199, 200],
      "AcquisitionTime": ["100638.492500", "100640.492500", "100642.492500", "100644.492500", "100646.492500", "100648.492500", "100650.492500", "100652.492500", "100654.492500", "100656.492500", "100658.492500", "100700.492500", "100702.492500", "100704.492500", "100706.492500", "100708.492500", "100710.492500", "100712.492500", "100714.492500", "100716.492500", "100718.492500", "100720.492500", "100722.492500", "100724.492500", "100726.492500", "100728.492500", "100730.492500", "100732.492500", "100734.492500", "100736.492500", "100738.492500", "100740.492500", "100742.492500", "100744.492500", "100746.492500", "100748.492500", "100750.492500", "100752.492500", "100754.492500", "100756.492500", "100758.492500", "100800.492500", "100802.492500", "100804.492500", "100806.492500", "100808.492500", "100810.492500", "100812.492500", "100814.492500", "100816.492500", "100818.492500", "100820.492500", "100822.492500", "100824.492500", "100826.492500", "100828.492500", "100830.492500", "100832.492500", "100834.492500", "100836.492500", "100838.492500", "100840.492500", "100842.492500", "100844.492500", "100846.492500", "100848.492500", "100850.492500", "100852.492500", "100854.492500", "100856.492500", "100858.492500", "100900.492500", "100902.492500", "100904.492500", "100906.492500", "100908.492500", "100910.492500", "100912.492500", "100914.492500", "100916.492500", "100918.492500", "100920.492500", "100922.492500", "100924.492500", "100926.492500", "100928.492500", "100930.492500", "100932.492500", "100934.492500", "100936.492500", "100938.492500", "100940.492500", "100942.492500", "100944.492500", "100946.492500", "100948.492500", "100950.492500", "100952.492500", "100954.492500", "100956.492500", "100958.492500", "101000.492500", "101002.492500", "101004.492500", "101006.492500", "101008.492500", "101010.492500", "101012.492500", "101014.492500", "101016.492500", "101018.492500", "101020.492500", "101022.492500", "101024.492500", "101026.492500", "101028.492500", "101030.492500", "101032.492500", "101034.492500", "101036.492500", "101038.492500", "101040.492500", "101042.492500", "101044.492500", "101046.492500", "101048.492500", "101050.492500", "101052.492500", "101054.492500", "101056.492500", "101058.492500", "101100.492500", "101102.492500", "101104.492500", "101106.492500", "101108.492500", "101110.492500", "101112.492500", "101114.492500", "101116.492500", "101118.492500", "101120.492500", "101122.492500", "101124.492500", "101126.492500", "101128.492500", "101130.492500", "101132.492500", "101134.492500", "101136.492500", "101138.492500", "101140.492500", "101142.492500", "101144.492500", "101146.492500", "101148.492500", "101150.492500", "101152.492500", "101154.492500", "101156.492500", "101158.492500", "101200.492500", "101202.492500", "101204.492500", "101206.492500", "101208.492500", "101210.492500", "101212.492500", "101214.492500", "101216.492500", "101218.492500", "101220.492500", "101222.492500", "101224.492500", "101226.492500", "101228.492500", "101230.492500", "101232.492500", "101234.492500", "101236.492500", "101238.492500", "101240.492500", "101242.492500", "101244.492500", "101246.492500", "101248.492500", "101250.492500", "101252.492500", "101254.492500", "101256.492500", "101258.492500", "101300.492500", "101302.492500", "101304.492500", "101306.492500", "101308.492500", "101310.492500", "101312.492500", "101314.492500", "101316.492500"],
      "ContentTime": ["100725.074000", "100725.078000", "100725.080000", "100725.083000", "100725.085000", "100725.088000", "100725.100000", "100725.103000", "100725.105000", "100725.108000", "100725.110000", "100725.113000", "100725.115000", "100725.118000", "100725.120000", "100725.123000", "100725.125000", "100725.128000", "100725.139000", "100725.142000", "100725.144000", "100725.147000", "100725.149000", "100805.070000", "100805.073000", "100805.075000", "100805.078000", "100805.080000", "100805.083000", "100805.085000", "100805.088000", "100805.090000", "100805.093000", "100805.095000", "100805.098000", "100805.100000", "100805.103000", "100805.105000", "100805.108000", "100805.110000", "100805.113000", "100805.115000", "100805.118000", "100845.069000", "100845.072000", "100845.075000", "100845.077000", "100845.080000", "100845.082000", "100845.085000", "100845.087000", "100845.090000", "100845.092000", "100845.095000", "100845.097000", "100845.100000", "100845.102000", "100845.105000", "100845.108000", "100845.110000", "100845.113000", "100845.115000", "100845.118000", "100925.070000", "100925.072000", "100925.075000", "100925.077000", "100925.080000", "100925.082000", "100925.085000", "100925.088000", "100925.090000", "100925.093000", "100925.095000", "100925.098000", "100925.100000", "100925.103000", "100925.105000", "100925.108000", "100925.110000", "100925.113000", "100925.122000", "100925.125000", "101005.069000", "101005.072000", "101005.075000", "101005.078000", "101005.080000", "101005.083000", "101005.085000", "101005.088000", "101005.090000", "101005.093000", "101005.095000", "101005.098000", "101005.100000", "101005.103000", "101005.105000", "101005.108000", "101005.110000", "101005.113000", "101005.115000", "101005.118000", "101045.068000", "101045.071000", "101045.074000", "101045.076000", "101045.079000", "101045.081000", "101045.084000", "101045.086000", "101045.089000", "101045.091000", "101045.094000", "101045.096000", "101045.099000", "101045.102000", "101045.104000", "101045.107000", "101045.109000", "101045.112000", "101045.114000", "101045.117000", "101125.070000", "101125.072000", "101125.075000", "101125.078000", "101125.080000", "101125.083000", "101125.085000", "101125.088000", "101125.090000", "101125.093000", "101125.095000", "101125.098000", "101125.101000", "101125.103000", "101125.106000", "101125.108000", "101125.111000", "101125.113000", "101125.116000", "101125.119000", "101205.070000", "101205.072000", "101205.088000", "101205.091000", "101205.093000", "101205.096000", "101205.098000", "101205.101000", "101205.103000", "101205.106000", "101205.108000", "101205.111000", "101205.114000", "101205.116000", "101205.119000", "101205.121000", "101205.124000", "101205.126000", "101205.129000", "101205.131000", "101245.070000", "101245.072000", "101245.075000", "101245.077000", "101245.080000", "101245.083000", "101245.085000", "101245.088000", "101245.090000", "101245.093000", "101245.095000", "101245.098000", "101245.100000", "101245.103000", "101245.112000", "101245.114000", "101245.117000", "101245.120000", "101245.122000", "101245.125000", "101305.068000", "101305.071000", "101305.074000", "101305.076000", "101305.079000", "101305.081000", "101305.084000", "101305.087000", "101305.089000", "101305.092000", "101317.710000", "101317.713000", "101317.715000", "101317.718000", "101317.720000", "101317.723000", "101317.726000"],
      "InstanceCreationTime": ["100725.074000", "100725.078000", "100725.080000", "100725.083000", "100725.085000", "100725.088000", "100725.100000", "100725.103000", "100725.105000", "100725.108000", "100725.110000", "100725.113000", "100725.115000", "100725.118000", "100725.120000", "100725.123000", "100725.125000", "100725.128000", "100725.139000", "100725.142000", "100725.144000", "100725.147000", "100725.149000", "100805.070000", "100805.073000", "100805.075000", "100805.078000", "100805.080000", "100805.083000", "100805.085000", "100805.088000", "100805.090000", "100805.093000", "100805.095000", "100805.098000", "100805.100000", "100805.103000", "100805.105000", "100805.108000", "100805.110000", "100805.113000", "100805.115000", "100805.118000", "100845.069000", "100845.072000", "100845.075000", "100845.077000", "100845.080000", "100845.082000", "100845.085000", "100845.087000", "100845.090000", "100845.092000", "100845.095000", "100845.097000", "100845.100000", "100845.102000", "100845.105000", "100845.108000", "100845.110000", "100845.113000", "100845.115000", "100845.118000", "100925.070000", "100925.072000", "100925.075000", "100925.077000", "100925.080000", "100925.082000", "100925.085000", "100925.088000", "100925.090000", "100925.093000", "100925.095000", "100925.098000", "100925.100000", "100925.103000", "100925.105000", "100925.108000", "100925.110000", "100925.113000", "100925.122000", "100925.125000", "101005.069000", "101005.072000", "101005.075000", "101005.078000", "101005.080000", "101005.083000", "101005.085000", "101005.088000", "101005.090000", "101005.093000", "101005.095000", "101005.098000", "101005.100000", "101005.103000", "101005.105000", "101005.108000", "101005.110000", "101005.113000", "101005.115000", "101005.118000", "101045.068000", "101045.071000", "101045.074000", "101045.076000", "101045.079000", "101045.081000", "101045.084000", "101045.086000", "101045.089000", "101045.091000", "101045.094000", "101045.096000", "101045.099000", "101045.102000", "101045.104000", "101045.107000", "101045.109000", "101045.112000", "101045.114000", "101045.117000", "101125.070000", "101125.072000", "101125.075000", "101125.078000", "101125.080000", "101125.083000", "101125.085000", "101125.088000", "101125.090000", "101125.093000", "101125.095000", "101125.098000", "101125.101000", "101125.103000", "101125.106000", "101125.108000", "101125.111000", "101125.113000", "101125.116000", "101125.119000", "101205.070000", "101205.072000", "101205.088000", "101205.091000", "101205.093000", "101205.096000", "101205.098000", "101205.101000", "101205.103000", "101205.106000", "101205.108000", "101205.111000", "101205.114000", "101205.116000", "101205.119000", "101205.121000", "101205.124000", "101205.126000", "101205.129000", "101205.131000", "101245.070000", "101245.072000", "101245.075000", "101245.077000", "101245.080000", "101245.083000", "101245.085000", "101245.088000", "101245.090000", "101245.093000", "101245.095000", "101245.098000", "101245.100000", "101245.103000", "101245.112000", "101245.114000", "101245.117000", "101245.120000", "101245.122000", "101245.125000", "101305.068000", "101305.071000", "101305.074000", "101305.076000", "101305.079000", "101305.081000", "101305.084000", "101305.087000", "101305.089000", "101305.092000", "101317.710000", "101317.713000", "101317.715000", "101317.718000", "101317.720000", "101317.723000", "101317.726000"],
      "InstanceNumber": [1, 2, 3, 4, 5, 6, 7, 8, 9, 10, 11, 12, 13, 14, 15, 16, 17, 18, 19, 20, 21, 22, 23, 24, 25, 26, 27, 28, 29, 30, 31, 32, 33, 34, 35, 36, 37, 38, 39, 40, 41, 42, 43, 44, 45, 46, 47, 48, 49, 50, 51, 52, 53, 54, 55, 56, 57, 58, 59, 60, 61, 62, 63, 64, 65, 66, 67, 68, 69, 70, 71, 72, 73, 74, 75, 76, 77, 78, 79, 80, 81, 82, 83, 84, 85, 86, 87, 88, 89, 90, 91, 92, 93, 94, 95, 96, 97, 98, 99, 100, 101, 102, 103, 104, 105, 106, 107, 108, 109, 110, 111, 112, 113, 114, 115, 116, 117, 118, 119, 120, 121, 122, 123, 124, 125, 126, 127, 128, 129, 130, 131, 132, 133, 134, 135, 136, 137, 138, 139, 140, 141, 142, 143, 144, 145, 146, 147, 148, 149, 150, 151, 152, 153, 154, 155, 156, 157, 158, 159, 160, 161, 162, 163, 164, 165, 166, 167, 168, 169, 170, 171, 172, 173, 174, 175, 176, 177, 178, 179, 180, 181, 182, 183, 184, 185, 186, 187, 188, 189, 190, 191, 192, 193, 194, 195, 196, 197, 198, 199, 200],
      "LargestImagePixelValue": [376, 374, 377, 375, 376, 375, 375, 376, 375, 375, 376, 376, 376, 376, 375, 374, 376, 376, 377, 376, 376, 376, 376, 376, 374, 374, 377, 376, 376, 374, 376, 376, 377, 376, 376, 375, 377, 376, 377, 376, 374, 376, 375, 376, 376, 376, 375, 373, 375, 376, 376, 376, 375, 374, 375, 376, 376, 374, 374, 375, 374, 375, 376, 377, 376, 373, 376, 376, 375, 376, 376, 376, 376, 375, 375, 376, 375, 375, 376, 377, 375, 376, 376, 375, 376, 375, 376, 375, 375, 375, 375, 375, 375, 375, 376, 375, 374, 375, 375, 376, 375, 376, 375, 376, 376, 376, 377, 376, 375, 375, 375, 376, 376, 376, 375, 375, 375, 374, 375, 374, 376, 376, 375, 375, 374, 374, 375, 376, 375, 376, 375, 376, 375, 374, 376, 375, 375, 376, 374, 374, 376, 376, 375, 376, 376, 375, 375, 375, 375, 374, 376, 375, 374, 374, 373, 375, 376, 375, 376, 376, 375, 374, 376, 375, 375, 376, 375, 375, 374, 374, 377, 376, 374, 376, 377, 376, 375, 375, 375, 375, 377, 376, 374, 375, 376, 377, 375, 374, 375, 376, 375, 375, 375, 375, 375, 374, 375, 376, 376, 376],
      "WindowCenter": [288.0, 288.0, 287.0, 288.0, 288.0, 287.0, 287.0, 288.0, 287.0, 288.0, 288.0, 288.0, 287.0, 288.0, 288.0, 288.0, 287.0, 287.0, 288.0, 288.0, 287.0, 288.0, 288.0, 288.0, 287.0, 288.0, 287.0, 288.0, 287.0, 288.0, 288.0, 287.0, 287.0, 287.0, 288.0, 288.0, 287.0, 288.0, 287.0, 287.0, 288.0, 288.0, 288.0, 287.0, 287.0, 288.0, 288.0, 287.0, 287.0, 288.0, 287.0, 287.0, 288.0, 287.0, 287.0, 287.0, 288.0, 288.0, 287.0, 287.0, 287.0, 287.0, 287.0, 287.0, 288.0, 287.0, 287.0, 288.0, 287.0, 288.0, 288.0, 287.0, 287.0, 287.0, 288.0, 288.0, 287.0, 288.0, 287.0, 287.0, 287.0, 287.0, 287.0, 287.0, 288.0, 288.0, 288.0, 288.0, 287.0, 288.0, 288.0, 288.0, 287.0, 288.0, 288.0, 287.0, 288.0, 288.0, 288.0, 287.0, 287.0, 287.0, 288.0, 287.0, 287.0, 288.0, 288.0, 288.0, 288.0, 288.0, 287.0, 288.0, 287.0, 287.0, 288.0, 287.0, 287.0, 287.0, 288.0, 287.0, 287.0, 287.0, 288.0, 288.0, 287.0, 287.0, 288.0, 287.0, 287.0, 288.0, 287.0, 287.0, 287.0, 287.0, 287.0, 288.0, 287.0, 287.0, 287.0, 287.0, 287.0, 287.0, 287.0, 287.0, 287.0, 288.0, 287.0, 287.0, 288.0, 287.0, 287.0, 287.0, 287.0, 287.0, 287.0, 287.0, 287.0, 287.0, 287.0, 287.0, 287.0, 288.0, 287.0, 288.0, 287.0, 288.0, 287.0, 287.0, 287.0, 287.0, 287.0, 287.0, 287.0, 287.0, 287.0, 287.0, 287.0, 287.0, 287.0, 287.0, 286.0, 287.0, 287.0, 287.0, 287.0, 287.0, 287.0, 287.0, 287.0, 288.0, 287.0, 287.0, 287.0, 287.0, 287.0, 287.0, 287.0, 287.0, 287.0, 287.0],
      "WindowWidth": [625.0, 625.0, 625.0, 625.0, 625.0, 625.0, 625.0, 625.0, 625.0, 625.0, 625.0, 625.0, 625.0, 625.0, 625.0, 625.0, 625.0, 625.0, 625.0, 625.0, 625.0, 625.0, 625.0, 625.0, 625.0, 625.0, 625.0, 625.0, 625.0, 625.0, 625.0, 625.0, 625.0, 625.0, 625.0, 625.0, 625.0, 625.0, 625.0, 625.0, 625.0, 625.0, 625.0, 625.0, 625.0, 625.0, 625.0, 625.0, 625.0, 625.0, 625.0, 625.0, 625.0, 625.0, 625.0, 625.0, 625.0, 625.0, 625.0, 625.0, 625.0, 625.0, 624.0, 625.0, 625.0, 625.0, 625.0, 625.0, 625.0, 625.0, 625.0, 625.0, 625.0, 625.0, 625.0, 625.0, 625.0, 625.0, 625.0, 624.0, 625.0, 625.0, 625.0, 624.0, 625.0, 625.0, 625.0, 625.0, 625.0, 625.0, 625.0, 625.0, 625.0, 625.0, 625.0, 625.0, 625.0, 625.0, 625.0, 625.0, 624.0, 625.0, 625.0, 624.0, 625.0, 625.0, 625.0, 625.0, 625.0, 625.0, 624.0, 625.0, 624.0, 624.0, 625.0, 625.0, 625.0, 624.0, 625.0, 624.0, 625.0, 624.0, 625.0, 625.0, 625.0, 624.0, 625.0, 625.0, 624.0, 625.0, 625.0, 625.0, 625.0, 625.0, 625.0, 625.0, 624.0, 625.0, 624.0, 625.0, 625.0, 625.0, 625.0, 625.0, 625.0, 625.0, 624.0, 624.0, 625.0, 625.0, 624.0, 624.0, 624.0, 624.0, 624.0, 623.0, 624.0, 624.0, 624.0, 624.0, 624.0, 625.0, 625.0, 625.0, 624.0, 625.0, 624.0, 624.0, 624.0, 624.0, 623.0, 625.0, 625.0, 624.0, 624.0, 624.0, 624.0, 624.0, 624.0, 623.0, 623.0, 624.0, 624.0, 624.0, 623.0, 624.0, 624.0, 623.0, 624.0, 625.0, 623.0, 623.0, 623.0, 624.0, 624.0, 624.0, 623.0, 623.0, 623.0, 624.0]
    },
    "slices": {}
  }
}