{
  "AcquisitionMatrixPE": 80,
  "AcquisitionNumber": 1,
  "AcquisitionTime": "09:25:2.537500",
  "BandwidthPerPixelPhaseEncode": 25,
  "BaseResolution": 80,
  "BodyPartExamined": "BRAIN",
  "CoilCombinationMethod": "Sum of Squares",
  "ConsistencyInfo": "N4_VE11C_LATEST_20160120",
  "ConversionSoftware": "dcm2niix",
  "ConversionSoftwareVersion": "v1.0.20220720",
  "DerivedVendorReportedEchoSpacing": 0.0005,
  "DeviceSerialNumber": "66112",
  "DwellTime": 2.7e-06,
  "EchoTime": 0.03,
  "EchoTrainLength": 80,
  "EffectiveEchoSpacing": 0.0005,
  "FlipAngle": 77,
  "HeudiconvVersion": "0.13.1",
  "ImageOrientationPatientDICOM": [0.994154, -0.107965, 0.00137412, 0.101684, 0.940448, 0.324373],
  "ImageOrientationText": "Tra>Cor(18.8)>Sag(2.1)",
  "ImageType": [
    "ORIGINAL",
    "PRIMARY",
    "M",
    "ND",
    "NORM",
    "MOSAIC"
],
  "ImagingFrequency": 123.252,
  "InPlanePhaseEncodingDirectionDICOM": "COL",
  "InstitutionAddress": "Maynard 3,Hanover,NH,US,03755",
  "InstitutionName": "Dartmouth College - PBS",
  "InstitutionalDepartmentName": "Department",
  "MRAcquisitionType": "2D",
  "MagneticFieldStrength": 3,
  "Manufacturer": "Siemens",
  "ManufacturersModelName": "Prisma",
  "MatrixCoilMode": "SENSE",
  "Modality": "MR",
  "NonlinearGradientCorrection": false,
  "PartialFourier": 1,
  "PatientPosition": "HFS",
  "PercentPhaseFOV": 100,
  "PercentSampling": 100,
  "PhaseEncodingDirection": "j-",
  "PhaseEncodingSteps": 80,
  "PhaseResolution": 1,
  "PixelBandwidth": 2315,
  "ProcedureStepDescription": "dbic^QA",
  "ProtocolName": "func-bold_fa-77",
  "PulseSequenceDetails": "%SiemensSeq%\\ep2d_bold",
  "ReceiveCoilActiveElements": "HC1-7;NC1,2",
  "ReceiveCoilName": "HeadNeck_64",
  "ReconMatrixPE": 80,
  "RepetitionTime": 2,
  "SAR": 0.0282058,
  "ScanOptions": "FS",
  "ScanningSequence": "EP",
  "SequenceName": "*epfid2d1_80",
  "SequenceVariant": "SK",
  "SeriesDescription": "func-bold_fa-77",
  "SeriesNumber": 7,
  "ShimSetting": [4141, -7695, -7509, 183, -71, -298, -141, 100],
  "SliceThickness": 3.5,
  "SliceTiming": [0.99, 0, 1.055, 0.065, 1.1225, 0.1325, 1.1875, 0.1975, 1.2525, 0.2625, 1.32, 0.33, 1.385, 0.395, 1.4525, 0.4625, 1.5175, 0.5275, 1.5825, 0.5925, 1.65, 0.66, 1.715, 0.725, 1.7825, 0.7925, 1.8475, 0.8575, 1.9125, 0.9225],
  "SoftwareVersions": "syngo MR E11",
  "SpacingBetweenSlices": 3.99,
  "StationName": "AWP66112",
  "TotalReadoutTime": 0.0395,
  "TxRefAmp": 208.143,
  "dcmmeta_affine": [
    [-2.982461452484131, 0.3050512969493866, 0.14488907158374786, 104.16686248779297],
    [0.32389354705810547, 2.8213443756103516, 1.2861237525939941, -145.223876953125],
    [0.004122370854020119, -0.9731185436248779, 3.7742538452148438, -21.270626068115234],
    [0.0, 0.0, 0.0, 1.0]
],
  "dcmmeta_reorient_transform": [
    [0.0, -1.0, 0.0, 79.0],
    [1.0, 0.0, 0.0, 0.0],
    [0.0, 0.0, 1.0, 0.0],
    [0.0, 0.0, 0.0, 1.0]
],
  "dcmmeta_shape": [80, 80, 30, 200],
  "dcmmeta_slice_dim": 2,
  "dcmmeta_version": 0.6,
  "global": {
    "const": {
      "AccessionNumber": "qa64",
      "AcquisitionMatrix": [80, 0, 0, 80],
      "AngioFlag": "N",
      "BitsAllocated": 16,
      "BitsStored": 12,
      "BodyPartExamined": "BRAIN",
      "Columns": 480,
      "EchoNumbers": 1,
      "EchoTime": 30.0,
      "EchoTrainLength": 80,
      "FlipAngle": 77.0,
      "HighBit": 11,
      "ImageOrientationPatient": [0.99415379854582, -0.1079645155656, 0.00137412357909, 0.10168376124817, 0.94044812167497, 0.3243728458679],
      "ImagePositionPatient": [-785.7684515676, -577.1524862547, -293.59517197522],
      "ImageType": [
        "ORIGINAL",
        "PRIMARY",
        "M",
        "ND",
        "NORM",
        "MOSAIC"
],
      "ImagedNucleus": "1H",
      "ImagingFrequency": 123.252368,
      "InPlanePhaseEncodingDirection": "COL",
      "LargestImagePixelValue": 4095,
      "MRAcquisitionType": "2D",
      "MagneticFieldStrength": 3.0,
      "Manufacturer": "SIEMENS",
      "ManufacturerModelName": "Prisma",
      "Modality": "MR",
      "NumberOfAverages": 1.0,
      "NumberOfPhaseEncodingSteps": 80,
      "PercentPhaseFieldOfView": 100.0,
      "PercentSampling": 100.0,
      "PerformedProcedureStepStartTime": "091051.027000",
      "PhotometricInterpretation": "MONOCHROME2",
      "PixelBandwidth": 2315.0,
      "PixelRepresentation": 0,
      "PixelSpacing": [3.0, 3.0],
      "ProtocolName": "func-bold_fa-77",
      "RepetitionTime": 2000.0,
      "Rows": 480,
      "SAR": 0.02820581330043,
      "SamplesPerPixel": 1,
      "ScanOptions": "FS",
      "ScanningSequence": "EP",
      "SequenceName": "*epfid2d1_80",
      "SequenceVariant": "SK",
      "SeriesDescription": "func-bold_fa-77",
      "SeriesNumber": 7,
      "SeriesTime": "092600.437000",
      "SliceLocation": -63.148867951889,
      "SliceThickness": 3.5,
      "SmallestImagePixelValue": 0,
      "SoftwareVersions": "syngo MR E11",
      "SpacingBetweenSlices": 3.9900000023675,
      "SpecificCharacterSet": "ISO_IR 100",
      "StudyID": "31",
      "StudyTime": "091050.945000",
      "TransmitCoilName": "Body",
      "VariableFlipAngleFlag": "N",
      "WindowCenterWidthExplanation": "Algo1",
      "dBdt": 0.0},
    "slices": {}
  },
  "time": {
    "samples": {
      "AcquisitionNumber": [1, 2, 3, 4, 5, 6, 7, 8, 9, 10, 11, 12, 13, 14, 15, 16, 17, 18, 19, 20, 21, 22, 23, 24, 25, 26, 27, 28, 29, 30, 31, 32, 33, 34, 35, 36, 37, 38, 39, 40, 41, 42, 43, 44, 45, 46, 47, 48, 49, 50, 51, 52, 53, 54, 55, 56, 57, 58, 59, 60, 61, 62, 63, 64, 65, 66, 67, 68, 69, 70, 71, 72, 73, 74, 75, 76, 77, 78, 79, 80, 81, 82, 83, 84, 85, 86, 87, 88, 89, 90, 91, 92, 93, 94, 95, 96, 97, 98, 99, 100, 101, 102, 103, 104, 105, 106, 107, 108, 109, 110, 111, 112, 113, 114, 115, 116, 117, 118, 119, 120, 121, 122, 123, 124, 125, 126, 127, 128, 129, 130, 131, 132, 133, 134, 135, 136, 137, 138, 139, 140, 141, 142, 143, 144, 145, 146, 147, 148, 149, 150, 151, 152, 153, 154, 155, 156, 157, 158, 159, 160, 161, 162, 163, 164, 165, 166, 167, 168, 169, 170, 171, 172, 173, 174, 175, 176, 177, 178, 179, 180, 181, 182, 183, 184, 185, 186, 187, 188, 189, 190, 191, 192, 193, 194, 195, 196, 197, 198, 199, 200],
      "AcquisitionTime": ["092502.537500", "092504.537500", "092506.537500", "092508.537500", "092510.537500", "092512.537500", "092514.537500", "092516.537500", "092518.537500", "092520.537500", "092522.537500", "092524.537500", "092526.537500", "092528.537500", "092530.537500", "092532.537500", "092534.537500", "092536.537500", "092538.537500", "092540.537500", "092542.537500", "092544.537500", "092546.537500", "092548.537500", "092550.537500", "092552.537500", "092554.537500", "092556.537500", "092558.537500", "092600.537500", "092602.537500", "092604.537500", "092606.537500", "092608.537500", "092610.537500", "092612.537500", "092614.537500", "092616.537500", "092618.537500", "092620.537500", "092622.537500", "092624.537500", "092626.537500", "092628.537500", "092630.537500", "092632.537500", "092634.537500", "092636.537500", "092638.537500", "092640.537500", "092642.537500", "092644.537500", "092646.537500", "092648.537500", "092650.537500", "092652.537500", "092654.537500", "092656.537500", "092658.537500", "092700.537500", "092702.537500", "092704.537500", "092706.537500", "092708.537500", "092710.537500", "092712.537500", "092714.537500", "092716.537500", "092718.537500", "092720.537500", "092722.537500", "092724.537500", "092726.537500", "092728.537500", "092730.537500", "092732.537500", "092734.537500", "092736.537500", "092738.537500", "092740.537500", "092742.537500", "092744.537500", "092746.537500", "092748.537500", "092750.537500", "092752.537500", "092754.537500", "092756.537500", "092758.537500", "092800.537500", "092802.537500", "092804.537500", "092806.537500", "092808.537500", "092810.537500", "092812.537500", "092814.537500", "092816.537500", "092818.537500", "092820.537500", "092822.537500", "092824.537500", "092826.537500", "092828.537500", "092830.537500", "092832.537500", "092834.537500", "092836.537500", "092838.537500", "092840.537500", "092842.537500", "092844.537500", "092846.537500", "092848.537500", "092850.537500", "092852.537500", "092854.537500", "092856.537500", "092858.537500", "092900.537500", "092902.537500", "092904.537500", "092906.537500", "092908.537500", "092910.537500", "092912.537500", "092914.537500", "092916.537500", "092918.537500", "092920.537500", "092922.537500", "092924.537500", "092926.537500", "092928.537500", "092930.537500", "092932.537500", "092934.537500", "092936.537500", "092938.537500", "092940.537500", "092942.537500", "092944.537500", "092946.537500", "092948.537500", "092950.537500", "092952.537500", "092954.537500", "092956.537500", "092958.537500", "093000.537500", "093002.537500", "093004.537500", "093006.537500", "093008.537500", "093010.537500", "093012.537500", "093014.537500", "093016.537500", "093018.537500", "093020.537500", "093022.537500", "093024.537500", "093026.537500", "093028.537500", "093030.537500", "093032.537500", "093034.537500", "093036.537500", "093038.537500", "093040.537500", "093042.537500", "093044.537500", "093046.537500", "093048.537500", "093050.537500", "093052.537500", "093054.537500", "093056.537500", "093058.537500", "093100.537500", "093102.537500", "093104.537500", "093106.537500", "093108.537500", "093110.537500", "093112.537500", "093114.537500", "093116.537500", "093118.537500", "093120.537500", "093122.537500", "093124.537500", "093126.537500", "093128.537500", "093130.537500", "093132.537500", "093134.537500", "093136.537500", "093138.537500", "093140.537500"],
      "ContentTime": ["092600.440000", "092600.444000", "092600.446000", "092600.449000", "092600.451000", "092600.454000", "092600.456000", "092600.459000", "092600.461000", "092600.468000", "092600.471000", "092600.473000", "092600.476000", "092600.478000", "092600.481000", "092600.483000", "092600.485000", "092600.488000", "092600.490000", "092600.493000", "092600.495000", "092600.498000", "092600.501000", "092600.503000", "092600.506000", "092600.508000", "092600.511000", "092600.513000", "092600.516000", "092640.434000", "092640.444000", "092640.446000", "092640.449000", "092640.451000", "092640.454000", "092640.456000", "092640.459000", "092640.461000", "092640.464000", "092640.466000", "092640.469000", "092640.471000", "092640.474000", "092640.476000", "092640.479000", "092640.481000", "092640.484000", "092640.486000", "092640.489000", "092720.434000", "092720.437000", "092720.440000", "092720.442000", "092720.445000", "092720.447000", "092720.450000", "092720.452000", "092720.471000", "092720.473000", "092720.476000", "092720.478000", "092720.481000", "092720.483000", "092720.486000", "092720.488000", "092720.490000", "092720.493000", "092720.495000", "092720.498000", "092800.435000", "092800.438000", "092800.441000", "092800.443000", "092800.446000", "092800.448000", "092800.451000", "092800.453000", "092800.456000", "092800.458000", "092800.461000", "092800.463000", "092800.466000", "092800.468000", "092800.471000", "092800.473000", "092800.476000", "092800.478000", "092800.481000", "092800.483000", "092840.434000", "092840.437000", "092840.440000", "092840.442000", "092840.445000", "092840.447000", "092840.450000", "092840.452000", "092840.455000", "092840.457000", "092840.460000", "092840.462000", "092840.465000", "092840.467000", "092840.470000", "092840.472000", "092840.475000", "092840.477000", "092840.480000", "092840.482000", "092920.435000", "092920.437000", "092920.440000", "092920.442000", "092920.445000", "092920.448000", "092920.450000", "092920.453000", "092920.455000", "092920.457000", "092920.460000", "092920.462000", "092920.465000", "092920.467000", "092920.470000", "092920.473000", "092920.475000", "092920.478000", "092920.480000", "092920.483000", "093000.435000", "093000.438000", "093000.441000", "093000.443000", "093000.446000", "093000.448000", "093000.451000", "093000.453000", "093000.456000", "093000.458000", "093000.461000", "093000.463000", "093000.466000", "093000.468000", "093000.471000", "093000.473000", "093000.476000", "093000.478000", "093000.481000", "093000.483000", "093040.434000", "093040.437000", "093040.440000", "093040.442000", "093040.445000", "093040.447000", "093040.450000", "093040.452000", "093040.455000", "093040.457000", "093040.460000", "093040.462000", "093040.465000", "093040.467000", "093040.470000", "093040.472000", "093040.475000", "093040.477000", "093040.480000", "093040.482000", "093120.434000", "093120.437000", "093120.440000", "093120.442000", "093120.445000", "093120.447000", "093120.450000", "093120.452000", "093120.455000", "093120.457000", "093120.460000", "093120.463000", "093120.465000", "093120.468000", "093120.470000", "093120.473000", "093120.475000", "093120.478000", "093120.480000", "093120.483000", "093141.624000", "093141.627000", "093141.630000", "093141.632000", "093141.635000", "093141.637000", "093141.640000", "093141.643000", "093141.645000", "093141.648000", "093141.650000"],
      "InstanceCreationTime": ["092600.440000", "092600.444000", "092600.446000", "092600.449000", "092600.451000", "092600.454000", "092600.456000", "092600.459000", "092600.461000", "092600.468000", "092600.471000", "092600.473000", "092600.476000", "092600.478000", "092600.481000", "092600.483000", "092600.485000", "092600.488000", "092600.490000", "092600.493000", "092600.495000", "092600.498000", "092600.501000", "092600.503000", "092600.506000", "092600.508000", "092600.511000", "092600.513000", "092600.516000", "092640.434000", "092640.444000", "092640.446000", "092640.449000", "092640.451000", "092640.454000", "092640.456000", "092640.459000", "092640.461000", "092640.464000", "092640.466000", "092640.469000", "092640.471000", "092640.474000", "092640.476000", "092640.479000", "092640.481000", "092640.484000", "092640.486000", "092640.489000", "092720.434000", "092720.437000", "092720.440000", "092720.442000", "092720.445000", "092720.447000", "092720.450000", "092720.452000", "092720.471000", "092720.473000", "092720.476000", "092720.478000", "092720.481000", "092720.483000", "092720.486000", "092720.488000", "092720.490000", "092720.493000", "092720.495000", "092720.498000", "092800.435000", "092800.438000", "092800.441000", "092800.443000", "092800.446000", "092800.448000", "092800.451000", "092800.453000", "092800.456000", "092800.458000", "092800.461000", "092800.463000", "092800.466000", "092800.468000", "092800.471000", "092800.473000", "092800.476000", "092800.478000", "092800.481000", "092800.483000", "092840.434000", "092840.437000", "092840.440000", "092840.442000", "092840.445000", "092840.447000", "092840.450000", "092840.452000", "092840.455000", "092840.457000", "092840.460000", "092840.462000", "092840.465000", "092840.467000", "092840.470000", "092840.472000", "092840.475000", "092840.477000", "092840.480000", "092840.482000", "092920.435000", "092920.437000", "092920.440000", "092920.442000", "092920.445000", "092920.448000", "092920.450000", "092920.453000", "092920.455000", "092920.457000", "092920.460000", "092920.462000", "092920.465000", "092920.467000", "092920.470000", "092920.473000", "092920.475000", "092920.478000", "092920.480000", "092920.483000", "093000.435000", "093000.438000", "093000.441000", "093000.443000", "093000.446000", "093000.448000", "093000.451000", "093000.453000", "093000.456000", "093000.458000", "093000.461000", "093000.463000", "093000.466000", "093000.468000", "093000.471000", "093000.473000", "093000.476000", "093000.478000", "093000.481000", "093000.483000", "093040.434000", "093040.437000", "093040.440000", "093040.442000", "093040.445000", "093040.447000", "093040.450000", "093040.452000", "093040.455000", "093040.457000", "093040.460000", "093040.462000", "093040.465000", "093040.467000", "093040.470000", "093040.472000", "093040.475000", "093040.477000", "093040.480000", "093040.482000", "093120.434000", "093120.437000", "093120.440000", "093120.442000", "093120.445000", "093120.447000", "093120.450000", "093120.452000", "093120.455000", "093120.457000", "093120.460000", "093120.463000", "093120.465000", "093120.468000", "093120.470000", "093120.473000", "093120.475000", "093120.478000", "093120.480000", "093120.483000", "093141.624000", "093141.627000", "093141.630000", "093141.632000", "093141.635000", "093141.637000", "093141.640000", "093141.643000", "093141.645000", "093141.648000", "093141.650000"],
      "InstanceNumber": [1, 2, 3, 4, 5, 6, 7, 8, 9, 10, 11, 12, 13, 14, 15, 16, 17, 18, 19, 20, 21, 22, 23, 24, 25, 26, 27, 28, 29, 30, 31, 32, 33, 34, 35, 36, 37, 38, 39, 40, 41, 42, 43, 44, 45, 46, 47, 48, 49, 50, 51, 52, 53, 54, 55, 56, 57, 58, 59, 60, 61, 62, 63, 64, 65, 66, 67, 68, 69, 70, 71, 72, 73, 74, 75, 76, 77, 78, 79, 80, 81, 82, 83, 84, 85, 86, 87, 88, 89, 90, 91, 92, 93, 94, 95, 96, 97, 98, 99, 100, 101, 102, 103, 104, 105, 106, 107, 108, 109, 110, 111, 112, 113, 114, 115, 116, 117, 118, 119, 120, 121, 122, 123, 124, 125, 126, 127, 128, 129, 130, 131, 132, 133, 134, 135, 136, 137, 138, 139, 140, 141, 142, 143, 144, 145, 146, 147, 148, 149, 150, 151, 152, 153, 154, 155, 156, 157, 158, 159, 160, 161, 162, 163, 164, 165, 166, 167, 168, 169, 170, 171, 172, 173, 174, 175, 176, 177, 178, 179, 180, 181, 182, 183, 184, 185, 186, 187, 188, 189, 190, 191, 192, 193, 194, 195, 196, 197, 198, 199, 200],
      "WindowCenter": [1474.0, 1475.0, 1475.0, 1475.0, 1475.0, 1475.0, 1475.0, 1475.0, 1474.0, 1474.0, 1474.0, 1474.0, 1474.0, 1473.0, 1473.0, 1473.0, 1473.0, 1473.0, 1474.0, 1473.0, 1474.0, 1473.0, 1473.0, 1473.0, 1473.0, 1473.0, 1473.0, 1473.0, 1473.0, 1473.0, 1473.0, 1473.0, 1473.0, 1473.0, 1472.0, 1473.0, 1473.0, 1472.0, 1472.0, 1473.0, 1472.0, 1472.0, 1472.0, 1473.0, 1472.0, 1472.0, 1472.0, 1471.0, 1472.0, 1473.0, 1472.0, 1472.0, 1472.0, 1472.0, 1472.0, 1471.0, 1471.0, 1471.0, 1471.0, 1471.0, 1471.0, 1472.0, 1472.0, 1471.0, 1471.0, 1472.0, 1471.0, 1471.0, 1470.0, 1470.0, 1471.0, 1471.0, 1471.0, 1471.0, 1470.0, 1471.0, 1470.0, 1470.0, 1471.0, 1471.0, 1470.0, 1470.0, 1470.0, 1470.0, 1470.0, 1470.0, 1471.0, 1471.0, 1471.0, 1471.0, 1471.0, 1471.0, 1470.0, 1471.0, 1470.0, 1470.0, 1470.0, 1470.0, 1470.0, 1470.0, 1470.0, 1470.0, 1470.0, 1470.0, 1470.0, 1470.0, 1470.0, 1471.0, 1470.0, 1470.0, 1470.0, 1470.0, 1471.0, 1469.0, 1469.0, 1469.0, 1470.0, 1470.0, 1469.0, 1469.0, 1469.0, 1470.0, 1469.0, 1470.0, 1469.0, 1469.0, 1469.0, 1468.0, 1469.0, 1468.0, 1469.0, 1468.0, 1468.0, 1469.0, 1468.0, 1469.0, 1468.0, 1468.0, 1468.0, 1468.0, 1468.0, 1469.0, 1468.0, 1468.0, 1468.0, 1468.0, 1468.0, 1468.0, 1468.0, 1468.0, 1468.0, 1468.0, 1468.0, 1467.0, 1468.0, 1469.0, 1468.0, 1468.0, 1468.0, 1467.0, 1468.0, 1468.0, 1469.0, 1467.0, 1467.0, 1468.0, 1468.0, 1467.0, 1467.0, 1468.0, 1467.0, 1467.0, 1467.0, 1467.0, 1467.0, 1467.0, 1467.0, 1468.0, 1468.0, 1467.0, 1467.0, 1468.0, 1467.0, 1467.0, 1467.0, 1467.0, 1467.0, 1467.0, 1467.0, 1467.0, 1468.0, 1467.0, 1467.0, 1467.0, 1467.0, 1466.0, 1467.0, 1466.0, 1466.0, 1467.0],
      "WindowWidth": [3447.0, 3447.0, 3446.0, 3446.0, 3446.0, 3446.0, 3446.0, 3446.0, 3446.0, 3446.0, 3446.0, 3446.0, 3446.0, 3446.0, 3446.0, 3446.0, 3446.0, 3446.0, 3445.0, 3446.0, 3445.0, 3445.0, 3445.0, 3445.0, 3445.0, 3445.0, 3445.0, 3445.0, 3445.0, 3445.0, 3445.0, 3445.0, 3445.0, 3445.0, 3445.0, 3444.0, 3444.0, 3445.0, 3445.0, 3444.0, 3445.0, 3445.0, 3445.0, 3444.0, 3444.0, 3444.0, 3444.0, 3445.0, 3444.0, 3444.0, 3444.0, 3444.0, 3444.0, 3444.0, 3444.0, 3444.0, 3444.0, 3444.0, 3444.0, 3444.0, 3444.0, 3443.0, 3444.0, 3444.0, 3444.0, 3443.0, 3443.0, 3443.0, 3444.0, 3444.0, 3443.0, 3443.0, 3443.0, 3443.0, 3444.0, 3443.0, 3443.0, 3443.0, 3443.0, 3443.0, 3443.0, 3442.0, 3442.0, 3442.0, 3442.0, 3443.0, 3443.0, 3443.0, 3443.0, 3443.0, 3443.0, 3443.0, 3443.0, 3443.0, 3443.0, 3443.0, 3443.0, 3443.0, 3443.0, 3443.0, 3443.0, 3442.0, 3442.0, 3443.0, 3442.0, 3442.0, 3442.0, 3443.0, 3443.0, 3442.0, 3442.0, 3443.0, 3443.0, 3443.0, 3443.0, 3442.0, 3443.0, 3443.0, 3443.0, 3442.0, 3442.0, 3442.0, 3442.0, 3442.0, 3442.0, 3442.0, 3442.0, 3442.0, 3441.0, 3442.0, 3442.0, 3441.0, 3441.0, 3441.0, 3442.0, 3442.0, 3441.0, 3441.0, 3441.0, 3441.0, 3441.0, 3441.0, 3441.0, 3441.0, 3441.0, 3441.0, 3441.0, 3441.0, 3441.0, 3441.0, 3441.0, 3441.0, 3441.0, 3442.0, 3441.0, 3441.0, 3441.0, 3441.0, 3441.0, 3441.0, 3441.0, 3441.0, 3441.0, 3441.0, 3441.0, 3441.0, 3441.0, 3441.0, 3441.0, 3441.0, 3441.0, 3441.0, 3441.0, 3441.0, 3441.0, 3441.0, 3441.0, 3441.0, 3441.0, 3441.0, 3441.0, 3441.0, 3441.0, 3441.0, 3441.0, 3441.0, 3441.0, 3441.0, 3441.0, 3441.0, 3441.0, 3441.0, 3441.0, 3441.0, 3441.0, 3441.0, 3440.0, 3441.0, 3441.0, 3440.0]
    },
    "slices": {}
  }
}