{
  "AcquisitionMatrixPE": 122,
  "AcquisitionNumber": 1,
  "AcquisitionTime": "10:24:58.505000",
  "BandwidthPerPixelPhaseEncode": 27.785,
  "BaseResolution": 122,
  "BodyPartExamined": "BRAIN",
  "CoilCombinationMethod": "Adaptive Combine",
  "ConsistencyInfo": "N4_VE11C_LATEST_20160120",
  "ConversionSoftware": "dcm2niix",
  "ConversionSoftwareVersion": "v1.0.20220720",
  "DerivedVendorReportedEchoSpacing": 0.000590011,
  "DeviceSerialNumber": "66112",
  "DiffusionScheme": "Monopolar",
  "DwellTime": 2e-06,
  "EchoTime": 0.068,
  "EchoTrainLength": 61,
  "EffectiveEchoSpacing": 0.000295005,
  "FlipAngle": 90,
  "HeudiconvVersion": "0.13.1",
  "ImageOrientationPatientDICOM": [0.999929, 0.00996176, 0.00649713, -0.0113443, 0.962933, 0.269501],
  "ImageOrientationText": "Tra>Cor(15.6)>Sag(0.2)",
  "ImageType": [
    "ORIGINAL",
    "PRIMARY",
    "DIFFUSION",
    "NONE",
    "ND",
    "NORM"
],
  "ImagingFrequency": 123.252,
  "InPlanePhaseEncodingDirectionDICOM": "COL",
  "InstitutionAddress": "Maynard 3,Hanover,NH,US,03755",
  "InstitutionName": "Dartmouth College - PBS",
  "InstitutionalDepartmentName": "Department",
  "MRAcquisitionType": "2D",
  "MagneticFieldStrength": 3,
  "Manufacturer": "Siemens",
  "ManufacturersModelName": "Prisma",
  "Modality": "MR",
  "MultibandAccelerationFactor": 4,
  "NonlinearGradientCorrection": false,
  "ParallelReductionFactorInPlane": 2,
  "PartialFourier": 1,
  "PatientPosition": "HFS",
  "PercentPhaseFOV": 100,
  "PercentSampling": 100,
  "PhaseEncodingDirection": "j-",
  "PhaseEncodingSteps": 122,
  "PhaseResolution": 1,
  "PixelBandwidth": 2050,
  "ProcedureStepDescription": "dbic^QA",
  "ProtocolName": "dwi_acq-DTI-30-p2-s4",
  "PulseSequenceDetails": "%SiemensSeq%\\ep2d_diff",
  "ReceiveCoilActiveElements": "HEA;HEP",
  "ReceiveCoilName": "Head_32",
  "ReconMatrixPE": 122,
  "RefLinesPE": 38,
  "RepetitionTime": 3.6,
  "SAR": 0.140269,
  "ScanOptions": "FS",
  "ScanningSequence": "EP",
  "SequenceName": "*ep_b0",
  "SequenceVariant": "SK\\SP",
  "SeriesDescription": "dwi_acq-DTI-30-p2-s4",
  "SeriesNumber": 13,
  "ShimSetting": [4149, -7698, -7518, 283, -54, -185, -28, 45],
  "SliceThickness": 2,
  "SliceTiming": [2.58594, 0, 1.78906, 0.19531, 1.98438, 0.39844, 2.1875, 0.59375, 2.38281, 0.99219, 2.78125, 1.19531, 2.98438, 1.39062, 3.17969, 1.59375, 3.38281, 0.79688, 2.58594, 0, 1.78906, 0.19531, 1.98438, 0.39844, 2.1875, 0.59375, 2.38281, 0.99219, 2.78125, 1.19531, 2.98438, 1.39062, 3.17969, 1.59375, 3.38281, 0.79688, 2.58594, 0, 1.78906, 0.19531, 1.98438, 0.39844, 2.1875, 0.59375, 2.38281, 0.99219, 2.78125, 1.19531, 2.98438, 1.39062, 3.17969, 1.59375, 3.38281, 0.79688, 2.58594, 0, 1.78906, 0.19531, 1.98438, 0.39844, 2.1875, 0.59375, 2.38281, 0.99219, 2.78125, 1.19531, 2.98438, 1.39062, 3.17969, 1.59375, 3.38281, 0.79688],
  "SoftwareVersions": "syngo MR E11",
  "SpacingBetweenSlices": 2,
  "SpoilingState": true,
  "StationName": "AWP66112",
  "TotalReadoutTime": 0.0356956,
  "TxRefAmp": 231.376,
  "dcmmeta_affine": [
    [-1.9670740365982056, -0.02231665328145027, 0.007143139839172363, 121.49906921386719],
    [-0.01959691196680069, 1.8942949771881104, 0.5391101837158203, -118.7022476196289],
    [0.01278123538941145, -0.5301662683486938, 1.9259567260742188, -65.08537292480469],
    [0.0, 0.0, 0.0, 1.0]
],
  "dcmmeta_reorient_transform": [
    [0.0, -1.0, 0.0, 121.0],
    [1.0, 0.0, 0.0, 0.0],
    [0.0, 0.0, -1.0, 71.0],
    [0.0, 0.0, 0.0, 1.0]
],
  "dcmmeta_shape": [122, 122, 72, 31],
  "dcmmeta_slice_dim": 2,
  "dcmmeta_version": 0.6,
  "global": {
    "const": {
      "AccessionNumber": "qa",
      "AcquisitionMatrix": [122, 0, 0, 122],
      "AngioFlag": "N",
      "BitsAllocated": 16,
      "BitsStored": 12,
      "BodyPartExamined": "BRAIN",
      "Columns": 122,
      "EchoNumbers": 1,
      "EchoTime": 68.0,
      "EchoTrainLength": 61,
      "FlipAngle": 90.0,
      "HighBit": 11,
      "ImageOrientationPatient": [0.99992927280244, 0.00996176314989, 0.00649712765197, -0.0113442987475, 0.9629332393644, 0.2695011751609],
      "ImageType": [
        "ORIGINAL",
        "PRIMARY",
        "DIFFUSION",
        "NONE",
        "ND",
        "NORM"
],
      "ImagedNucleus": "1H",
      "ImagingFrequency": 123.252352,
      "InPlanePhaseEncodingDirection": "COL",
      "MRAcquisitionType": "2D",
      "MagneticFieldStrength": 3.0,
      "Manufacturer": "SIEMENS",
      "ManufacturerModelName": "Prisma",
      "Modality": "MR",
      "NumberOfAverages": 1.0,
      "NumberOfPhaseEncodingSteps": 122,
      "PercentPhaseFieldOfView": 100.0,
      "PercentSampling": 100.0,
      "PerformedProcedureStepStartTime": "094716.226000",
      "PhotometricInterpretation": "MONOCHROME2",
      "PixelBandwidth": 2050.0,
      "PixelRepresentation": 0,
      "PixelSpacing": [1.9672131538391, 1.9672131538391],
      "ProtocolName": "dwi_acq-DTI-30-p2-s4",
      "RepetitionTime": 3600.0,
      "Rows": 122,
      "SAR": 0.14026874087721,
      "SamplesPerPixel": 1,
      "ScanOptions": "FS",
      "ScanningSequence": "EP",
      "SequenceVariant": [
        "SK",
        "SP"
],
      "SeriesDescription": "dwi_acq-DTI-30-p2-s4",
      "SeriesNumber": 13,
      "SeriesTime": "102503.248000",
      "SliceThickness": 2.0,
      "SmallestImagePixelValue": 0,
      "SoftwareVersions": "syngo MR E11",
      "SpacingBetweenSlices": 2.0,
      "SpecificCharacterSet": "ISO_IR 100",
      "StudyID": "4",
      "StudyTime": "094716.177000",
      "TransmitCoilName": "Body",
      "VariableFlipAngleFlag": "N",
      "WindowCenterWidthExplanation": "Algo1",
      "dBdt": 0.0},
    "slices": {
      "AcquisitionTime": ["102458.505000", "102455.920000", "102457.710000", "102456.120000", "102457.910000", "102456.317500", "102458.107500", "102456.517500", "102458.307500", "102456.915000", "102458.705000", "102457.115000", "102458.905000", "102457.312500", "102459.102500", "102457.512500", "102459.302500", "102456.715000", "102458.505000", "102455.920000", "102457.710000", "102456.120000", "102457.910000", "102456.317500", "102458.107500", "102456.517500", "102458.307500", "102456.915000", "102458.705000", "102457.115000", "102458.905000", "102457.312500", "102459.102500", "102457.512500", "102459.302500", "102456.715000", "102458.505000", "102455.920000", "102457.710000", "102456.120000", "102457.910000", "102456.317500", "102458.107500", "102456.517500", "102458.307500", "102456.915000", "102458.705000", "102457.115000", "102458.905000", "102457.312500", "102459.102500", "102457.512500", "102459.302500", "102456.715000", "102458.505000", "102455.920000", "102457.710000", "102456.120000", "102457.910000", "102456.317500", "102458.107500", "102456.517500", "102458.307500", "102456.915000", "102458.705000", "102457.115000", "102458.905000", "102457.312500", "102459.102500", "102457.512500", "102459.302500", "102456.715000", "102502.105000", "102459.520000", "102501.310000", "102459.720000", "102501.510000", "102459.917500", "102501.707500", "102500.117500", "102501.907500", "102500.515000", "102502.305000", "102500.715000", "102502.505000", "102500.912500", "102502.702500", "102501.112500", "102502.902500", "102500.315000", "102502.105000", "102459.520000", "102501.310000", "102459.720000", "102501.510000", "102459.917500", "102501.707500", "102500.117500", "102501.907500", "102500.515000", "102502.305000", "102500.715000", "102502.505000", "102500.912500", "102502.702500", "102501.112500", "102502.902500", "102500.315000", "102502.105000", "102459.520000", "102501.310000", "102459.720000", "102501.510000", "102459.917500", "102501.707500", "102500.117500", "102501.907500", "102500.515000", "102502.305000", "102500.715000", "102502.505000", "102500.912500", "102502.702500", "102501.112500", "102502.902500", "102500.315000", "102502.105000", "102459.520000", "102501.310000", "102459.720000", "102501.510000", "102459.917500", "102501.707500", "102500.117500", "102501.907500", "102500.515000", "102502.305000", "102500.715000", "102502.505000", "102500.912500", "102502.702500", "102501.112500", "102502.902500", "102500.315000", "102505.705000", "102503.120000", "102504.910000", "102503.320000", "102505.110000", "102503.517500", "102505.307500", "102503.717500", "102505.507500", "102504.115000", "102505.905000", "102504.315000", "102506.105000", "102504.512500", "102506.302500", "102504.712500", "102506.502500", "102503.915000", "102505.705000", "102503.120000", "102504.910000", "102503.320000", "102505.110000", "102503.517500", "102505.307500", "102503.717500", "102505.507500", "102504.115000", "102505.905000", "102504.315000", "102506.105000", "102504.512500", "102506.302500", "102504.712500", "102506.502500", "102503.915000", "102505.705000", "102503.120000", "102504.910000", "102503.320000", "102505.110000", "102503.517500", "102505.307500", "102503.717500", "102505.507500", "102504.115000", "102505.905000", "102504.315000", "102506.105000", "102504.512500", "102506.302500", "102504.712500", "102506.502500", "102503.915000", "102505.705000", "102503.120000", "102504.910000", "102503.320000", "102505.110000", "102503.517500", "102505.307500", "102503.717500", "102505.507500", "102504.115000", "102505.905000", "102504.315000", "102506.105000", "102504.512500", "102506.302500", "102504.712500", "102506.502500", "102503.915000", "102509.305000", "102506.720000", "102508.510000", "102506.920000", "102508.710000", "102507.117500", "102508.907500", "102507.317500", "102509.107500", "102507.715000", "102509.505000", "102507.915000", "102509.705000", "102508.112500", "102509.902500", "102508.312500", "102510.102500", "102507.515000", "102509.305000", "102506.720000", "102508.510000", "102506.920000", "102508.710000", "102507.117500", "102508.907500", "102507.317500", "102509.107500", "102507.715000", "102509.505000", "102507.915000", "102509.705000", "102508.112500", "102509.902500", "102508.312500", "102510.102500", "102507.515000", "102509.305000", "102506.720000", "102508.510000", "102506.920000", "102508.710000", "102507.117500", "102508.907500", "102507.317500", "102509.107500", "102507.715000", "102509.505000", "102507.915000", "102509.705000", "102508.112500", "102509.902500", "102508.312500", "102510.102500", "102507.515000", "102509.305000", "102506.720000", "102508.510000", "102506.920000", "102508.710000", "102507.117500", "102508.907500", "102507.317500", "102509.107500", "102507.715000", "102509.505000", "102507.915000", "102509.705000", "102508.112500", "102509.902500", "102508.312500", "102510.102500", "102507.515000", "102512.905000", "102510.320000", "102512.110000", "102510.520000", "102512.310000", "102510.717500", "102512.507500", "102510.917500", "102512.707500", "102511.315000", "102513.105000", "102511.515000", "102513.305000", "102511.712500", "102513.502500", "102511.912500", "102513.702500", "102511.115000", "102512.905000", "102510.320000", "102512.110000", "102510.520000", "102512.310000", "102510.717500", "102512.507500", "102510.917500", "102512.707500", "102511.315000", "102513.105000", "102511.515000", "102513.305000", "102511.712500", "102513.502500", "102511.912500", "102513.702500", "102511.115000", "102512.905000", "102510.320000", "102512.110000", "102510.520000", "102512.310000", "102510.717500", "102512.507500", "102510.917500", "102512.707500", "102511.315000", "102513.105000", "102511.515000", "102513.305000", "102511.712500", "102513.502500", "102511.912500", "102513.702500", "102511.115000", "102512.905000", "102510.320000", "102512.110000", "102510.520000", "102512.310000", "102510.717500", "102512.507500", "102510.917500", "102512.707500", "102511.315000", "102513.105000", "102511.515000", "102513.305000", "102511.712500", "102513.502500", "102511.912500", "102513.702500", "102511.115000", "102516.505000", "102513.920000", "102515.710000", "102514.120000", "102515.910000", "102514.317500", "102516.107500", "102514.517500", "102516.307500", "102514.915000", "102516.705000", "102515.115000", "102516.905000", "102515.312500", "102517.102500", "102515.512500", "102517.302500", "102514.715000", "102516.505000", "102513.920000", "102515.710000", "102514.120000", "102515.910000", "102514.317500", "102516.107500", "102514.517500", "102516.307500", "102514.915000", "102516.705000", "102515.115000", "102516.905000", "102515.312500", "102517.102500", "102515.512500", "102517.302500", "102514.715000", "102516.505000", "102513.920000", "102515.710000", "102514.120000", "102515.910000", "102514.317500", "102516.107500", "102514.517500", "102516.307500", "102514.915000", "102516.705000", "102515.115000", "102516.905000", "102515.312500", "102517.102500", "102515.512500", "102517.302500", "102514.715000", "102516.505000", "102513.920000", "102515.710000", "102514.120000", "102515.910000", "102514.317500", "102516.107500", "102514.517500", "102516.307500", "102514.915000", "102516.705000", "102515.115000", "102516.905000", "102515.312500", "102517.102500", "102515.512500", "102517.302500", "102514.715000", "102520.105000", "102517.520000", "102519.310000", "102517.720000", "102519.510000", "102517.917500", "102519.707500", "102518.117500", "102519.907500", "102518.515000", "102520.305000", "102518.715000", "102520.505000", "102518.912500", "102520.702500", "102519.112500", "102520.902500", "102518.315000", "102520.105000", "102517.520000", "102519.310000", "102517.720000", "102519.510000", "102517.917500", "102519.707500", "102518.117500", "102519.907500", "102518.515000", "102520.305000", "102518.715000", "102520.505000", "102518.912500", "102520.702500", "102519.112500", "102520.902500", "102518.315000", "102520.105000", "102517.520000", "102519.310000", "102517.720000", "102519.510000", "102517.917500", "102519.707500", "102518.117500", "102519.907500", "102518.515000", "102520.305000", "102518.715000", "102520.505000", "102518.912500", "102520.702500", "102519.112500", "102520.902500", "102518.315000", "102520.105000", "102517.520000", "102519.310000", "102517.720000", "102519.510000", "102517.917500", "102519.707500", "102518.117500", "102519.907500", "102518.515000", "102520.305000", "102518.715000", "102520.505000", "102518.912500", "102520.702500", "102519.112500", "102520.902500", "102518.315000", "102523.705000", "102521.120000", "102522.910000", "102521.320000", "102523.110000", "102521.517500", "102523.307500", "102521.717500", "102523.507500", "102522.115000", "102523.905000", "102522.315000", "102524.105000", "102522.512500", "102524.302500", "102522.712500", "102524.502500", "102521.915000", "102523.705000", "102521.120000", "102522.910000", "102521.320000", "102523.110000", "102521.517500", "102523.307500", "102521.717500", "102523.507500", "102522.115000", "102523.905000", "102522.315000", "102524.105000", "102522.512500", "102524.302500", "102522.712500", "102524.502500", "102521.915000", "102523.705000", "102521.120000", "102522.910000", "102521.320000", "102523.110000", "102521.517500", "102523.307500", "102521.717500", "102523.507500", "102522.115000", "102523.905000", "102522.315000", "102524.105000", "102522.512500", "102524.302500", "102522.712500", "102524.502500", "102521.915000", "102523.705000", "102521.120000", "102522.910000", "102521.320000", "102523.110000", "102521.517500", "102523.307500", "102521.717500", "102523.507500", "102522.115000", "102523.905000", "102522.315000", "102524.105000", "102522.512500", "102524.302500", "102522.712500", "102524.502500", "102521.915000", "102527.305000", "102524.720000", "102526.510000", "102524.920000", "102526.710000", "102525.117500", "102526.907500", "102525.317500", "102527.107500", "102525.715000", "102527.505000", "102525.915000", "102527.705000", "102526.112500", "102527.902500", "102526.312500", "102528.102500", "102525.515000", "102527.305000", "102524.720000", "102526.510000", "102524.920000", "102526.710000", "102525.117500", "102526.907500", "102525.317500", "102527.107500", "102525.715000", "102527.505000", "102525.915000", "102527.705000", "102526.112500", "102527.902500", "102526.312500", "102528.102500", "102525.515000", "102527.305000", "102524.720000", "102526.510000", "102524.920000", "102526.710000", "102525.117500", "102526.907500", "102525.317500", "102527.107500", "102525.715000", "102527.505000", "102525.915000", "102527.705000", "102526.112500", "102527.902500", "102526.312500", "102528.102500", "102525.515000", "102527.305000", "102524.720000", "102526.510000", "102524.920000", "102526.710000", "102525.117500", "102526.907500", "102525.317500", "102527.107500", "102525.715000", "102527.505000", "102525.915000", "102527.705000", "102526.112500", "102527.902500", "102526.312500", "102528.102500", "102525.515000", "102530.905000", "102528.320000", "102530.110000", "102528.520000", "102530.310000", "102528.717500", "102530.507500", "102528.917500", "102530.707500", "102529.315000", "102531.105000", "102529.515000", "102531.305000", "102529.712500", "102531.502500", "102529.912500", "102531.702500", "102529.115000", "102530.905000", "102528.320000", "102530.110000", "102528.520000", "102530.310000", "102528.717500", "102530.507500", "102528.917500", "102530.707500", "102529.315000", "102531.105000", "102529.515000", "102531.305000", "102529.712500", "102531.502500", "102529.912500", "102531.702500", "102529.115000", "102530.905000", "102528.320000", "102530.110000", "102528.520000", "102530.310000", "102528.717500", "102530.507500", "102528.917500", "102530.707500", "102529.315000", "102531.105000", "102529.515000", "102531.305000", "102529.712500", "102531.502500", "102529.912500", "102531.702500", "102529.115000", "102530.905000", "102528.320000", "102530.110000", "102528.520000", "102530.310000", "102528.717500", "102530.507500", "102528.917500", "102530.707500", "102529.315000", "102531.105000", "102529.515000", "102531.305000", "102529.712500", "102531.502500", "102529.912500", "102531.702500", "102529.115000", "102534.505000", "102531.920000", "102533.710000", "102532.120000", "102533.910000", "102532.317500", "102534.107500", "102532.517500", "102534.307500", "102532.915000", "102534.705000", "102533.115000", "102534.905000", "102533.312500", "102535.102500", "102533.512500", "102535.302500", "102532.715000", "102534.505000", "102531.920000", "102533.710000", "102532.120000", "102533.910000", "102532.317500", "102534.107500", "102532.517500", "102534.307500", "102532.915000", "102534.705000", "102533.115000", "102534.905000", "102533.312500", "102535.102500", "102533.512500", "102535.302500", "102532.715000", "102534.505000", "102531.920000", "102533.710000", "102532.120000", "102533.910000", "102532.317500", "102534.107500", "102532.517500", "102534.307500", "102532.915000", "102534.705000", "102533.115000", "102534.905000", "102533.312500", "102535.102500", "102533.512500", "102535.302500", "102532.715000", "102534.505000", "102531.920000", "102533.710000", "102532.120000", "102533.910000", "102532.317500", "102534.107500", "102532.517500", "102534.307500", "102532.915000", "102534.705000", "102533.115000", "102534.905000", "102533.312500", "102535.102500", "102533.512500", "102535.302500", "102532.715000", "102538.105000", "102535.520000", "102537.310000", "102535.720000", "102537.510000", "102535.917500", "102537.707500", "102536.117500", "102537.907500", "102536.515000", "102538.305000", "102536.715000", "102538.505000", "102536.912500", "102538.702500", "102537.112500", "102538.902500", "102536.315000", "102538.105000", "102535.520000", "102537.310000", "102535.720000", "102537.510000", "102535.917500", "102537.707500", "102536.117500", "102537.907500", "102536.515000", "102538.305000", "102536.715000", "102538.505000", "102536.912500", "102538.702500", "102537.112500", "102538.902500", "102536.315000", "102538.105000", "102535.520000", "102537.310000", "102535.720000", "102537.510000", "102535.917500", "102537.707500", "102536.117500", "102537.907500", "102536.515000", "102538.305000", "102536.715000", "102538.505000", "102536.912500", "102538.702500", "102537.112500", "102538.902500", "102536.315000", "102538.105000", "102535.520000", "102537.310000", "102535.720000", "102537.510000", "102535.917500", "102537.707500", "102536.117500", "102537.907500", "102536.515000", "102538.305000", "102536.715000", "102538.505000", "102536.912500", "102538.702500", "102537.112500", "102538.902500", "102536.315000", "102541.705000", "102539.120000", "102540.910000", "102539.320000", "102541.110000", "102539.517500", "102541.307500", "102539.717500", "102541.507500", "102540.115000", "102541.905000", "102540.315000", "102542.105000", "102540.512500", "102542.302500", "102540.712500", "102542.502500", "102539.915000", "102541.705000", "102539.120000", "102540.910000", "102539.320000", "102541.110000", "102539.517500", "102541.307500", "102539.717500", "102541.507500", "102540.115000", "102541.905000", "102540.315000", "102542.105000", "102540.512500", "102542.302500", "102540.712500", "102542.502500", "102539.915000", "102541.705000", "102539.120000", "102540.910000", "102539.320000", "102541.110000", "102539.517500", "102541.307500", "102539.717500", "102541.507500", "102540.115000", "102541.905000", "102540.315000", "102542.105000", "102540.512500", "102542.302500", "102540.712500", "102542.502500", "102539.915000", "102541.705000", "102539.120000", "102540.910000", "102539.320000", "102541.110000", "102539.517500", "102541.307500", "102539.717500", "102541.507500", "102540.115000", "102541.905000", "102540.315000", "102542.105000", "102540.512500", "102542.302500", "102540.712500", "102542.502500", "102539.915000", "102545.305000", "102542.720000", "102544.510000", "102542.920000", "102544.710000", "102543.117500", "102544.907500", "102543.317500", "102545.107500", "102543.715000", "102545.505000", "102543.915000", "102545.705000", "102544.112500", "102545.902500", "102544.312500", "102546.102500", "102543.515000", "102545.305000", "102542.720000", "102544.510000", "102542.920000", "102544.710000", "102543.117500", "102544.907500", "102543.317500", "102545.107500", "102543.715000", "102545.505000", "102543.915000", "102545.705000", "102544.112500", "102545.902500", "102544.312500", "102546.102500", "102543.515000", "102545.305000", "102542.720000", "102544.510000", "102542.920000", "102544.710000", "102543.117500", "102544.907500", "102543.317500", "102545.107500", "102543.715000", "102545.505000", "102543.915000", "102545.705000", "102544.112500", "102545.902500", "102544.312500", "102546.102500", "102543.515000", "102545.305000", "102542.720000", "102544.510000", "102542.920000", "102544.710000", "102543.117500", "102544.907500", "102543.317500", "102545.107500", "102543.715000", "102545.505000", "102543.915000", "102545.705000", "102544.112500", "102545.902500", "102544.312500", "102546.102500", "102543.515000", "102548.905000", "102546.320000", "102548.110000", "102546.520000", "102548.310000", "102546.717500", "102548.507500", "102546.917500", "102548.707500", "102547.315000", "102549.105000", "102547.515000", "102549.305000", "102547.712500", "102549.502500", "102547.912500", "102549.702500", "102547.115000", "102548.905000", "102546.320000", "102548.110000", "102546.520000", "102548.310000", "102546.717500", "102548.507500", "102546.917500", "102548.707500", "102547.315000", "102549.105000", "102547.515000", "102549.305000", "102547.712500", "102549.502500", "102547.912500", "102549.702500", "102547.115000", "102548.905000", "102546.320000", "102548.110000", "102546.520000", "102548.310000", "102546.717500", "102548.507500", "102546.917500", "102548.707500", "102547.315000", "102549.105000", "102547.515000", "102549.305000", "102547.712500", "102549.502500", "102547.912500", "102549.702500", "102547.115000", "102548.905000", "102546.320000", "102548.110000", "102546.520000", "102548.310000", "102546.717500", "102548.507500", "102546.917500", "102548.707500", "102547.315000", "102549.105000", "102547.515000", "102549.305000", "102547.712500", "102549.502500", "102547.912500", "102549.702500", "102547.115000", "102552.505000", "102549.920000", "102551.710000", "102550.120000", "102551.910000", "102550.317500", "102552.107500", "102550.517500", "102552.307500", "102550.915000", "102552.705000", "102551.115000", "102552.905000", "102551.312500", "102553.102500", "102551.512500", "102553.302500", "102550.715000", "102552.505000", "102549.920000", "102551.710000", "102550.120000", "102551.910000", "102550.317500", "102552.107500", "102550.517500", "102552.307500", "102550.915000", "102552.705000", "102551.115000", "102552.905000", "102551.312500", "102553.102500", "102551.512500", "102553.302500", "102550.715000", "102552.505000", "102549.920000", "102551.710000", "102550.120000", "102551.910000", "102550.317500", "102552.107500", "102550.517500", "102552.307500", "102550.915000", "102552.705000", "102551.115000", "102552.905000", "102551.312500", "102553.102500", "102551.512500", "102553.302500", "102550.715000", "102552.505000", "102549.920000", "102551.710000", "102550.120000", "102551.910000", "102550.317500", "102552.107500", "102550.517500", "102552.307500", "102550.915000", "102552.705000", "102551.115000", "102552.905000", "102551.312500", "102553.102500", "102551.512500", "102553.302500", "102550.715000", "102556.105000", "102553.520000", "102555.310000", "102553.720000", "102555.510000", "102553.917500", "102555.707500", "102554.117500", "102555.907500", "102554.515000", "102556.305000", "102554.715000", "102556.505000", "102554.912500", "102556.702500", "102555.112500", "102556.902500", "102554.315000", "102556.105000", "102553.520000", "102555.310000", "102553.720000", "102555.510000", "102553.917500", "102555.707500", "102554.117500", "102555.907500", "102554.515000", "102556.305000", "102554.715000", "102556.505000", "102554.912500", "102556.702500", "102555.112500", "102556.902500", "102554.315000", "102556.105000", "102553.520000", "102555.310000", "102553.720000", "102555.510000", "102553.917500", "102555.707500", "102554.117500", "102555.907500", "102554.515000", "102556.305000", "102554.715000", "102556.505000", "102554.912500", "102556.702500", "102555.112500", "102556.902500", "102554.315000", "102556.105000", "102553.520000", "102555.310000", "102553.720000", "102555.510000", "102553.917500", "102555.707500", "102554.117500", "102555.907500", "102554.515000", "102556.305000", "102554.715000", "102556.505000", "102554.912500", "102556.702500", "102555.112500", "102556.902500", "102554.315000", "102559.705000", "102557.120000", "102558.910000", "102557.320000", "102559.110000", "102557.517500", "102559.307500", "102557.717500", "102559.507500", "102558.115000", "102559.905000", "102558.315000", "102600.105000", "102558.512500", "102600.302500", "102558.712500", "102600.502500", "102557.915000", "102559.705000", "102557.120000", "102558.910000", "102557.320000", "102559.110000", "102557.517500", "102559.307500", "102557.717500", "102559.507500", "102558.115000", "102559.905000", "102558.315000", "102600.105000", "102558.512500", "102600.302500", "102558.712500", "102600.502500", "102557.915000", "102559.705000", "102557.120000", "102558.910000", "102557.320000", "102559.110000", "102557.517500", "102559.307500", "102557.717500", "102559.507500", "102558.115000", "102559.905000", "102558.315000", "102600.105000", "102558.512500", "102600.302500", "102558.712500", "102600.502500", "102557.915000", "102559.705000", "102557.120000", "102558.910000", "102557.320000", "102559.110000", "102557.517500", "102559.307500", "102557.717500", "102559.507500", "102558.115000", "102559.905000", "102558.315000", "102600.105000", "102558.512500", "102600.302500", "102558.712500", "102600.502500", "102557.915000", "102603.305000", "102600.720000", "102602.510000", "102600.920000", "102602.710000", "102601.117500", "102602.907500", "102601.317500", "102603.107500", "102601.715000", "102603.505000", "102601.915000", "102603.705000", "102602.112500", "102603.902500", "102602.312500", "102604.102500", "102601.515000", "102603.305000", "102600.720000", "102602.510000", "102600.920000", "102602.710000", "102601.117500", "102602.907500", "102601.317500", "102603.107500", "102601.715000", "102603.505000", "102601.915000", "102603.705000", "102602.112500", "102603.902500", "102602.312500", "102604.102500", "102601.515000", "102603.305000", "102600.720000", "102602.510000", "102600.920000", "102602.710000", "102601.117500", "102602.907500", "102601.317500", "102603.107500", "102601.715000", "102603.505000", "102601.915000", "102603.705000", "102602.112500", "102603.902500", "102602.312500", "102604.102500", "102601.515000", "102603.305000", "102600.720000", "102602.510000", "102600.920000", "102602.710000", "102601.117500", "102602.907500", "102601.317500", "102603.107500", "102601.715000", "102603.505000", "102601.915000", "102603.705000", "102602.112500", "102603.902500", "102602.312500", "102604.102500", "102601.515000", "102606.905000", "102604.320000", "102606.110000", "102604.520000", "102606.310000", "102604.717500", "102606.507500", "102604.917500", "102606.707500", "102605.315000", "102607.105000", "102605.515000", "102607.305000", "102605.712500", "102607.502500", "102605.912500", "102607.702500", "102605.115000", "102606.905000", "102604.320000", "102606.110000", "102604.520000", "102606.310000", "102604.717500", "102606.507500", "102604.917500", "102606.707500", "102605.315000", "102607.105000", "102605.515000", "102607.305000", "102605.712500", "102607.502500", "102605.912500", "102607.702500", "102605.115000", "102606.905000", "102604.320000", "102606.110000", "102604.520000", "102606.310000", "102604.717500", "102606.507500", "102604.917500", "102606.707500", "102605.315000", "102607.105000", "102605.515000", "102607.305000", "102605.712500", "102607.502500", "102605.912500", "102607.702500", "102605.115000", "102606.905000", "102604.320000", "102606.110000", "102604.520000", "102606.310000", "102604.717500", "102606.507500", "102604.917500", "102606.707500", "102605.315000", "102607.105000",