{
  "AcquisitionMatrixPE": 80,
  "AcquisitionNumber": 1,
  "AcquisitionTime": "09:37:51.805000",
  "BandwidthPerPixelPhaseEncode": 48.077,
  "BaseResolution": 80,
  "BodyPartExamined": "BRAIN",
  "CoilCombinationMethod": "Sum of Squares",
  "ConsistencyInfo": "N4_VE11C_LATEST_20160120",
  "ConversionSoftware": "dcm2niix",
  "ConversionSoftwareVersion": "v1.0.20220720",
  "DerivedVendorReportedEchoSpacing": 0.000519999,
  "DeviceSerialNumber": "66112",
  "DwellTime": 2.7e-06,
  "EchoTime": 0.035,
  "EchoTrainLength": 39,
  "EffectiveEchoSpacing": 0.00026,
  "FlipAngle": 90,
  "HeudiconvVersion": "0.13.1",
  "ImageOrientationPatientDICOM": [0.983843, -0.179031, 0.00113234, 0.17047, 0.938691, 0.299664],
  "ImageOrientationText": "Tra>Cor(17.2)>Sag(3.1)",
  "ImageType": [
    "ORIGINAL",
    "PRIMARY",
    "M",
    "ND",
    "NORM",
    "MOSAIC"
],
  "ImagingFrequency": 123.252,
  "InPlanePhaseEncodingDirectionDICOM": "COL",
  "InstitutionAddress": "Maynard 3,Hanover,NH,US,03755",
  "InstitutionName": "Dartmouth College - PBS",
  "InstitutionalDepartmentName": "Department",
  "MRAcquisitionType": "2D",
  "MagneticFieldStrength": 3,
  "Manufacturer": "Siemens",
  "ManufacturersModelName": "Prisma",
  "MatrixCoilMode": "GRAPPA",
  "Modality": "MR",
  "NonlinearGradientCorrection": false,
  "ParallelReductionFactorInPlane": 2,
  "PartialFourier": 1,
  "PatientPosition": "HFS",
  "PercentPhaseFOV": 100,
  "PercentSampling": 100,
  "PhaseEncodingDirection": "j-",
  "PhaseEncodingSteps": 79,
  "PhaseResolution": 1,
  "PixelBandwidth": 2315,
  "ProcedureStepDescription": "dbic^QA",
  "ProtocolName": "func-bold_task-rest_acq-p2",
  "PulseSequenceDetails": "%SiemensSeq%\\ep2d_bold",
  "ReceiveCoilActiveElements": "HEA;HEP",
  "ReceiveCoilName": "Head_32",
  "ReconMatrixPE": 80,
  "RefLinesPE": 24,
  "RepetitionTime": 2,
  "SAR": 0.0558072,
  "ScanOptions": "FS",
  "ScanningSequence": "EP",
  "SequenceName": "*epfid2d1_80",
  "SequenceVariant": "SK",
  "SeriesDescription": "func-bold_task-rest_acq-p2",
  "SeriesNumber": 5,
  "ShimSetting": [4146, -7700, -7527, 267, -77, -186, 5, 94],
  "SliceThickness": 3.5,
  "SliceTiming": [0.99, 0, 1.055, 0.065, 1.1225, 0.1325, 1.1875, 0.1975, 1.2525, 0.2625, 1.32, 0.33, 1.385, 0.395, 1.4525, 0.4625, 1.5175, 0.5275, 1.5825, 0.5925, 1.65, 0.66, 1.715, 0.725, 1.7825, 0.7925, 1.8475, 0.8575, 1.9125, 0.9225],
  "SoftwareVersions": "syngo MR E11",
  "SpacingBetweenSlices": 3.99,
  "StationName": "AWP66112",
  "TaskName": "rest",
  "TotalReadoutTime": 0.02054,
  "TxRefAmp": 227.849,
  "dcmmeta_affine": [
    [-2.951528310775757, 0.5114091038703918, 0.21830110251903534, 92.26542663574219],
    [0.5370925068855286, 2.8160741329193115, 1.1755714416503906, -147.38182067871094],
    [0.003397025866433978, -0.8989925980567932, 3.806635856628418, -15.651931762695312],
    [0.0, 0.0, 0.0, 1.0]
],
  "dcmmeta_reorient_transform": [
    [0.0, -1.0, 0.0, 79.0],
    [1.0, 0.0, 0.0, 0.0],
    [0.0, 0.0, 1.0, 0.0],
    [0.0, 0.0, 0.0, 1.0]
],
  "dcmmeta_shape": [80, 80, 30, 200],
  "dcmmeta_slice_dim": 2,
  "dcmmeta_version": 0.6,
  "global": {
    "const": {
      "AccessionNumber": "qa",
      "AcquisitionMatrix": [80, 0, 0, 80],
      "AngioFlag": "N",
      "BitsAllocated": 16,
      "BitsStored": 12,
      "BodyPartExamined": "BRAIN",
      "Columns": 480,
      "EchoNumbers": 1,
      "EchoTime": 35.0,
      "EchoTrainLength": 39,
      "FlipAngle": 90.0,
      "HighBit": 11,
      "ImageOrientationPatient": [0.98384280969695, -0.179030845413, 0.00113234196014, 0.17046969460657, 0.93869134827445, 0.29966420522885],
      "ImagePositionPatient": [-825.25424788384, -530.8843378476, -267.15027712915],
      "ImageType": [
        "ORIGINAL",
        "PRIMARY",
        "M",
        "ND",
        "NORM",
        "MOSAIC"
],
      "ImagedNucleus": "1H",
      "ImagingFrequency": 123.252472,
      "InPlanePhaseEncodingDirection": "COL",
      "MRAcquisitionType": "2D",
      "MagneticFieldStrength": 3.0,
      "Manufacturer": "SIEMENS",
      "ManufacturerModelName": "Prisma",
      "Modality": "MR",
      "NumberOfAverages": 1.0,
      "NumberOfPhaseEncodingSteps": 79,
      "PercentPhaseFieldOfView": 100.0,
      "PercentSampling": 100.0,
      "PerformedProcedureStepStartTime": "093138.709000",
      "PhotometricInterpretation": "MONOCHROME2",
      "PixelBandwidth": 2315.0,
      "PixelRepresentation": 0,
      "PixelSpacing": [3.0, 3.0],
      "ProtocolName": "func-bold_task-rest_acq-p2",
      "RepetitionTime": 2000.0,
      "Rows": 480,
      "SAR": 0.05580720716061,
      "SamplesPerPixel": 1,
      "ScanOptions": "FS",
      "ScanningSequence": "EP",
      "SequenceName": "*epfid2d1_80",
      "SequenceVariant": "SK",
      "SeriesDescription": "func-bold_task-rest_acq-p2",
      "SeriesNumber": 5,
      "SeriesTime": "093848.766000",
      "SliceLocation": -53.30762351083,
      "SliceThickness": 3.5,
      "SmallestImagePixelValue": 0,
      "SoftwareVersions": "syngo MR E11",
      "SpacingBetweenSlices": 3.9900000666593,
      "SpecificCharacterSet": "ISO_IR 100",
      "StudyID": "36",
      "StudyTime": "093138.585000",
      "TransmitCoilName": "Body",
      "VariableFlipAngleFlag": "N",
      "WindowCenterWidthExplanation": "Algo1",
      "dBdt": 0.0},
    "slices": {}
  },
  "time": {
    "samples": {
      "AcquisitionNumber": [1, 2, 3, 4, 5, 6, 7, 8, 9, 10, 11, 12, 13, 14, 15, 16, 17, 18, 19, 20, 21, 22, 23, 24, 25, 26, 27, 28, 29, 30, 31, 32, 33, 34, 35, 36, 37, 38, 39, 40, 41, 42, 43, 44, 45, 46, 47, 48, 49, 50, 51, 52, 53, 54, 55, 56, 57, 58, 59, 60, 61, 62, 63, 64, 65, 66, 67, 68, 69, 70, 71, 72, 73, 74, 75, 76, 77, 78, 79, 80, 81, 82, 83, 84, 85, 86, 87, 88, 89, 90, 91, 92, 93, 94, 95, 96, 97, 98, 99, 100, 101, 102, 103, 104, 105, 106, 107, 108, 109, 110, 111, 112, 113, 114, 115, 116, 117, 118, 119, 120, 121, 122, 123, 124, 125, 126, 127, 128, 129, 130, 131, 132, 133, 134, 135, 136, 137, 138, 139, 140, 141, 142, 143, 144, 145, 146, 147, 148, 149, 150, 151, 152, 153, 154, 155, 156, 157, 158, 159, 160, 161, 162, 163, 164, 165, 166, 167, 168, 169, 170, 171, 172, 173, 174, 175, 176, 177, 178, 179, 180, 181, 182, 183, 184, 185, 186, 187, 188, 189, 190, 191, 192, 193, 194, 195, 196, 197, 198, 199, 200],
      "AcquisitionTime": ["093751.805000", "093753.805000", "093755.805000", "093757.805000", "093759.805000", "093801.805000", "093803.805000", "093805.805000", "093807.805000", "093809.805000", "093811.805000", "093813.805000", "093815.805000", "093817.805000", "093819.805000", "093821.805000", "093823.805000", "093825.805000", "093827.805000", "093829.805000", "093831.805000", "093833.805000", "093835.805000", "093837.805000", "093839.805000", "093841.805000", "093843.805000", "093845.805000", "093847.805000", "093849.805000", "093851.805000", "093853.805000", "093855.805000", "093857.805000", "093859.805000", "093901.805000", "093903.805000", "093905.805000", "093907.805000", "093909.805000", "093911.805000", "093913.805000", "093915.805000", "093917.805000", "093919.805000", "093921.805000", "093923.805000", "093925.805000", "093927.805000", "093929.805000", "093931.805000", "093933.805000", "093935.805000", "093937.805000", "093939.805000", "093941.805000", "093943.805000", "093945.805000", "093947.805000", "093949.805000", "093951.805000", "093953.805000", "093955.805000", "093957.805000", "093959.805000", "094001.805000", "094003.805000", "094005.805000", "094007.805000", "094009.805000", "094011.805000", "094013.805000", "094015.805000", "094017.805000", "094019.805000", "094021.805000", "094023.805000", "094025.805000", "094027.805000", "094029.805000", "094031.805000", "094033.805000", "094035.805000", "094037.805000", "094039.805000", "094041.805000", "094043.805000", "094045.805000", "094047.805000", "094049.805000", "094051.805000", "094053.805000", "094055.805000", "094057.805000", "094059.805000", "094101.805000", "094103.805000", "094105.805000", "094107.805000", "094109.805000", "094111.805000", "094113.805000", "094115.805000", "094117.805000", "094119.805000", "094121.805000", "094123.805000", "094125.805000", "094127.805000", "094129.805000", "094131.805000", "094133.805000", "094135.805000", "094137.805000", "094139.805000", "094141.805000", "094143.805000", "094145.805000", "094147.805000", "094149.805000", "094151.805000", "094153.805000", "094155.805000", "094157.805000", "094159.805000", "094201.805000", "094203.805000", "094205.805000", "094207.805000", "094209.805000", "094211.805000", "094213.805000", "094215.805000", "094217.805000", "094219.805000", "094221.805000", "094223.805000", "094225.805000", "094227.805000", "094229.805000", "094231.805000", "094233.805000", "094235.805000", "094237.805000", "094239.805000", "094241.805000", "094243.805000", "094245.805000", "094247.805000", "094249.805000", "094251.805000", "094253.805000", "094255.805000", "094257.805000", "094259.805000", "094301.805000", "094303.805000", "094305.805000", "094307.805000", "094309.805000", "094311.805000", "094313.805000", "094315.805000", "094317.805000", "094319.805000", "094321.805000", "094323.805000", "094325.805000", "094327.805000", "094329.805000", "094331.805000", "094333.805000", "094335.805000", "094337.805000", "094339.805000", "094341.805000", "094343.805000", "094345.805000", "094347.805000", "094349.805000", "094351.805000", "094353.805000", "094355.805000", "094357.805000", "094359.805000", "094401.805000", "094403.805000", "094405.805000", "094407.805000", "094409.805000", "094411.805000", "094413.805000", "094415.805000", "094417.805000", "094419.805000", "094421.805000", "094423.805000", "094425.805000", "094427.805000", "094429.805000"],
      "ContentTime": ["093848.771000", "093848.775000", "093848.778000", "093848.780000", "093848.783000", "093848.785000", "093848.788000", "093848.790000", "093848.793000", "093848.795000", "093848.798000", "093848.801000", "093848.803000", "093848.806000", "093848.809000", "093848.812000", "093848.817000", "093848.820000", "093848.823000", "093848.826000", "093848.829000", "093848.832000", "093848.834000", "093848.837000", "093848.840000", "093848.842000", "093848.845000", "093848.847000", "093928.764000", "093928.767000", "093928.770000", "093928.772000", "093928.775000", "093928.777000", "093928.780000", "093928.782000", "093928.785000", "093928.787000", "093928.790000", "093928.792000", "093928.795000", "093928.797000", "093928.800000", "093928.802000", "093928.805000", "093928.807000", "093928.810000", "093928.812000", "094008.763000", "094008.766000", "094008.769000", "094008.771000", "094008.774000", "094008.776000", "094008.779000", "094008.781000", "094008.784000", "094008.787000", "094008.789000", "094008.792000", "094008.794000", "094008.797000", "094008.799000", "094008.802000", "094008.804000", "094008.807000", "094008.810000", "094008.812000", "094048.763000", "094048.766000", "094048.769000", "094048.771000", "094048.774000", "094048.776000", "094048.779000", "094048.781000", "094048.784000", "094048.786000", "094048.789000", "094048.791000", "094048.794000", "094048.797000", "094048.799000", "094048.802000", "094048.804000", "094048.807000", "094048.809000", "094048.812000", "094128.763000", "094128.766000", "094128.769000", "094128.771000", "094128.774000", "094128.776000", "094128.779000", "094128.782000", "094128.784000", "094128.787000", "094128.789000", "094128.792000", "094128.794000", "094128.797000", "094128.799000", "094128.802000", "094128.805000", "094128.807000", "094128.810000", "094128.812000", "094208.762000", "094208.765000", "094208.768000", "094208.770000", "094208.773000", "094208.775000", "094208.778000", "094208.781000", "094208.783000", "094208.786000", "094208.788000", "094208.791000", "094208.793000", "094208.796000", "094208.798000", "094208.801000", "094208.803000", "094208.806000", "094208.809000", "094208.811000", "094248.763000", "094248.766000", "094248.768000", "094248.771000", "094248.773000", "094248.776000", "094248.778000", "094248.781000", "094248.783000", "094248.786000", "094248.789000", "094248.791000", "094248.794000", "094248.796000", "094248.799000", "094248.801000", "094248.804000", "094248.806000", "094248.809000", "094248.811000", "094328.763000", "094328.766000", "094328.769000", "094328.771000", "094328.774000", "094328.776000", "094328.779000", "094328.781000", "094328.784000", "094328.786000", "094328.789000", "094328.791000", "094328.794000", "094328.796000", "094328.799000", "094328.801000", "094328.804000", "094328.806000", "094328.809000", "094328.811000", "094408.763000", "094408.766000", "094408.769000", "094408.771000", "094408.774000", "094408.776000", "094408.779000", "094408.781000", "094408.784000", "094408.786000", "094408.789000", "094408.791000", "094408.794000", "094408.796000", "094408.799000", "094408.801000", "094408.804000", "094408.806000", "094408.809000", "094408.811000", "094431.043000", "094431.046000", "094431.049000", "094431.051000", "094431.054000", "094431.056000", "094431.059000", "094431.062000", "094431.064000", "094431.067000", "094431.069000", "094431.072000"],
      "InstanceCreationTime": ["093848.771000", "093848.775000", "093848.778000", "093848.780000", "093848.783000", "093848.785000", "093848.788000", "093848.790000", "093848.793000", "093848.795000", "093848.798000", "093848.801000", "093848.803000", "093848.806000", "093848.809000", "093848.812000", "093848.817000", "093848.820000", "093848.823000", "093848.826000", "093848.829000", "093848.832000", "093848.834000", "093848.837000", "093848.840000", "093848.842000", "093848.845000", "093848.847000", "093928.764000", "093928.767000", "093928.770000", "093928.772000", "093928.775000", "093928.777000", "093928.780000", "093928.782000", "093928.785000", "093928.787000", "093928.790000", "093928.792000", "093928.795000", "093928.797000", "093928.800000", "093928.802000", "093928.805000", "093928.807000", "093928.810000", "093928.812000", "094008.763000", "094008.766000", "094008.769000", "094008.771000", "094008.774000", "094008.776000", "094008.779000", "094008.781000", "094008.784000", "094008.787000", "094008.789000", "094008.792000", "094008.794000", "094008.797000", "094008.799000", "094008.802000", "094008.804000", "094008.807000", "094008.810000", "094008.812000", "094048.763000", "094048.766000", "094048.769000", "094048.771000", "094048.774000", "094048.776000", "094048.779000", "094048.781000", "094048.784000", "094048.786000", "094048.789000", "094048.791000", "094048.794000", "094048.797000", "094048.799000", "094048.802000", "094048.804000", "094048.807000", "094048.809000", "094048.812000", "094128.763000", "094128.766000", "094128.769000", "094128.771000", "094128.774000", "094128.776000", "094128.779000", "094128.782000", "094128.784000", "094128.787000", "094128.789000", "094128.792000", "094128.794000", "094128.797000", "094128.799000", "094128.802000", "094128.805000", "094128.807000", "094128.810000", "094128.812000", "094208.762000", "094208.765000", "094208.768000", "094208.770000", "094208.773000", "094208.775000", "094208.778000", "094208.781000", "094208.783000", "094208.786000", "094208.788000", "094208.791000", "094208.793000", "094208.796000", "094208.798000", "094208.801000", "094208.803000", "094208.806000", "094208.809000", "094208.811000", "094248.763000", "094248.766000", "094248.768000", "094248.771000", "094248.773000", "094248.776000", "094248.778000", "094248.781000", "094248.783000", "094248.786000", "094248.789000", "094248.791000", "094248.794000", "094248.796000", "094248.799000", "094248.801000", "094248.804000", "094248.806000", "094248.809000", "094248.811000", "094328.763000", "094328.766000", "094328.769000", "094328.771000", "094328.774000", "094328.776000", "094328.779000", "094328.781000", "094328.784000", "094328.786000", "094328.789000", "094328.791000", "094328.794000", "094328.796000", "094328.799000", "094328.801000", "094328.804000", "094328.806000", "094328.809000", "094328.811000", "094408.763000", "094408.766000", "094408.769000", "094408.771000", "094408.774000", "094408.776000", "094408.779000", "094408.781000", "094408.784000", "094408.786000", "094408.789000", "094408.791000", "094408.794000", "094408.796000", "094408.799000", "094408.801000", "094408.804000", "094408.806000", "094408.809000", "094408.811000", "094431.043000", "094431.046000", "094431.049000", "094431.051000", "094431.054000", "094431.056000", "094431.059000", "094431.062000", "094431.064000", "094431.067000", "094431.069000", "094431.072000"],
      "InstanceNumber": [1, 2, 3, 4, 5, 6, 7, 8, 9, 10, 11, 12, 13, 14, 15, 16, 17, 18, 19, 20, 21, 22, 23, 24, 25, 26, 27, 28, 29, 30, 31, 32, 33, 34, 35, 36, 37, 38, 39, 40, 41, 42, 43, 44, 45, 46, 47, 48, 49, 50, 51, 52, 53, 54, 55, 56, 57, 58, 59, 60, 61, 62, 63, 64, 65, 66, 67, 68, 69, 70, 71, 72, 73, 74, 75, 76, 77, 78, 79, 80, 81, 82, 83, 84, 85, 86, 87, 88, 89, 90, 91, 92, 93, 94, 95, 96, 97, 98, 99, 100, 101, 102, 103, 104, 105, 106, 107, 108, 109, 110, 111, 112, 113, 114, 115, 116, 117, 118, 119, 120, 121, 122, 123, 124, 125, 126, 127, 128, 129, 130, 131, 132, 133, 134, 135, 136, 137, 138, 139, 140, 141, 142, 143, 144, 145, 146, 147, 148, 149, 150, 151, 152, 153, 154, 155, 156, 157, 158, 159, 160, 161, 162, 163, 164, 165, 166, 167, 168, 169, 170, 171, 172, 173, 174, 175, 176, 177, 178, 179, 180, 181, 182, 183, 184, 185, 186, 187, 188, 189, 190, 191, 192, 193, 194, 195, 196, 197, 198, 199, 200],
      "LargestImagePixelValue": [2320, 2328, 2319, 2322, 2325, 2321, 2317, 2316, 2321, 2324, 2323, 2317, 2325, 2317, 2322, 2318, 2320, 2317, 2321, 2317, 2321, 2325, 2316, 2321, 2324, 2324, 2318, 2325, 2320, 2321, 2315, 2319, 2313, 2315, 2320, 2313, 2317, 2316, 2316, 2320, 2313, 2319, 2315, 2315, 2308, 2315, 2315, 2304, 2310, 2311, 2316, 2311, 2314, 2317, 2315, 2315, 2310, 2307, 2310, 2317, 2315, 2315, 2315, 2316, 2310, 2309, 2308, 2314, 2307, 2306, 2314, 2308, 2304, 2305, 2306, 2304, 2311, 2304, 2316, 2315, 2312, 2305, 2307, 2310, 2310, 2309, 2310, 2309, 2305, 2311, 2312, 2313, 2310, 2308, 2313, 2310, 2309, 2313, 2312, 2316, 2310, 2312, 2307, 2313, 2312, 2310, 2316, 2313, 2306, 2309, 2313, 2310, 2317, 2310, 2311, 2313, 2306, 2311, 2317, 2313, 2314, 2307, 2303, 2309, 2306, 2309, 2307, 2307, 2309, 2312, 2309, 2310, 2307, 2308, 2310, 2306, 2305, 2305, 2311, 2307, 2300, 2301, 2310, 2300, 2300, 2306, 2302, 2301, 2304, 2304, 2302, 2307, 2298, 2305, 2307, 2306, 2302, 2308, 2300, 2307, 2305, 2315, 2297, 2299, 2298, 2303, 2309, 2305, 2307, 2306, 2301, 2305, 2300, 2304, 2300, 2297, 2295, 2298, 2298, 2297, 2299, 2299, 2302, 2300, 2301, 2303, 2299, 2305, 2300, 2299, 2296, 2300, 2307, 2302, 2299, 2299, 2301, 2306, 2303, 2292],
      "WindowCenter": [1040.0, 1040.0, 1040.0, 1040.0, 1040.0, 1040.0, 1040.0, 1040.0, 1040.0, 1040.0, 1040.0, 1040.0, 1040.0, 1040.0, 1040.0, 1040.0, 1040.0, 1040.0, 1040.0, 1040.0, 1040.0, 1040.0, 1040.0, 1040.0, 1040.0, 1040.0, 1040.0, 1040.0, 1040.0, 1040.0, 1040.0, 1040.0, 1040.0, 1040.0, 1040.0, 1040.0, 1040.0, 1040.0, 1040.0, 1040.0, 1040.0, 1040.0, 1040.0, 1040.0, 1040.0, 1041.0, 1040.0, 1040.0, 1040.0, 1040.0, 1040.0, 1040.0, 1040.0, 1040.0, 1040.0, 1040.0, 1040.0, 1040.0, 1040.0, 1040.0, 1040.0, 1040.0, 1040.0, 1040.0, 1040.0, 1040.0, 1040.0, 1040.0, 1040.0, 1040.0, 1040.0, 1040.0, 1040.0, 1040.0, 1040.0, 1040.0, 1040.0, 1040.0, 1040.0, 1040.0, 1040.0, 1040.0, 1040.0, 1040.0, 1040.0, 1040.0, 1040.0, 1040.0, 1040.0, 1039.0, 1040.0, 1039.0, 1039.0, 1039.0, 1039.0, 1039.0, 1039.0, 1040.0, 1039.0, 1039.0, 1039.0, 1039.0, 1039.0, 1039.0, 1039.0, 1039.0, 1039.0, 1039.0, 1039.0, 1039.0, 1039.0, 1039.0, 1039.0, 1039.0, 1039.0, 1039.0, 1039.0, 1039.0, 1039.0, 1039.0, 1039.0, 1039.0, 1039.0, 1039.0, 1039.0, 1039.0, 1039.0, 1039.0, 1039.0, 1039.0, 1039.0, 1039.0, 1039.0, 1039.0, 1039.0, 1039.0, 1039.0, 1039.0, 1039.0, 1039.0, 1039.0, 1039.0, 1039.0, 1039.0, 1039.0, 1039.0, 1039.0, 1039.0, 1039.0, 1039.0, 1039.0, 1039.0, 1039.0, 1039.0, 1039.0, 1039.0, 1039.0, 1039.0, 1039.0, 1039.0, 1039.0, 1039.0, 1039.0, 1039.0, 1039.0, 1039.0, 1039.0, 1039.0, 1039.0, 1039.0, 1039.0, 1039.0, 1039.0, 1039.0, 1039.0, 1039.0, 1039.0, 1039.0, 1039.0, 1039.0, 1039.0, 1039.0, 1039.0, 1039.0, 1039.0, 1039.0, 1039.0, 1039.0, 1039.0, 1039.0, 1039.0, 1039.0, 1039.0, 1039.0, 1039.0, 1039.0, 1039.0, 1039.0, 1039.0, 1039.0],
      "WindowWidth": [2309.0, 2309.0, 2309.0, 2309.0, 2309.0, 2309.0, 2308.0, 2308.0, 2309.0, 2309.0, 2309.0, 2309.0, 2309.0, 2309.0, 2309.0, 2309.0, 2309.0, 2309.0, 2309.0, 2309.0, 2309.0, 2309.0, 2309.0, 2309.0, 2309.0, 2309.0, 2309.0, 2309.0, 2309.0, 2309.0, 2309.0, 2309.0, 2309.0, 2309.0, 2309.0, 2309.0, 2309.0, 2309.0, 2309.0, 2309.0, 2309.0, 2309.0, 2309.0, 2309.0, 2309.0, 2310.0, 2309.0, 2309.0, 2309.0, 2309.0, 2309.0, 2309.0, 2309.0, 2309.0, 2309.0, 2309.0, 2309.0, 2309.0, 2309.0, 2309.0, 2309.0, 2309.0, 2309.0, 2309.0, 2309.0, 2309.0, 2309.0, 2309.0, 2309.0, 2309.0, 2309.0, 2309.0, 2309.0, 2309.0, 2309.0, 2309.0, 2309.0, 2309.0, 2308.0, 2308.0, 2308.0, 2308.0, 2308.0, 2308.0, 2308.0, 2308.0, 2308.0, 2308.0, 2308.0, 2308.0, 2308.0, 2308.0, 2308.0, 2308.0, 2308.0, 2308.0, 2308.0, 2307.0, 2308.0, 2308.0, 2308.0, 2308.0, 2308.0, 2308.0, 2308.0, 2308.0, 2308.0, 2308.0, 2308.0, 2308.0, 2308.0, 2308.0, 2308.0, 2308.0, 2308.0, 2308.0, 2308.0, 2308.0, 2308.0, 2308.0, 2308.0, 2308.0, 2308.0, 2308.0, 2308.0, 2308.0, 2308.0, 2308.0, 2308.0, 2308.0, 2308.0, 2308.0, 2308.0, 2308.0, 2308.0, 2308.0, 2308.0, 2308.0, 2308.0, 2308.0, 2308.0, 2308.0, 2308.0, 2308.0, 2308.0, 2308.0, 2308.0, 2308.0, 2308.0, 2308.0, 2308.0, 2308.0, 2308.0, 2308.0, 2308.0, 2308.0, 2308.0, 2308.0, 2308.0, 2308.0, 2308.0, 2307.0, 2307.0, 2308.0, 2308.0, 2308.0, 2308.0, 2307.0, 2308.0, 2308.0, 2308.0, 2307.0, 2307.0, 2307.0, 2307.0, 2307.0, 2308.0, 2307.0, 2307.0, 2307.0, 2307.0, 2307.0, 2307.0, 2307.0, 2307.0, 2306.0, 2306.0, 2307.0, 2307.0, 2307.0, 2306.0, 2306.0, 2306.0, 2306.0, 2306.0, 2306.0, 2306.0, 2306.0, 2306.0, 2306.0]
    },
    "slices": {}
  }
}