{
  "AcquisitionMatrixPE": 80,
  "AcquisitionNumber": 1,
  "AcquisitionTime": "10:13:38.125000",
  "BandwidthPerPixelPhaseEncode": 44.643,
  "BaseResolution": 80,
  "BodyPartExamined": "BRAIN",
  "CoilCombinationMethod": "Sum of Squares",
  "ConsistencyInfo": "N4_VE11C_LATEST_20160120",
  "ConversionSoftware": "dcm2niix",
  "ConversionSoftwareVersion": "v1.0.20220720",
  "DerivedVendorReportedEchoSpacing": 0.000559998,
  "DeviceSerialNumber": "66112",
  "DwellTime": 2.7e-06,
  "EchoTime": 0.035,
  "EchoTrainLength": 39,
  "EffectiveEchoSpacing": 0.000279999,
  "FlipAngle": 90,
  "HeudiconvVersion": "0.13.1",
  "ImageOrientationPatientDICOM": [0.978369, -0.206868, 0.000475104, 0.197096, 0.932845, 0.301586],
  "ImageOrientationText": "Tra>Cor(17.2)>Sag(3.6)",
  "ImageType": [
    "ORIGINAL",
    "PRIMARY",
    "M",
    "ND",
    "NORM",
    "MOSAIC"
],
  "ImagingFrequency": 123.252,
  "InPlanePhaseEncodingDirectionDICOM": "COL",
  "InstitutionAddress": "Maynard 3,Hanover,NH,US,03755",
  "InstitutionName": "Dartmouth College - PBS",
  "InstitutionalDepartmentName": "Department",
  "MRAcquisitionType": "2D",
  "MagneticFieldStrength": 3,
  "Manufacturer": "Siemens",
  "ManufacturersModelName": "Prisma",
  "Modality": "MR",
  "MultibandAccelerationFactor": 4,
  "NonlinearGradientCorrection": false,
  "ParallelReductionFactorInPlane": 2,
  "PartialFourier": 1,
  "PatientPosition": "HFS",
  "PercentPhaseFOV": 100,
  "PercentSampling": 100,
  "PhaseEncodingDirection": "j-",
  "PhaseEncodingSteps": 79,
  "PhaseResolution": 1,
  "PixelBandwidth": 2315,
  "ProcedureStepDescription": "dbic^QA",
  "ProtocolName": "func-bold_task-rest_acq-p2-s4-3.5mm",
  "PulseSequenceDetails": "%SiemensSeq%\\ep2d_bold",
  "ReceiveCoilActiveElements": "HEA;HEP",
  "ReceiveCoilName": "Head_32",
  "ReconMatrixPE": 80,
  "RefLinesPE": 24,
  "RepetitionTime": 2,
  "SAR": 0.0208836,
  "ScanOptions": "FS",
  "ScanningSequence": "EP",
  "SequenceName": "*epfid2d1_80",
  "SequenceVariant": "SK",
  "SeriesDescription": "func-bold_task-rest_acq-p2-s4-3.5mm",
  "SeriesNumber": 7,
  "ShimSetting": [4157, -7700, -7515, 297, -48, -22, -27, 111],
  "SliceThickness": 3.5,
  "SliceTiming": [1.485, 0, 0.99, 0.2475, 1.2375, 0.7425, 1.7325, 0.495, 1.485, 0, 0.99, 0.2475, 1.2375, 0.7425, 1.7325, 0.495, 1.485, 0, 0.99, 0.2475, 1.2375, 0.7425, 1.7325, 0.495, 1.485, 0, 0.99, 0.2475, 1.2375, 0.7425, 1.7325, 0.495],
  "SoftwareVersions": "syngo MR E11",
  "SpacingBetweenSlices": 3.99,
  "StationName": "AWP66112",
  "TaskName": "rest",
  "TotalReadoutTime": 0.0221199,
  "TxRefAmp": 230.154,
  "dcmmeta_affine": [
    [-2.935106039047241, 0.5912880301475525, 0.2506985366344452, 83.55359649658203],
    [0.6206045150756836, 2.7985339164733887, 1.176924467086792, -144.89111328125],
    [0.0014253120170906186, -0.9047576189041138, 3.8042211532592773, -27.519777297973633],
    [0.0, 0.0, 0.0, 1.0]
],
  "dcmmeta_reorient_transform": [
    [0.0, -1.0, 0.0, 79.0],
    [1.0, 0.0, 0.0, 0.0],
    [0.0, 0.0, 1.0, 0.0],
    [0.0, 0.0, 0.0, 1.0]
],
  "dcmmeta_shape": [80, 80, 32, 200],
  "dcmmeta_slice_dim": 2,
  "dcmmeta_version": 0.6,
  "global": {
    "const": {
      "AccessionNumber": "qa",
      "AcquisitionMatrix": [80, 0, 0, 80],
      "AngioFlag": "N",
      "BitsAllocated": 16,
      "BitsStored": 12,
      "BodyPartExamined": "BRAIN",
      "Columns": 480,
      "EchoNumbers": 1,
      "EchoTime": 35.0,
      "EchoTrainLength": 39,
      "FlipAngle": 90.0,
      "HighBit": 11,
      "ImageOrientationPatient": [0.97836871170813, -0.2068681662962, 0.00047510401806, 0.19709601665462, 0.93284464211414, 0.30158586488398],
      "ImagePositionPatient": [-835.54418770365, -511.77895980572, -280.23220769858],
      "ImageType": [
        "ORIGINAL",
        "PRIMARY",
        "M",
        "ND",
        "NORM",
        "MOSAIC"
],
      "ImagedNucleus": "1H",
      "ImagingFrequency": 123.252468,
      "InPlanePhaseEncodingDirection": "COL",
      "MRAcquisitionType": "2D",
      "MagneticFieldStrength": 3.0,
      "Manufacturer": "SIEMENS",
      "ManufacturerModelName": "Prisma",
      "Modality": "MR",
      "NumberOfAverages": 1.0,
      "NumberOfPhaseEncodingSteps": 79,
      "PercentPhaseFieldOfView": 100.0,
      "PercentSampling": 100.0,
      "PerformedProcedureStepStartTime": "100300.257000",
      "PhotometricInterpretation": "MONOCHROME2",
      "PixelBandwidth": 2315.0,
      "PixelRepresentation": 0,
      "PixelSpacing": [3.0, 3.0],
      "ProtocolName": "func-bold_task-rest_acq-p2-s4-3.5mm",
      "RepetitionTime": 2000.0,
      "Rows": 480,
      "SAR": 0.02088363457561,
      "SamplesPerPixel": 1,
      "ScanOptions": "FS",
      "ScanningSequence": "EP",
      "SequenceName": "*epfid2d1_80",
      "SequenceVariant": "SK",
      "SeriesDescription": "func-bold_task-rest_acq-p2-s4-3.5mm",
      "SeriesNumber": 7,
      "SeriesTime": "101435.199000",
      "SliceLocation": -63.726926830645,
      "SliceThickness": 3.5,
      "SmallestImagePixelValue": 0,
      "SoftwareVersions": "syngo MR E11",
      "SpacingBetweenSlices": 3.9900000381121,
      "SpecificCharacterSet": "ISO_IR 100",
      "StudyID": "102",
      "StudyTime": "100300.112000",
      "TransmitCoilName": "Body",
      "VariableFlipAngleFlag": "N",
      "WindowCenter": 933.0,
      "WindowCenterWidthExplanation": "Algo1",
      "dBdt": 0.0},
    "slices": {}
  },
  "time": {
    "samples": {
      "AcquisitionNumber": [1, 2, 3, 4, 5, 6, 7, 8, 9, 10, 11, 12, 13, 14, 15, 16, 17, 18, 19, 20, 21, 22, 23, 24, 25, 26, 27, 28, 29, 30, 31, 32, 33, 34, 35, 36, 37, 38, 39, 40, 41, 42, 43, 44, 45, 46, 47, 48, 49, 50, 51, 52, 53, 54, 55, 56, 57, 58, 59, 60, 61, 62, 63, 64, 65, 66, 67, 68, 69, 70, 71, 72, 73, 74, 75, 76, 77, 78, 79, 80, 81, 82, 83, 84, 85, 86, 87, 88, 89, 90, 91, 92, 93, 94, 95, 96, 97, 98, 99, 100, 101, 102, 103, 104, 105, 106, 107, 108, 109, 110, 111, 112, 113, 114, 115, 116, 117, 118, 119, 120, 121, 122, 123, 124, 125, 126, 127, 128, 129, 130, 131, 132, 133, 134, 135, 136, 137, 138, 139, 140, 141, 142, 143, 144, 145, 146, 147, 148, 149, 150, 151, 152, 153, 154, 155, 156, 157, 158, 159, 160, 161, 162, 163, 164, 165, 166, 167, 168, 169, 170, 171, 172, 173, 174, 175, 176, 177, 178, 179, 180, 181, 182, 183, 184, 185, 186, 187, 188, 189, 190, 191, 192, 193, 194, 195, 196, 197, 198, 199, 200],
      "AcquisitionTime": ["101338.125000", "101340.125000", "101342.125000", "101344.125000", "101346.125000", "101348.125000", "101350.125000", "101352.125000", "101354.125000", "101356.125000", "101358.125000", "101400.125000", "101402.125000", "101404.125000", "101406.125000", "101408.125000", "101410.125000", "101412.125000", "101414.125000", "101416.125000", "101418.125000", "101420.125000", "101422.125000", "101424.125000", "101426.125000", "101428.125000", "101430.125000", "101432.125000", "101434.125000", "101436.125000", "101438.125000", "101440.125000", "101442.125000", "101444.125000", "101446.125000", "101448.125000", "101450.125000", "101452.125000", "101454.125000", "101456.125000", "101458.125000", "101500.125000", "101502.125000", "101504.125000", "101506.125000", "101508.125000", "101510.125000", "101512.125000", "101514.125000", "101516.125000", "101518.125000", "101520.125000", "101522.125000", "101524.125000", "101526.125000", "101528.125000", "101530.125000", "101532.125000", "101534.125000", "101536.125000", "101538.125000", "101540.125000", "101542.125000", "101544.125000", "101546.125000", "101548.125000", "101550.125000", "101552.125000", "101554.125000", "101556.125000", "101558.125000", "101600.125000", "101602.125000", "101604.125000", "101606.125000", "101608.125000", "101610.125000", "101612.125000", "101614.125000", "101616.125000", "101618.125000", "101620.125000", "101622.125000", "101624.125000", "101626.125000", "101628.125000", "101630.125000", "101632.125000", "101634.125000", "101636.125000", "101638.125000", "101640.125000", "101642.125000", "101644.125000", "101646.125000", "101648.125000", "101650.125000", "101652.125000", "101654.125000", "101656.125000", "101658.125000", "101700.125000", "101702.125000", "101704.125000", "101706.125000", "101708.125000", "101710.125000", "101712.125000", "101714.125000", "101716.125000", "101718.125000", "101720.125000", "101722.125000", "101724.125000", "101726.125000", "101728.125000", "101730.125000", "101732.125000", "101734.125000", "101736.125000", "101738.125000", "101740.125000", "101742.125000", "101744.125000", "101746.125000", "101748.125000", "101750.125000", "101752.125000", "101754.125000", "101756.125000", "101758.125000", "101800.125000", "101802.125000", "101804.125000", "101806.125000", "101808.125000", "101810.125000", "101812.125000", "101814.125000", "101816.125000", "101818.125000", "101820.125000", "101822.125000", "101824.125000", "101826.125000", "101828.125000", "101830.125000", "101832.125000", "101834.125000", "101836.125000", "101838.125000", "101840.125000", "101842.125000", "101844.125000", "101846.125000", "101848.125000", "101850.125000", "101852.125000", "101854.125000", "101856.125000", "101858.125000", "101900.125000", "101902.125000", "101904.125000", "101906.125000", "101908.125000", "101910.125000", "101912.125000", "101914.125000", "101916.125000", "101918.125000", "101920.125000", "101922.125000", "101924.125000", "101926.125000", "101928.125000", "101930.125000", "101932.125000", "101934.125000", "101936.125000", "101938.125000", "101940.125000", "101942.125000", "101944.125000", "101946.125000", "101948.125000", "101950.125000", "101952.125000", "101954.125000", "101956.125000", "101958.125000", "102000.125000", "102002.125000", "102004.125000", "102006.125000", "102008.125000", "102010.125000", "102012.125000", "102014.125000", "102016.125000"],
      "ContentTime": ["101435.202000", "101435.206000", "101435.208000", "101435.211000", "101435.220000", "101435.232000", "101435.235000", "101435.238000", "101435.240000", "101435.242000", "101435.245000", "101435.247000", "101435.250000", "101435.252000", "101435.255000", "101435.258000", "101435.260000", "101435.263000", "101435.265000", "101435.268000", "101435.270000", "101435.273000", "101435.275000", "101435.278000", "101435.280000", "101435.283000", "101435.285000", "101435.288000", "101435.290000", "101515.198000", "101515.200000", "101515.203000", "101515.205000", "101515.208000", "101515.211000", "101515.220000", "101515.222000", "101515.225000", "101515.227000", "101515.230000", "101515.232000", "101515.235000", "101515.237000", "101515.240000", "101515.242000", "101515.245000", "101515.247000", "101515.250000", "101515.252000", "101555.198000", "101555.201000", "101555.204000", "101555.206000", "101555.209000", "101555.211000", "101555.214000", "101555.216000", "101555.219000", "101555.221000", "101555.224000", "101555.226000", "101555.229000", "101555.231000", "101555.234000", "101555.236000", "101555.239000", "101555.241000", "101555.244000", "101555.246000", "101635.197000", "101635.200000", "101635.203000", "101635.205000", "101635.208000", "101635.210000", "101635.213000", "101635.215000", "101635.218000", "101635.220000", "101635.223000", "101635.225000", "101635.228000", "101635.230000", "101635.233000", "101635.235000", "101635.238000", "101635.240000", "101635.243000", "101635.245000", "101715.197000", "101715.200000", "101715.203000", "101715.205000", "101715.208000", "101715.210000", "101715.213000", "101715.215000", "101715.218000", "101715.220000", "101715.223000", "101715.225000", "101715.228000", "101715.231000", "101715.233000", "101715.236000", "101715.238000", "101715.241000", "101715.243000", "101715.246000", "101755.197000", "101755.200000", "101755.203000", "101755.205000", "101755.208000", "101755.210000", "101755.213000", "101755.215000", "101755.218000", "101755.220000", "101755.223000", "101755.225000", "101755.228000", "101755.230000", "101755.233000", "101755.235000", "101755.238000", "101755.241000", "101755.243000", "101755.246000", "101835.198000", "101835.201000", "101835.204000", "101835.206000", "101835.209000", "101835.211000", "101835.214000", "101835.217000", "101835.219000", "101835.222000", "101835.224000", "101835.227000", "101835.229000", "101835.232000", "101835.234000", "101835.237000", "101835.239000", "101835.242000", "101835.244000", "101835.247000", "101915.197000", "101915.200000", "101915.203000", "101915.205000", "101915.208000", "101915.210000", "101915.213000", "101915.215000", "101915.218000", "101915.220000", "101915.223000", "101915.225000", "101915.228000", "101915.231000", "101915.233000", "101915.236000", "101915.238000", "101915.251000", "101915.253000", "101915.256000", "101955.197000", "101955.200000", "101955.203000", "101955.205000", "101955.208000", "101955.210000", "101955.213000", "101955.215000", "101955.218000", "101955.220000", "101955.223000", "101955.225000", "101955.228000", "101955.230000", "101955.270000", "101955.273000", "101955.275000", "101955.278000", "101955.280000", "101955.283000", "102015.198000", "102015.200000", "102015.203000", "102015.206000", "102015.208000", "102015.211000", "102015.213000", "102015.216000", "102015.218000", "102015.221000", "102016.882000"],
      "InstanceCreationTime": ["101435.202000", "101435.206000", "101435.208000", "101435.211000", "101435.220000", "101435.232000", "101435.235000", "101435.238000", "101435.240000", "101435.242000", "101435.245000", "101435.247000", "101435.250000", "101435.252000", "101435.255000", "101435.258000", "101435.260000", "101435.263000", "101435.265000", "101435.268000", "101435.270000", "101435.273000", "101435.275000", "101435.278000", "101435.280000", "101435.283000", "101435.285000", "101435.288000", "101435.290000", "101515.198000", "101515.200000", "101515.203000", "101515.205000", "101515.208000", "101515.211000", "101515.220000", "101515.222000", "101515.225000", "101515.227000", "101515.230000", "101515.232000", "101515.235000", "101515.237000", "101515.240000", "101515.242000", "101515.245000", "101515.247000", "101515.250000", "101515.252000", "101555.198000", "101555.201000", "101555.204000", "101555.206000", "101555.209000", "101555.211000", "101555.214000", "101555.216000", "101555.219000", "101555.221000", "101555.224000", "101555.226000", "101555.229000", "101555.231000", "101555.234000", "101555.236000", "101555.239000", "101555.241000", "101555.244000", "101555.246000", "101635.197000", "101635.200000", "101635.203000", "101635.205000", "101635.208000", "101635.210000", "101635.213000", "101635.215000", "101635.218000", "101635.220000", "101635.223000", "101635.225000", "101635.228000", "101635.230000", "101635.233000", "101635.235000", "101635.238000", "101635.240000", "101635.243000", "101635.245000", "101715.197000", "101715.200000", "101715.203000", "101715.205000", "101715.208000", "101715.210000", "101715.213000", "101715.215000", "101715.218000", "101715.220000", "101715.223000", "101715.225000", "101715.228000", "101715.231000", "101715.233000", "101715.236000", "101715.238000", "101715.241000", "101715.243000", "101715.246000", "101755.197000", "101755.200000", "101755.203000", "101755.205000", "101755.208000", "101755.210000", "101755.213000", "101755.215000", "101755.218000", "101755.220000", "101755.223000", "101755.225000", "101755.228000", "101755.230000", "101755.233000", "101755.235000", "101755.238000", "101755.241000", "101755.243000", "101755.246000", "101835.198000", "101835.201000", "101835.204000", "101835.206000", "101835.209000", "101835.211000", "101835.214000", "101835.217000", "101835.219000", "101835.222000", "101835.224000", "101835.227000", "101835.229000", "101835.232000", "101835.234000", "101835.237000", "101835.239000", "101835.242000", "101835.244000", "101835.247000", "101915.197000", "101915.200000", "101915.203000", "101915.205000", "101915.208000", "101915.210000", "101915.213000", "101915.215000", "101915.218000", "101915.220000", "101915.223000", "101915.225000", "101915.228000", "101915.231000", "101915.233000", "101915.236000", "101915.238000", "101915.251000", "101915.253000", "101915.256000", "101955.197000", "101955.200000", "101955.203000", "101955.205000", "101955.208000", "101955.210000", "101955.213000", "101955.215000", "101955.218000", "101955.220000", "101955.223000", "101955.225000", "101955.228000", "101955.230000", "101955.270000", "101955.273000", "101955.275000", "101955.278000", "101955.280000", "101955.283000", "102015.198000", "102015.200000", "102015.203000", "102015.206000", "102015.208000", "102015.211000", "102015.213000", "102015.216000", "102015.218000", "102015.221000", "102016.882000"],
      "InstanceNumber": [1, 2, 3, 4, 5, 6, 7, 8, 9, 10, 11, 12, 13, 14, 15, 16, 17, 18, 19, 20, 21, 22, 23, 24, 25, 26, 27, 28, 29, 30, 31, 32, 33, 34, 35, 36, 37, 38, 39, 40, 41, 42, 43, 44, 45, 46, 47, 48, 49, 50, 51, 52, 53, 54, 55, 56, 57, 58, 59, 60, 61, 62, 63, 64, 65, 66, 67, 68, 69, 70, 71, 72, 73, 74, 75, 76, 77, 78, 79, 80, 81, 82, 83, 84, 85, 86, 87, 88, 89, 90, 91, 92, 93, 94, 95, 96, 97, 98, 99, 100, 101, 102, 103, 104, 105, 106, 107, 108, 109, 110, 111, 112, 113, 114, 115, 116, 117, 118, 119, 120, 121, 122, 123, 124, 125, 126, 127, 128, 129, 130, 131, 132, 133, 134, 135, 136, 137, 138, 139, 140, 141, 142, 143, 144, 145, 146, 147, 148, 149, 150, 151, 152, 153, 154, 155, 156, 157, 158, 159, 160, 161, 162, 163, 164, 165, 166, 167, 168, 169, 170, 171, 172, 173, 174, 175, 176, 177, 178, 179, 180, 181, 182, 183, 184, 185, 186, 187, 188, 189, 190, 191, 192, 193, 194, 195, 196, 197, 198, 199, 200],
      "LargestImagePixelValue": [2204, 2206, 2200, 2201, 2196, 2207, 2197, 2198, 2203, 2205, 2203, 2200, 2195, 2210, 2191, 2202, 2200, 2198, 2201, 2209, 2202, 2202, 2202, 2199, 2201, 2196, 2202, 2205, 2207, 2199, 2204, 2205, 2207, 2203, 2199, 2203, 2200, 2198, 2200, 2204, 2202, 2205, 2199, 2201, 2206, 2207, 2204, 2198, 2205, 2205, 2202, 2198, 2198, 2203, 2205, 2207, 2197, 2198, 2198, 2200, 2201, 2198, 2200, 2204, 2207, 2207, 2204, 2207, 2194, 2200, 2201, 2205, 2203, 2201, 2201, 2198, 2199, 2206, 2199, 2197, 2202, 2201, 2202, 2198, 2200, 2204, 2205, 2199, 2203, 2203, 2199, 2202, 2201, 2203, 2198, 2203, 2201, 2204, 2203, 2203, 2207, 2197, 2199, 2201, 2204, 2202, 2195, 2204, 2198, 2196, 2200, 2196, 2204, 2198, 2200, 2201, 2202, 2194, 2198, 2201, 2198, 2201, 2204, 2206, 2202, 2198, 2198, 2206, 2206, 2206, 2201, 2206, 2199, 2200, 2200, 2201, 2200, 2202, 2206, 2201, 2196, 2201, 2203, 2202, 2197, 2199, 2202, 2204, 2204, 2202, 2199, 2195, 2199, 2199, 2207, 2197, 2203, 2202, 2195, 2198, 2201, 2206, 2204, 2200, 2200, 2200, 2204, 2200, 2198, 2207, 2199, 2202, 2203, 2197, 2200, 2208, 2204, 2204, 2198, 2195, 2199, 2202, 2199, 2200, 2200, 2199, 2203, 2202, 2202, 2203, 2198, 2203, 2196, 2203, 2207, 2205, 2202, 2200, 2204, 2199],
      "WindowWidth": [2135.0, 2134.0, 2135.0, 2134.0, 2135.0, 2135.0, 2135.0, 2135.0, 2135.0, 2135.0, 2135.0, 2135.0, 2135.0, 2135.0, 2135.0, 2135.0, 2135.0, 2135.0, 2135.0, 2135.0, 2135.0, 2135.0, 2135.0, 2135.0, 2135.0, 2135.0, 2135.0, 2135.0, 2135.0, 2135.0, 2135.0, 2135.0, 2135.0, 2135.0, 2135.0, 2135.0, 2135.0, 2135.0, 2135.0, 2135.0, 2135.0, 2135.0, 2135.0, 2135.0, 2135.0, 2135.0, 2135.0, 2135.0, 2135.0, 2135.0, 2135.0, 2135.0, 2135.0, 2135.0, 2135.0, 2135.0, 2135.0, 2135.0, 2135.0, 2135.0, 2135.0, 2135.0, 2135.0, 2135.0, 2135.0, 2135.0, 2135.0, 2135.0, 2135.0, 2135.0, 2135.0, 2135.0, 2135.0, 2135.0, 2136.0, 2135.0, 2135.0, 2135.0, 2135.0, 2135.0, 2135.0, 2135.0, 2135.0, 2135.0, 2135.0, 2135.0, 2136.0, 2135.0, 2135.0, 2135.0, 2135.0, 2135.0, 2135.0, 2135.0, 2135.0, 2135.0, 2135.0, 2135.0, 2135.0, 2135.0, 2135.0, 2135.0, 2135.0, 2135.0, 2135.0, 2135.0, 2135.0, 2135.0, 2135.0, 2135.0, 2135.0, 2136.0, 2135.0, 2135.0, 2135.0, 2135.0, 2135.0, 2135.0, 2135.0, 2135.0, 2135.0, 2135.0, 2135.0, 2135.0, 2135.0, 2135.0, 2135.0, 2135.0, 2135.0, 2135.0, 2135.0, 2135.0, 2136.0, 2135.0, 2135.0, 2135.0, 2135.0, 2135.0, 2135.0, 2135.0, 2135.0, 2135.0, 2135.0, 2135.0, 2135.0, 2135.0, 2135.0, 2135.0, 2135.0, 2135.0, 2135.0, 2135.0, 2135.0, 2135.0, 2135.0, 2135.0, 2135.0, 2135.0, 2135.0, 2135.0, 2135.0, 2135.0, 2135.0, 2135.0, 2136.0, 2135.0, 2136.0, 2135.0, 2135.0, 2135.0, 2135.0, 2135.0, 2135.0, 2135.0, 2135.0, 2135.0, 2135.0, 2135.0, 2135.0, 2135.0, 2135.0, 2135.0, 2136.0, 2135.0, 2135.0, 2135.0, 2135.0, 2135.0, 2135.0, 2135.0, 2135.0, 2135.0, 2135.0, 2135.0, 2135.0, 2135.0, 2135.0, 2135.0, 2135.0, 2135.0]
    },
    "slices": {}
  }
}