{
  "AccelFactPE": 2,
  "AcquisitionNumber": 1,
  "AcquisitionTime": "10:06:43.807500",
  "BandwidthPerPixelPhaseEncode": 48.077,
  "BodyPartExamined": "BRAIN",
  "ConversionSoftware": "dcm2niix",
  "ConversionSoftwareVersion": "v1.0.20170624 GCC6.3.0",
  "DeviceSerialNumber": "66112",
  "EchoTime": 0.035,
  "EchoTrainLength": 39,
  "EffectiveEchoSpacing": 0.00026,
  "FlipAngle": 90,
  "ImageType": [
    "ORIGINAL",
    "PRIMARY",
    "M",
    "ND",
    "NORM",
    "MOSAIC"
],
  "InstitutionAddress": "Maynard_3_Hanover_NH_US_03755",
  "InstitutionName": "Dartmouth_College_-_PBS",
  "MagneticFieldStrength": 3,
  "Manufacturer": "Siemens",
  "ManufacturersModelName": "Prisma",
  "PhaseEncodingDirection": "j-",
  "PhaseEncodingLines": 80,
  "ProcedureStepDescription": "dbic_QA",
  "ProtocolName": "func-bold_task-rest_acq-p2",
  "RepetitionTime": 2,
  "ScanningSequence": "EP",
  "SequenceName": "_epfid2d1_80",
  "SequenceVariant": "SK",
  "SeriesDescription": "func-bold_task-rest_acq-p2",
  "SliceTiming": [0.99, 0, 1.055, 0.065, 1.1225, 0.1325, 1.1875, 0.1975, 1.2525, 0.2625, 1.32, 0.33, 1.385, 0.395, 1.4525, 0.4625, 1.5175, 0.5275, 1.5825, 0.5925, 1.65, 0.66, 1.715, 0.725, 1.7825, 0.7925, 1.8475, 0.8575, 1.9125, 0.9225],
  "SoftwareVersions": "syngo_MR_E11",
  "TaskName": "rest",
  "TotalReadoutTime": 0.02002,
  "TrueEchoSpacing": 0.000519999,
  "dcmmeta_affine": [
    [-2.935106039047241, 0.5912880301475525, 0.2506985366344452, 83.80429077148438],
    [0.6206045150756836, 2.7985339164733887, 1.176924467086792, -143.7141876220703],
    [0.0014253120170906186, -0.9047576189041138, 3.8042211532592773, -23.71555519104004],
    [0.0, 0.0, 0.0, 1.0]
],
  "dcmmeta_reorient_transform": [
    [0.0, -1.0, 0.0, 79.0],
    [1.0, 0.0, 0.0, 0.0],
    [0.0, 0.0, 1.0, 0.0],
    [0.0, 0.0, 0.0, 1.0]
],
  "dcmmeta_shape": [80, 80, 30, 200],
  "dcmmeta_slice_dim": 2,
  "dcmmeta_version": 0.6,
  "global": {
    "const": {
      "AccessionNumber": "qa",
      "AcquisitionMatrix": [80, 0, 0, 80],
      "AngioFlag": "N",
      "BitsAllocated": 16,
      "BitsStored": 12,
      "BodyPartExamined": "BRAIN",
      "Columns": 480,
      "EchoNumbers": 1,
      "EchoTime": 35.0,
      "EchoTrainLength": 39,
      "FlipAngle": 90.0,
      "HighBit": 11,
      "ImageOrientationPatient": [0.97836871170813, -0.2068681662962, 0.00047510401806, 0.19709601665462, 0.93284464211414, 0.30158586488398],
      "ImagePositionPatient": [-835.79488674692, -512.95588451123, -276.42798559165],
      "ImageType": [
        "ORIGINAL",
        "PRIMARY",
        "M",
        "ND",
        "NORM",
        "MOSAIC"
],
      "ImagedNucleus": "1H",
      "ImagingFrequency": 123.252468,
      "InPlanePhaseEncodingDirection": "COL",
      "MRAcquisitionType": "2D",
      "MagneticFieldStrength": 3.0,
      "Manufacturer": "SIEMENS",
      "ManufacturerModelName": "Prisma",
      "Modality": "MR",
      "NumberOfAverages": 1.0,
      "NumberOfPhaseEncodingSteps": 79,
      "PercentPhaseFieldOfView": 100.0,
      "PercentSampling": 100.0,
      "PerformedProcedureStepStartTime": "100300.257000",
      "PhotometricInterpretation": "MONOCHROME2",
      "PixelBandwidth": 2315.0,
      "PixelRepresentation": 0,
      "PixelSpacing": [3.0, 3.0],
      "PositionReferenceIndicator": "",
      "ProtocolName": "func-bold_task-rest_acq-p2",
      "RepetitionTime": 2000.0,
      "Rows": 480,
      "SAR": 0.05553727628861,
      "SamplesPerPixel": 1,
      "ScanOptions": "FS",
      "ScanningSequence": "EP",
      "SequenceName": "*epfid2d1_80",
      "SequenceVariant": "SK",
      "SeriesDescription": "func-bold_task-rest_acq-p2",
      "SeriesNumber": 5,
      "SeriesTime": "100735.130000",
      "SliceLocation": -59.736925876809,
      "SliceThickness": 3.5,
      "SmallestImagePixelValue": 0,
      "SoftwareVersions": "syngo MR E11",
      "SpacingBetweenSlices": 3.9899999668083,
      "SpecificCharacterSet": "ISO_IR 100",
      "StudyID": "102",
      "StudyTime": "100300.112000",
      "TransmitCoilName": "Body",
      "VariableFlipAngleFlag": "N",
      "WindowCenterWidthExplanation": "Algo1",
      "dBdt": 0.0},
    "slices": {}
  },
  "time": {
    "samples": {
      "AcquisitionNumber": [1, 2, 3, 4, 5, 6, 7, 8, 9, 10, 11, 12, 13, 14, 15, 16, 17, 18, 19, 20, 21, 22, 23, 24, 25, 26, 27, 28, 29, 30, 31, 32, 33, 34, 35, 36, 37, 38, 39, 40, 41, 42, 43, 44, 45, 46, 47, 48, 49, 50, 51, 52, 53, 54, 55, 56, 57, 58, 59, 60, 61, 62, 63, 64, 65, 66, 67, 68, 69, 70, 71, 72, 73, 74, 75, 76, 77, 78, 79, 80, 81, 82, 83, 84, 85, 86, 87, 88, 89, 90, 91, 92, 93, 94, 95, 96, 97, 98, 99, 100, 101, 102, 103, 104, 105, 106, 107, 108, 109, 110, 111, 112, 113, 114, 115, 116, 117, 118, 119, 120, 121, 122, 123, 124, 125, 126, 127, 128, 129, 130, 131, 132, 133, 134, 135, 136, 137, 138, 139, 140, 141, 142, 143, 144, 145, 146, 147, 148, 149, 150, 151, 152, 153, 154, 155, 156, 157, 158, 159, 160, 161, 162, 163, 164, 165, 166, 167, 168, 169, 170, 171, 172, 173, 174, 175, 176, 177, 178, 179, 180, 181, 182, 183, 184, 185, 186, 187, 188, 189, 190, 191, 192, 193, 194, 195, 196, 197, 198, 199, 200],
      "AcquisitionTime": ["100643.807500", "100645.807500", "100647.807500", "100649.807500", "100651.807500", "100653.807500", "100655.807500", "100657.807500", "100659.807500", "100701.807500", "100703.807500", "100705.807500", "100707.807500", "100709.807500", "100711.807500", "100713.807500", "100715.807500", "100717.807500", "100719.807500", "100721.807500", "100723.807500", "100725.807500", "100727.807500", "100729.807500", "100731.807500", "100733.807500", "100735.807500", "100737.807500", "100739.807500", "100741.807500", "100743.807500", "100745.807500", "100747.807500", "100749.807500", "100751.807500", "100753.807500", "100755.807500", "100757.807500", "100759.807500", "100801.807500", "100803.807500", "100805.807500", "100807.807500", "100809.807500", "100811.807500", "100813.807500", "100815.807500", "100817.807500", "100819.807500", "100821.807500", "100823.807500", "100825.807500", "100827.807500", "100829.807500", "100831.807500", "100833.807500", "100835.807500", "100837.807500", "100839.807500", "100841.807500", "100843.807500", "100845.807500", "100847.807500", "100849.807500", "100851.807500", "100853.807500", "100855.807500", "100857.807500", "100859.807500", "100901.807500", "100903.807500", "100905.807500", "100907.807500", "100909.807500", "100911.807500", "100913.807500", "100915.807500", "100917.807500", "100919.807500", "100921.807500", "100923.807500", "100925.807500", "100927.807500", "100929.807500", "100931.807500", "100933.807500", "100935.807500", "100937.807500", "100939.807500", "100941.807500", "100943.807500", "100945.807500", "100947.807500", "100949.807500", "100951.807500", "100953.807500", "100955.807500", "100957.807500", "100959.807500", "101001.807500", "101003.807500", "101005.807500", "101007.807500", "101009.807500", "101011.807500", "101013.807500", "101015.807500", "101017.807500", "101019.807500", "101021.807500", "101023.807500", "101025.807500", "101027.807500", "101029.807500", "101031.807500", "101033.807500", "101035.807500", "101037.807500", "101039.807500", "101041.807500", "101043.807500", "101045.807500", "101047.807500", "101049.807500", "101051.807500", "101053.807500", "101055.807500", "101057.807500", "101059.807500", "101101.807500", "101103.807500", "101105.807500", "101107.807500", "101109.807500", "101111.807500", "101113.807500", "101115.807500", "101117.807500", "101119.807500", "101121.807500", "101123.807500", "101125.807500", "101127.807500", "101129.807500", "101131.807500", "101133.807500", "101135.807500", "101137.807500", "101139.807500", "101141.807500", "101143.807500", "101145.807500", "101147.807500", "101149.807500", "101151.807500", "101153.807500", "101155.807500", "101157.807500", "101159.807500", "101201.807500", "101203.807500", "101205.807500", "101207.807500", "101209.807500", "101211.807500", "101213.807500", "101215.807500", "101217.807500", "101219.807500", "101221.807500", "101223.807500", "101225.807500", "101227.807500", "101229.807500", "101231.807500", "101233.807500", "101235.807500", "101237.807500", "101239.807500", "101241.807500", "101243.807500", "101245.807500", "101247.807500", "101249.807500", "101251.807500", "101253.807500", "101255.807500", "101257.807500", "101259.807500", "101301.807500", "101303.807500", "101305.807500", "101307.807500", "101309.807500", "101311.807500", "101313.807500", "101315.807500", "101317.807500", "101319.807500", "101321.807500"],
      "ContentTime": ["100735.134000", "100735.137000", "100735.140000", "100735.142000", "100735.145000", "100735.147000", "100735.150000", "100735.158000", "100735.161000", "100735.163000", "100735.166000", "100735.168000", "100735.171000", "100735.174000", "100735.176000", "100735.179000", "100735.181000", "100735.184000", "100735.186000", "100735.189000", "100735.191000", "100735.194000", "100735.196000", "100735.199000", "100735.201000", "100735.204000", "100815.128000", "100815.140000", "100815.143000", "100815.145000", "100815.147000", "100815.150000", "100815.152000", "100815.155000", "100815.157000", "100815.160000", "100815.163000", "100815.165000", "100815.168000", "100815.170000", "100815.173000", "100815.175000", "100815.178000", "100815.180000", "100815.183000", "100815.185000", "100855.129000", "100855.132000", "100855.135000", "100855.137000", "100855.140000", "100855.142000", "100855.145000", "100855.147000", "100855.150000", "100855.152000", "100855.155000", "100855.157000", "100855.160000", "100855.162000", "100855.165000", "100855.167000", "100855.170000", "100855.173000", "100855.175000", "100855.178000", "100935.128000", "100935.131000", "100935.134000", "100935.136000", "100935.139000", "100935.141000", "100935.144000", "100935.146000", "100935.149000", "100935.151000", "100935.154000", "100935.156000", "100935.159000", "100935.161000", "100935.164000", "100935.166000", "100935.169000", "100935.171000", "100935.174000", "100935.176000", "101015.129000", "101015.131000", "101015.134000", "101015.136000", "101015.139000", "101015.141000", "101015.144000", "101015.146000", "101015.149000", "101015.151000", "101015.154000", "101015.156000", "101015.159000", "101015.161000", "101015.164000", "101015.166000", "101015.169000", "101015.171000", "101015.174000", "101015.176000", "101055.128000", "101055.131000", "101055.134000", "101055.136000", "101055.139000", "101055.141000", "101055.144000", "101055.146000", "101055.149000", "101055.151000", "101055.154000", "101055.156000", "101055.159000", "101055.161000", "101055.164000", "101055.166000", "101055.169000", "101055.171000", "101055.174000", "101055.177000", "101135.129000", "101135.132000", "101135.135000", "101135.137000", "101135.140000", "101135.142000", "101135.145000", "101135.147000", "101135.150000", "101135.152000", "101135.155000", "101135.157000", "101135.160000", "101135.162000", "101135.165000", "101135.167000", "101135.170000", "101135.172000", "101135.175000", "101135.177000", "101215.129000", "101215.131000", "101215.134000", "101215.136000", "101215.139000", "101215.142000", "101215.144000", "101215.147000", "101215.149000", "101215.152000", "101215.154000", "101215.157000", "101215.159000", "101215.162000", "101215.164000", "101215.167000", "101215.169000", "101215.172000", "101215.174000", "101215.177000", "101255.128000", "101255.131000", "101255.134000", "101255.136000", "101255.139000", "101255.141000", "101255.144000", "101255.147000", "101255.149000", "101255.152000", "101255.154000", "101255.157000", "101255.159000", "101255.162000", "101255.164000", "101255.167000", "101255.169000", "101255.172000", "101255.174000", "101255.177000", "101322.883000", "101322.885000", "101322.888000", "101322.891000", "101322.893000", "101322.896000", "101322.898000", "101322.901000", "101322.903000", "101322.906000", "101322.909000", "101322.913000", "101322.919000", "101322.925000"],
      "InstanceCreationTime": ["100735.134000", "100735.137000", "100735.140000", "100735.142000", "100735.145000", "100735.147000", "100735.150000", "100735.158000", "100735.161000", "100735.163000", "100735.166000", "100735.168000", "100735.171000", "100735.174000", "100735.176000", "100735.179000", "100735.181000", "100735.184000", "100735.186000", "100735.189000", "100735.191000", "100735.194000", "100735.196000", "100735.199000", "100735.201000", "100735.204000", "100815.128000", "100815.140000", "100815.143000", "100815.145000", "100815.147000", "100815.150000", "100815.152000", "100815.155000", "100815.157000", "100815.160000", "100815.163000", "100815.165000", "100815.168000", "100815.170000", "100815.173000", "100815.175000", "100815.178000", "100815.180000", "100815.183000", "100815.185000", "100855.129000", "100855.132000", "100855.135000", "100855.137000", "100855.140000", "100855.142000", "100855.145000", "100855.147000", "100855.150000", "100855.152000", "100855.155000", "100855.157000", "100855.160000", "100855.162000", "100855.165000", "100855.167000", "100855.170000", "100855.173000", "100855.175000", "100855.178000", "100935.128000", "100935.131000", "100935.134000", "100935.136000", "100935.139000", "100935.141000", "100935.144000", "100935.146000", "100935.149000", "100935.151000", "100935.154000", "100935.156000", "100935.159000", "100935.161000", "100935.164000", "100935.166000", "100935.169000", "100935.171000", "100935.174000", "100935.176000", "101015.129000", "101015.131000", "101015.134000", "101015.136000", "101015.139000", "101015.141000", "101015.144000", "101015.146000", "101015.149000", "101015.151000", "101015.154000", "101015.156000", "101015.159000", "101015.161000", "101015.164000", "101015.166000", "101015.169000", "101015.171000", "101015.174000", "101015.176000", "101055.128000", "101055.131000", "101055.134000", "101055.136000", "101055.139000", "101055.141000", "101055.144000", "101055.146000", "101055.149000", "101055.151000", "101055.154000", "101055.156000", "101055.159000", "101055.161000", "101055.164000", "101055.166000", "101055.169000", "101055.171000", "101055.174000", "101055.177000", "101135.129000", "101135.132000", "101135.135000", "101135.137000", "101135.140000", "101135.142000", "101135.145000", "101135.147000", "101135.150000", "101135.152000", "101135.155000", "101135.157000", "101135.160000", "101135.162000", "101135.165000", "101135.167000", "101135.170000", "101135.172000", "101135.175000", "101135.177000", "101215.129000", "101215.131000", "101215.134000", "101215.136000", "101215.139000", "101215.142000", "101215.144000", "101215.147000", "101215.149000", "101215.152000", "101215.154000", "101215.157000", "101215.159000", "101215.162000", "101215.164000", "101215.167000", "101215.169000", "101215.172000", "101215.174000", "101215.177000", "101255.128000", "101255.131000", "101255.134000", "101255.136000", "101255.139000", "101255.141000", "101255.144000", "101255.147000", "101255.149000", "101255.152000", "101255.154000", "101255.157000", "101255.159000", "101255.162000", "101255.164000", "101255.167000", "101255.169000", "101255.172000", "101255.174000", "101255.177000", "101322.883000", "101322.885000", "101322.888000", "101322.891000", "101322.893000", "101322.896000", "101322.898000", "101322.901000", "101322.903000", "101322.906000", "101322.909000", "101322.913000", "101322.919000", "101322.925000"],
      "InstanceNumber": [1, 2, 3, 4, 5, 6, 7, 8, 9, 10, 11, 12, 13, 14, 15, 16, 17, 18, 19, 20, 21, 22, 23, 24, 25, 26, 27, 28, 29, 30, 31, 32, 33, 34, 35, 36, 37, 38, 39, 40, 41, 42, 43, 44, 45, 46, 47, 48, 49, 50, 51, 52, 53, 54, 55, 56, 57, 58, 59, 60, 61, 62, 63, 64, 65, 66, 67, 68, 69, 70, 71, 72, 73, 74, 75, 76, 77, 78, 79, 80, 81, 82, 83, 84, 85, 86, 87, 88, 89, 90, 91, 92, 93, 94, 95, 96, 97, 98, 99, 100, 101, 102, 103, 104, 105, 106, 107, 108, 109, 110, 111, 112, 113, 114, 115, 116, 117, 118, 119, 120, 121, 122, 123, 124, 125, 126, 127, 128, 129, 130, 131, 132, 133, 134, 135, 136, 137, 138, 139, 140, 141, 142, 143, 144, 145, 146, 147, 148, 149, 150, 151, 152, 153, 154, 155, 156, 157, 158, 159, 160, 161, 162, 163, 164, 165, 166, 167, 168, 169, 170, 171, 172, 173, 174, 175, 176, 177, 178, 179, 180, 181, 182, 183, 184, 185, 186, 187, 188, 189, 190, 191, 192, 193, 194, 195, 196, 197, 198, 199, 200],
      "LargestImagePixelValue": [2186, 2186, 2188, 2190, 2190, 2191, 2186, 2191, 2186, 2187, 2193, 2189, 2189, 2185, 2190, 2189, 2182, 2185, 2191, 2185, 2188, 2190, 2183, 2186, 2190, 2193, 2192, 2188, 2186, 2186, 2193, 2190, 2191, 2184, 2188, 2185, 2191, 2189, 2193, 2194, 2187, 2190, 2187, 2195, 2185, 2184, 2187, 2193, 2190, 2186, 2194, 2189, 2187, 2188, 2196, 2184, 2190, 2189, 2185, 2188, 2184, 2184, 2189, 2182, 2192, 2193, 2185, 2186, 2190, 2193, 2191, 2190, 2192, 2191, 2187, 2187, 2190, 2184, 2190, 2185, 2187, 2188, 2189, 2186, 2189, 2196, 2184, 2192, 2188, 2187, 2189, 2189, 2191, 2189, 2187, 2191, 2187, 2187, 2186, 2185, 2183, 2188, 2190, 2191, 2186, 2189, 2187, 2184, 2187, 2190, 2196, 2188, 2187, 2199, 2188, 2200, 2187, 2191, 2195, 2189, 2190, 2190, 2193, 2182, 2194, 2187, 2185, 2194, 2192, 2188, 2185, 2185, 2190, 2195, 2190, 2188, 2190, 2190, 2188, 2193, 2195, 2190, 2190, 2191, 2194, 2192, 2191, 2188, 2190, 2189, 2183, 2196, 2188, 2188, 2184, 2194, 2183, 2186, 2187, 2192, 2184, 2188, 2181, 2187, 2189, 2190, 2190, 2191, 2186, 2192, 2188, 2191, 2185, 2193, 2189, 2193, 2192, 2189, 2186, 2190, 2198, 2190, 2192, 2189, 2188, 2190, 2190, 2184, 2195, 2194, 2187, 2190, 2182, 2192, 2183, 2187, 2186, 2191, 2190, 2184],
      "WindowCenter": [1003.0, 1003.0, 1004.0, 1003.0, 1003.0, 1003.0, 1003.0, 1003.0, 1003.0, 1003.0, 1003.0, 1003.0, 1003.0, 1003.0, 1003.0, 1003.0, 1003.0, 1003.0, 1003.0, 1003.0, 1003.0, 1003.0, 1003.0, 1003.0, 1003.0, 1003.0, 1003.0, 1003.0, 1003.0, 1003.0, 1003.0, 1003.0, 1003.0, 1004.0, 1003.0, 1003.0, 1003.0, 1003.0, 1004.0, 1003.0, 1003.0, 1003.0, 1003.0, 1003.0, 1003.0, 1003.0, 1003.0, 1003.0, 1003.0, 1003.0, 1003.0, 1003.0, 1003.0, 1003.0, 1003.0, 1003.0, 1003.0, 1003.0, 1003.0, 1002.0, 1002.0, 1002.0, 1002.0, 1002.0, 1002.0, 1003.0, 1002.0, 1002.0, 1002.0, 1002.0, 1002.0, 1002.0, 1002.0, 1002.0, 1002.0, 1002.0, 1002.0, 1002.0, 1002.0, 1002.0, 1002.0, 1002.0, 1002.0, 1002.0, 1002.0, 1002.0, 1002.0, 1002.0, 1002.0, 1002.0, 1002.0, 1002.0, 1002.0, 1002.0, 1002.0, 1002.0, 1002.0, 1002.0, 1002.0, 1002.0, 1002.0, 1002.0, 1002.0, 1002.0, 1002.0, 1002.0, 1002.0, 1002.0, 1002.0, 1002.0, 1002.0, 1002.0, 1002.0, 1003.0, 1002.0, 1002.0, 1002.0, 1002.0, 1002.0, 1002.0, 1002.0, 1002.0, 1002.0, 1002.0, 1002.0, 1002.0, 1002.0, 1002.0, 1002.0, 1002.0, 1002.0, 1002.0, 1002.0, 1002.0, 1002.0, 1002.0, 1002.0, 1002.0, 1002.0, 1002.0, 1002.0, 1002.0, 1002.0, 1002.0, 1002.0, 1002.0, 1002.0, 1002.0, 1002.0, 1002.0, 1002.0, 1002.0, 1002.0, 1002.0, 1002.0, 1002.0, 1002.0, 1002.0, 1002.0, 1002.0, 1002.0, 1002.0, 1002.0, 1002.0, 1002.0, 1002.0, 1002.0, 1002.0, 1002.0, 1002.0, 1002.0, 1002.0, 1002.0, 1002.0, 1002.0, 1002.0, 1002.0, 1002.0, 1002.0, 1002.0, 1002.0, 1002.0, 1002.0, 1002.0, 1002.0, 1002.0, 1002.0, 1002.0, 1002.0, 1002.0, 1002.0, 1002.0, 1002.0, 1001.0, 1002.0, 1002.0, 1001.0, 1001.0, 1002.0, 1001.0],
      "WindowWidth": [2201.0, 2201.0, 2202.0, 2201.0, 2201.0, 2201.0, 2200.0, 2201.0, 2201.0, 2200.0, 2201.0, 2200.0, 2200.0, 2200.0, 2200.0, 2200.0, 2200.0, 2200.0, 2200.0, 2201.0, 2200.0, 2200.0, 2200.0, 2200.0, 2200.0, 2200.0, 2200.0, 2200.0, 2200.0, 2200.0, 2200.0, 2200.0, 2200.0, 2201.0, 2200.0, 2200.0, 2200.0, 2200.0, 2201.0, 2200.0, 2200.0, 2200.0, 2200.0, 2200.0, 2200.0, 2200.0, 2200.0, 2200.0, 2199.0, 2200.0, 2199.0, 2200.0, 2199.0, 2199.0, 2200.0, 2199.0, 2199.0, 2199.0, 2199.0, 2199.0, 2199.0, 2199.0, 2199.0, 2199.0, 2199.0, 2199.0, 2199.0, 2199.0, 2199.0, 2199.0, 2199.0, 2199.0, 2199.0, 2199.0, 2199.0, 2199.0, 2199.0, 2199.0, 2199.0, 2199.0, 2199.0, 2199.0, 2199.0, 2199.0, 2199.0, 2199.0, 2199.0, 2199.0, 2199.0, 2199.0, 2199.0, 2199.0, 2199.0, 2199.0, 2199.0, 2199.0, 2198.0, 2199.0, 2199.0, 2198.0, 2199.0, 2198.0, 2199.0, 2199.0, 2198.0, 2198.0, 2198.0, 2198.0, 2198.0, 2198.0, 2198.0, 2198.0, 2198.0, 2199.0, 2198.0, 2198.0, 2198.0, 2198.0, 2198.0, 2198.0, 2198.0, 2198.0, 2198.0, 2198.0, 2198.0, 2198.0, 2198.0, 2198.0, 2198.0, 2198.0, 2198.0, 2198.0, 2198.0, 2198.0, 2198.0, 2198.0, 2198.0, 2198.0, 2198.0, 2198.0, 2198.0, 2198.0, 2198.0, 2198.0, 2198.0, 2198.0, 2198.0, 2198.0, 2198.0, 2198.0, 2198.0, 2198.0, 2198.0, 2198.0, 2198.0, 2198.0, 2198.0, 2198.0, 2197.0, 2198.0, 2197.0, 2197.0, 2197.0, 2197.0, 2197.0, 2197.0, 2197.0, 2197.0, 2197.0, 2197.0, 2197.0, 2197.0, 2197.0, 2197.0, 2197.0, 2197.0, 2198.0, 2197.0, 2197.0, 2197.0, 2197.0, 2197.0, 2197.0, 2198.0, 2197.0, 2197.0, 2197.0, 2198.0, 2197.0, 2197.0, 2197.0, 2197.0, 2197.0, 2197.0, 2197.0, 2197.0, 2197.0, 2197.0, 2197.0, 2197.0]
    },
    "slices": {}
  }
}