{
  "AcquisitionMatrixPE": 80,
  "AcquisitionNumber": 1,
  "AcquisitionTime": "09:50:39.490000",
  "BandwidthPerPixelPhaseEncode": 48.077,
  "BaseResolution": 80,
  "BodyPartExamined": "BRAIN",
  "CoilCombinationMethod": "Sum of Squares",
  "ConsistencyInfo": "N4_VE11C_LATEST_20160120",
  "ConversionSoftware": "dcm2niix",
  "ConversionSoftwareVersion": "v1.0.20220720",
  "DerivedVendorReportedEchoSpacing": 0.000519999,
  "DeviceSerialNumber": "66112",
  "DwellTime": 2.7e-06,
  "EchoTime": 0.035,
  "EchoTrainLength": 39,
  "EffectiveEchoSpacing": 0.00026,
  "FlipAngle": 90,
  "HeudiconvVersion": "0.13.1",
  "ImageOrientationPatientDICOM": [0.988116, 0.153352, 0.0105209, -0.149086, 0.939462, 0.308519],
  "ImageOrientationText": "Tra>Cor(17.9)>Sag(-2.1)",
  "ImageType": [
    "ORIGINAL",
    "PRIMARY",
    "M",
    "ND",
    "NORM",
    "MOSAIC"
],
  "ImagingFrequency": 123.252,
  "InPlanePhaseEncodingDirectionDICOM": "COL",
  "InstitutionAddress": "Maynard 3,Hanover,NH,US,03755",
  "InstitutionName": "Dartmouth College - PBS",
  "InstitutionalDepartmentName": "Department",
  "MRAcquisitionType": "2D",
  "MagneticFieldStrength": 3,
  "Manufacturer": "Siemens",
  "ManufacturersModelName": "Prisma",
  "MatrixCoilMode": "GRAPPA",
  "Modality": "MR",
  "NonlinearGradientCorrection": false,
  "ParallelReductionFactorInPlane": 2,
  "PartialFourier": 1,
  "PatientPosition": "HFS",
  "PercentPhaseFOV": 100,
  "PercentSampling": 100,
  "PhaseEncodingDirection": "j-",
  "PhaseEncodingSteps": 79,
  "PhaseResolution": 1,
  "PixelBandwidth": 2315,
  "ProcedureStepDescription": "dbic^QA",
  "ProtocolName": "func-bold_task-rest_acq-p2",
  "PulseSequenceDetails": "%SiemensSeq%\\ep2d_bold",
  "ReceiveCoilActiveElements": "HEA;HEP",
  "ReceiveCoilName": "Head_32",
  "ReconMatrixPE": 80,
  "RefLinesPE": 24,
  "RepetitionTime": 2,
  "SAR": 0.0557405,
  "ScanOptions": "FS",
  "ScanningSequence": "EP",
  "SequenceName": "*epfid2d1_80",
  "SequenceVariant": "SK",
  "SeriesDescription": "func-bold_task-rest_acq-p2",
  "SeriesNumber": 5,
  "ShimSetting": [4144, -7697, -7518, 280, -75, -116, -48, 69],
  "SliceThickness": 3.5,
  "SliceTiming": [0.99, 0, 1.055, 0.065, 1.1225, 0.1325, 1.1875, 0.1975, 1.255, 0.265, 1.32, 0.33, 1.385, 0.395, 1.4525, 0.4625, 1.5175, 0.5275, 1.585, 0.595, 1.65, 0.66, 1.715, 0.725, 1.7825, 0.7925, 1.8475, 0.8575, 1.9125, 0.925],
  "SoftwareVersions": "syngo MR E11",
  "SpacingBetweenSlices": 3.99,
  "StationName": "AWP66112",
  "TaskName": "rest",
  "TotalReadoutTime": 0.02054,
  "TxRefAmp": 223.074,
  "dcmmeta_affine": [
    [-2.9643471240997314, -0.44725704193115234, -0.14933764934539795, 142.2366485595703],
    [-0.4600547254085541, 2.8183865547180176, 1.2226213216781616, -101.50764465332031],
    [0.03156261146068573, -0.92555832862854, 3.7951276302337646, -25.24573516845703],
    [0.0, 0.0, 0.0, 1.0]
],
  "dcmmeta_reorient_transform": [
    [0.0, -1.0, 0.0, 79.0],
    [1.0, 0.0, 0.0, 0.0],
    [0.0, 0.0, 1.0, 0.0],
    [0.0, 0.0, 0.0, 1.0]
],
  "dcmmeta_shape": [80, 80, 30, 200],
  "dcmmeta_slice_dim": 2,
  "dcmmeta_version": 0.6,
  "global": {
    "const": {
      "AccessionNumber": "qa",
      "AcquisitionMatrix": [80, 0, 0, 80],
      "AngioFlag": "N",
      "BitsAllocated": 16,
      "BitsStored": 12,
      "BodyPartExamined": "BRAIN",
      "Columns": 480,
      "EchoNumbers": 1,
      "EchoTime": 35.0,
      "EchoTrainLength": 39,
      "FlipAngle": 90.0,
      "HighBit": 11,
      "ImageOrientationPatient": [0.98811568415632, 0.15335157645514, 0.0105208708294, -0.1490856831455, 0.93946219522147, 0.30851943671458],
      "ImagePositionPatient": [-610.3213430259, -776.83316162462, -289.78902707741],
      "ImageType": [
        "ORIGINAL",
        "PRIMARY",
        "M",
        "ND",
        "NORM",
        "MOSAIC"
],
      "ImagedNucleus": "1H",
      "ImagingFrequency": 123.25236,
      "InPlanePhaseEncodingDirection": "COL",
      "MRAcquisitionType": "2D",
      "MagneticFieldStrength": 3.0,
      "Manufacturer": "SIEMENS",
      "ManufacturerModelName": "Prisma",
      "Modality": "MR",
      "NumberOfAverages": 1.0,
      "NumberOfPhaseEncodingSteps": 79,
      "PercentPhaseFieldOfView": 100.0,
      "PercentSampling": 100.0,
      "PerformedProcedureStepStartTime": "094602.676000",
      "PhotometricInterpretation": "MONOCHROME2",
      "PixelBandwidth": 2315.0,
      "PixelRepresentation": 0,
      "PixelSpacing": [3.0, 3.0],
      "ProtocolName": "func-bold_task-rest_acq-p2",
      "RepetitionTime": 2000.0,
      "Rows": 480,
      "SAR": 0.0557405159939,
      "SamplesPerPixel": 1,
      "ScanOptions": "FS",
      "ScanningSequence": "EP",
      "SequenceName": "*epfid2d1_80",
      "SequenceVariant": "SK",
      "SeriesDescription": "func-bold_task-rest_acq-p2",
      "SeriesNumber": 5,
      "SeriesTime": "095133.721000",
      "SliceLocation": -60.440475537132,
      "SliceThickness": 3.5,
      "SmallestImagePixelValue": 0,
      "SoftwareVersions": "syngo MR E11",
      "SpacingBetweenSlices": 3.9899998971864,
      "SpecificCharacterSet": "ISO_IR 100",
      "StudyID": "15",
      "StudyTime": "094602.614000",
      "TransmitCoilName": "Body",
      "VariableFlipAngleFlag": "N",
      "WindowCenterWidthExplanation": "Algo1",
      "dBdt": 0.0},
    "slices": {}
  },
  "time": {
    "samples": {
      "AcquisitionNumber": [1, 2, 3, 4, 5, 6, 7, 8, 9, 10, 11, 12, 13, 14, 15, 16, 17, 18, 19, 20, 21, 22, 23, 24, 25, 26, 27, 28, 29, 30, 31, 32, 33, 34, 35, 36, 37, 38, 39, 40, 41, 42, 43, 44, 45, 46, 47, 48, 49, 50, 51, 52, 53, 54, 55, 56, 57, 58, 59, 60, 61, 62, 63, 64, 65, 66, 67, 68, 69, 70, 71, 72, 73, 74, 75, 76, 77, 78, 79, 80, 81, 82, 83, 84, 85, 86, 87, 88, 89, 90, 91, 92, 93, 94, 95, 96, 97, 98, 99, 100, 101, 102, 103, 104, 105, 106, 107, 108, 109, 110, 111, 112, 113, 114, 115, 116, 117, 118, 119, 120, 121, 122, 123, 124, 125, 126, 127, 128, 129, 130, 131, 132, 133, 134, 135, 136, 137, 138, 139, 140, 141, 142, 143, 144, 145, 146, 147, 148, 149, 150, 151, 152, 153, 154, 155, 156, 157, 158, 159, 160, 161, 162, 163, 164, 165, 166, 167, 168, 169, 170, 171, 172, 173, 174, 175, 176, 177, 178, 179, 180, 181, 182, 183, 184, 185, 186, 187, 188, 189, 190, 191, 192, 193, 194, 195, 196, 197, 198, 199, 200],
      "AcquisitionTime": ["095039.490000", "095041.490000", "095043.490000", "095045.490000", "095047.490000", "095049.490000", "095051.490000", "095053.490000", "095055.490000", "095057.490000", "095059.490000", "095101.490000", "095103.490000", "095105.490000", "095107.490000", "095109.490000", "095111.490000", "095113.490000", "095115.490000", "095117.490000", "095119.490000", "095121.490000", "095123.490000", "095125.490000", "095127.490000", "095129.490000", "095131.490000", "095133.490000", "095135.490000", "095137.490000", "095139.490000", "095141.490000", "095143.490000", "095145.490000", "095147.490000", "095149.490000", "095151.490000", "095153.490000", "095155.490000", "095157.490000", "095159.490000", "095201.490000", "095203.490000", "095205.490000", "095207.490000", "095209.490000", "095211.490000", "095213.490000", "095215.490000", "095217.490000", "095219.490000", "095221.490000", "095223.490000", "095225.490000", "095227.490000", "095229.490000", "095231.490000", "095233.490000", "095235.490000", "095237.490000", "095239.490000", "095241.490000", "095243.490000", "095245.490000", "095247.490000", "095249.490000", "095251.490000", "095253.490000", "095255.490000", "095257.490000", "095259.490000", "095301.490000", "095303.490000", "095305.490000", "095307.490000", "095309.490000", "095311.490000", "095313.490000", "095315.490000", "095317.490000", "095319.490000", "095321.490000", "095323.490000", "095325.490000", "095327.490000", "095329.490000", "095331.490000", "095333.490000", "095335.490000", "095337.490000", "095339.490000", "095341.490000", "095343.490000", "095345.490000", "095347.490000", "095349.490000", "095351.490000", "095353.490000", "095355.490000", "095357.490000", "095359.490000", "095401.490000", "095403.490000", "095405.490000", "095407.490000", "095409.490000", "095411.490000", "095413.490000", "095415.490000", "095417.490000", "095419.490000", "095421.490000", "095423.490000", "095425.490000", "095427.490000", "095429.490000", "095431.490000", "095433.490000", "095435.490000", "095437.490000", "095439.490000", "095441.490000", "095443.490000", "095445.490000", "095447.490000", "095449.490000", "095451.490000", "095453.490000", "095455.490000", "095457.490000", "095459.490000", "095501.490000", "095503.490000", "095505.490000", "095507.490000", "095509.490000", "095511.490000", "095513.490000", "095515.490000", "095517.490000", "095519.490000", "095521.490000", "095523.490000", "095525.490000", "095527.490000", "095529.490000", "095531.490000", "095533.490000", "095535.490000", "095537.490000", "095539.490000", "095541.490000", "095543.490000", "095545.490000", "095547.490000", "095549.490000", "095551.490000", "095553.490000", "095555.490000", "095557.490000", "095559.490000", "095601.490000", "095603.490000", "095605.490000", "095607.490000", "095609.490000", "095611.490000", "095613.490000", "095615.490000", "095617.490000", "095619.490000", "095621.490000", "095623.490000", "095625.490000", "095627.490000", "095629.490000", "095631.490000", "095633.490000", "095635.490000", "095637.490000", "095639.490000", "095641.490000", "095643.490000", "095645.490000", "095647.490000", "095649.490000", "095651.490000", "095653.490000", "095655.490000", "095657.490000", "095659.490000", "095701.490000", "095703.490000", "095705.490000", "095707.490000", "095709.490000", "095711.490000", "095713.490000", "095715.490000", "095717.490000"],
      "ContentTime": ["095133.724000", "095133.728000", "095133.730000", "095133.733000", "095133.736000", "095133.738000", "095133.741000", "095133.743000", "095133.746000", "095133.749000", "095133.751000", "095133.754000", "095133.756000", "095133.759000", "095133.762000", "095133.764000", "095133.767000", "095133.770000", "095133.772000", "095133.775000", "095133.777000", "095133.780000", "095133.783000", "095133.785000", "095133.788000", "095133.790000", "095133.793000", "095213.719000", "095213.722000", "095213.725000", "095213.728000", "095213.730000", "095213.733000", "095213.735000", "095213.738000", "095213.741000", "095213.743000", "095213.746000", "095213.749000", "095213.751000", "095213.754000", "095213.756000", "095213.759000", "095213.761000", "095213.764000", "095213.767000", "095213.769000", "095253.718000", "095253.721000", "095253.724000", "095253.726000", "095253.729000", "095253.732000", "095253.734000", "095253.737000", "095253.740000", "095253.742000", "095253.745000", "095253.747000", "095253.750000", "095253.753000", "095253.755000", "095253.758000", "095253.760000", "095253.763000", "095253.766000", "095253.768000", "095333.718000", "095333.721000", "095333.724000", "095333.727000", "095333.729000", "095333.732000", "095333.734000", "095333.737000", "095333.740000", "095333.742000", "095333.745000", "095333.748000", "095333.750000", "095333.753000", "095333.755000", "095333.758000", "095333.761000", "095333.763000", "095333.766000", "095333.768000", "095413.720000", "095413.722000", "095413.725000", "095413.728000", "095413.730000", "095413.733000", "095413.736000", "095413.738000", "095413.741000", "095413.743000", "095413.746000", "095413.749000", "095413.751000", "095413.754000", "095413.756000", "095413.759000", "095413.762000", "095413.764000", "095413.767000", "095413.770000", "095453.720000", "095453.722000", "095453.725000", "095453.728000", "095453.730000", "095453.733000", "095453.736000", "095453.738000", "095453.741000", "095453.743000", "095453.746000", "095453.749000", "095453.751000", "095453.754000", "095453.757000", "095453.759000", "095453.762000", "095453.764000", "095453.767000", "095453.770000", "095533.719000", "095533.721000", "095533.724000", "095533.727000", "095533.729000", "095533.732000", "095533.735000", "095533.737000", "095533.740000", "095533.743000", "095533.745000", "095533.748000", "095533.751000", "095533.753000", "095533.756000", "095533.758000", "095533.761000", "095533.764000", "095533.766000", "095533.769000", "095613.719000", "095613.722000", "095613.725000", "095613.728000", "095613.730000", "095613.733000", "095613.735000", "095613.738000", "095613.741000", "095613.743000", "095613.746000", "095613.749000", "095613.751000", "095613.754000", "095613.757000", "095613.759000", "095613.762000", "095613.764000", "095613.767000", "095613.770000", "095653.720000", "095653.723000", "095653.725000", "095653.728000", "095653.731000", "095653.733000", "095653.736000", "095653.739000", "095653.741000", "095653.744000", "095653.757000", "095653.759000", "095653.762000", "095653.765000", "095653.767000", "095653.770000", "095653.772000", "095653.775000", "095653.778000", "095653.780000", "095719.311000", "095719.314000", "095719.317000", "095719.320000", "095719.331000", "095719.333000", "095719.336000", "095719.339000", "095719.345000", "095719.349000", "095719.352000", "095719.356000", "095719.362000"],
      "InstanceCreationTime": ["095133.724000", "095133.728000", "095133.730000", "095133.733000", "095133.736000", "095133.738000", "095133.741000", "095133.743000", "095133.746000", "095133.749000", "095133.751000", "095133.754000", "095133.756000", "095133.759000", "095133.762000", "095133.764000", "095133.767000", "095133.770000", "095133.772000", "095133.775000", "095133.777000", "095133.780000", "095133.783000", "095133.785000", "095133.788000", "095133.790000", "095133.793000", "095213.719000", "095213.722000", "095213.725000", "095213.728000", "095213.730000", "095213.733000", "095213.735000", "095213.738000", "095213.741000", "095213.743000", "095213.746000", "095213.749000", "095213.751000", "095213.754000", "095213.756000", "095213.759000", "095213.761000", "095213.764000", "095213.767000", "095213.769000", "095253.718000", "095253.721000", "095253.724000", "095253.726000", "095253.729000", "095253.732000", "095253.734000", "095253.737000", "095253.740000", "095253.742000", "095253.745000", "095253.747000", "095253.750000", "095253.753000", "095253.755000", "095253.758000", "095253.760000", "095253.763000", "095253.766000", "095253.768000", "095333.718000", "095333.721000", "095333.724000", "095333.727000", "095333.729000", "095333.732000", "095333.734000", "095333.737000", "095333.740000", "095333.742000", "095333.745000", "095333.748000", "095333.750000", "095333.753000", "095333.755000", "095333.758000", "095333.761000", "095333.763000", "095333.766000", "095333.768000", "095413.720000", "095413.722000", "095413.725000", "095413.728000", "095413.730000", "095413.733000", "095413.736000", "095413.738000", "095413.741000", "095413.743000", "095413.746000", "095413.749000", "095413.751000", "095413.754000", "095413.756000", "095413.759000", "095413.762000", "095413.764000", "095413.767000", "095413.770000", "095453.720000", "095453.722000", "095453.725000", "095453.728000", "095453.730000", "095453.733000", "095453.736000", "095453.738000", "095453.741000", "095453.743000", "095453.746000", "095453.749000", "095453.751000", "095453.754000", "095453.757000", "095453.759000", "095453.762000", "095453.764000", "095453.767000", "095453.770000", "095533.719000", "095533.721000", "095533.724000", "095533.727000", "095533.729000", "095533.732000", "095533.735000", "095533.737000", "095533.740000", "095533.743000", "095533.745000", "095533.748000", "095533.751000", "095533.753000", "095533.756000", "095533.758000", "095533.761000", "095533.764000", "095533.766000", "095533.769000", "095613.719000", "095613.722000", "095613.725000", "095613.728000", "095613.730000", "095613.733000", "095613.735000", "095613.738000", "095613.741000", "095613.743000", "095613.746000", "095613.749000", "095613.751000", "095613.754000", "095613.757000", "095613.759000", "095613.762000", "095613.764000", "095613.767000", "095613.770000", "095653.720000", "095653.723000", "095653.725000", "095653.728000", "095653.731000", "095653.733000", "095653.736000", "095653.739000", "095653.741000", "095653.744000", "095653.757000", "095653.759000", "095653.762000", "095653.765000", "095653.767000", "095653.770000", "095653.772000", "095653.775000", "095653.778000", "095653.780000", "095719.311000", "095719.314000", "095719.317000", "095719.320000", "095719.331000", "095719.333000", "095719.336000", "095719.339000", "095719.345000", "095719.349000", "095719.352000", "095719.356000", "095719.362000"],
      "InstanceNumber": [1, 2, 3, 4, 5, 6, 7, 8, 9, 10, 11, 12, 13, 14, 15, 16, 17, 18, 19, 20, 21, 22, 23, 24, 25, 26, 27, 28, 29, 30, 31, 32, 33, 34, 35, 36, 37, 38, 39, 40, 41, 42, 43, 44, 45, 46, 47, 48, 49, 50, 51, 52, 53, 54, 55, 56, 57, 58, 59, 60, 61, 62, 63, 64, 65, 66, 67, 68, 69, 70, 71, 72, 73, 74, 75, 76, 77, 78, 79, 80, 81, 82, 83, 84, 85, 86, 87, 88, 89, 90, 91, 92, 93, 94, 95, 96, 97, 98, 99, 100, 101, 102, 103, 104, 105, 106, 107, 108, 109, 110, 111, 112, 113, 114, 115, 116, 117, 118, 119, 120, 121, 122, 123, 124, 125, 126, 127, 128, 129, 130, 131, 132, 133, 134, 135, 136, 137, 138, 139, 140, 141, 142, 143, 144, 145, 146, 147, 148, 149, 150, 151, 152, 153, 154, 155, 156, 157, 158, 159, 160, 161, 162, 163, 164, 165, 166, 167, 168, 169, 170, 171, 172, 173, 174, 175, 176, 177, 178, 179, 180, 181, 182, 183, 184, 185, 186, 187, 188, 189, 190, 191, 192, 193, 194, 195, 196, 197, 198, 199, 200],
      "LargestImagePixelValue": [1949, 1955, 1956, 1955, 1962, 1950, 1956, 1969, 1960, 1962, 1958, 1962, 1956, 1963, 1959, 1959, 1956, 1955, 1953, 1959, 1960, 1956, 1962, 1955, 1964, 1955, 1958, 1957, 1957, 1950, 1958, 1956, 1960, 1961, 1960, 1951, 1952, 1954, 1951, 1952, 1957, 1963, 1957, 1959, 1964, 1957, 1954, 1952, 1947, 1946, 1955, 1957, 1964, 1954, 1963, 1962, 1960, 1956, 1958, 1964, 1955, 1954, 1961, 1958, 1954, 1962, 1957, 1957, 1956, 1953, 1957, 1962, 1960, 1956, 1955, 1960, 1956, 1968, 1962, 1953, 1967, 1957, 1958, 1963, 1958, 1956, 1953, 1965, 1961, 1961, 1953, 1960, 1962, 1953, 1959, 1964, 1957, 1957, 1955, 1960, 1953, 1953, 1959, 1956, 1957, 1953, 1957, 1959, 1959, 1957, 1954, 1964, 1955, 1953, 1960, 1960, 1953, 1952, 1964, 1954, 1955, 1964, 1959, 1956, 1956, 1957, 1957, 1961, 1959, 1959, 1960, 1958, 1954, 1960, 1954, 1960, 1962, 1960, 1952, 1959, 1957, 1953, 1960, 1956, 1966, 1955, 1956, 1959, 1964, 1957, 1956, 1959, 1955, 1950, 1951, 1960, 1959, 1958, 1953, 1951, 1966, 1960, 1954, 1954, 1958, 1954, 1955, 1957, 1955, 1954, 1956, 1957, 1955, 1956, 1952, 1963, 1957, 1958, 1958, 1946, 1957, 1950, 1957, 1953, 1961, 1957, 1957, 1960, 1956, 1953, 1965, 1949, 1956, 1952, 1959, 1953, 1952, 1963, 1950, 1963],
      "WindowCenter": [974.0, 974.0, 974.0, 973.0, 974.0, 974.0, 973.0, 973.0, 973.0, 974.0, 973.0, 974.0, 973.0, 973.0, 973.0, 973.0, 973.0, 974.0, 975.0, 975.0, 973.0, 974.0, 974.0, 974.0, 973.0, 973.0, 974.0, 974.0, 973.0, 973.0, 973.0, 974.0, 973.0, 973.0, 974.0, 974.0, 973.0, 973.0, 973.0, 973.0, 973.0, 973.0, 974.0, 973.0, 973.0, 975.0, 973.0, 973.0, 974.0, 974.0, 974.0, 974.0, 974.0, 974.0, 973.0, 973.0, 973.0, 973.0, 973.0, 975.0, 973.0, 974.0, 973.0, 973.0, 973.0, 973.0, 973.0, 974.0, 973.0, 973.0, 973.0, 973.0, 974.0, 974.0, 973.0, 973.0, 973.0, 974.0, 973.0, 973.0, 973.0, 973.0, 974.0, 973.0, 974.0, 973.0, 973.0, 973.0, 973.0, 973.0, 973.0, 973.0, 973.0, 973.0, 973.0, 973.0, 973.0, 974.0, 973.0, 973.0, 973.0, 973.0, 973.0, 973.0, 974.0, 973.0, 973.0, 973.0, 973.0, 973.0, 973.0, 973.0, 973.0, 973.0, 973.0, 973.0, 973.0, 973.0, 973.0, 973.0, 973.0, 974.0, 973.0, 973.0, 973.0, 973.0, 974.0, 973.0, 973.0, 972.0, 972.0, 973.0, 972.0, 973.0, 972.0, 973.0, 972.0, 972.0, 972.0, 972.0, 972.0, 972.0, 973.0, 973.0, 972.0, 972.0, 972.0, 973.0, 972.0, 972.0, 972.0, 972.0, 973.0, 972.0, 972.0, 972.0, 972.0, 974.0, 973.0, 972.0, 972.0, 972.0, 972.0, 973.0, 972.0, 973.0, 972.0, 972.0, 973.0, 973.0, 972.0, 973.0, 972.0, 972.0, 972.0, 972.0, 972.0, 972.0, 972.0, 973.0, 973.0, 972.0, 973.0, 972.0, 972.0, 972.0, 973.0, 973.0, 973.0, 973.0, 972.0, 973.0, 972.0, 972.0, 974.0, 972.0, 972.0, 972.0, 972.0, 972.0],
      "WindowWidth": [2127.0, 2126.0, 2126.0, 2126.0, 2126.0, 2126.0, 2126.0, 2126.0, 2126.0, 2126.0, 2126.0, 2126.0, 2126.0, 2125.0, 2126.0, 2126.0, 2125.0, 2126.0, 2127.0, 2127.0, 2126.0, 2127.0, 2126.0, 2126.0, 2126.0, 2125.0, 2126.0, 2126.0, 2125.0, 2125.0, 2125.0, 2126.0, 2125.0, 2125.0, 2126.0, 2126.0, 2125.0, 2125.0, 2125.0, 2126.0, 2125.0, 2125.0, 2126.0, 2125.0, 2125.0, 2126.0, 2125.0, 2125.0, 2126.0, 2125.0, 2126.0, 2126.0, 2126.0, 2126.0, 2125.0, 2125.0, 2125.0, 2125.0, 2125.0, 2126.0, 2125.0, 2126.0, 2124.0, 2125.0, 2125.0, 2125.0, 2124.0, 2125.0, 2125.0, 2125.0, 2124.0, 2125.0, 2125.0, 2125.0, 2124.0, 2124.0, 2124.0, 2125.0, 2125.0, 2125.0, 2124.0, 2124.0, 2125.0, 2125.0, 2125.0, 2124.0, 2124.0, 2125.0, 2124.0, 2124.0, 2124.0, 2125.0, 2124.0, 2124.0, 2124.0, 2124.0, 2124.0, 2125.0, 2124.0, 2124.0, 2124.0, 2125.0, 2125.0, 2124.0, 2126.0, 2125.0, 2124.0, 2124.0, 2124.0, 2124.0, 2124.0, 2125.0, 2125.0, 2125.0, 2124.0, 2124.0, 2125.0, 2125.0, 2124.0, 2125.0, 2124.0, 2125.0, 2124.0, 2124.0, 2124.0, 2125.0, 2125.0, 2124.0, 2125.0, 2124.0, 2124.0, 2124.0, 2124.0, 2124.0, 2124.0, 2124.0, 2124.0, 2123.0, 2123.0, 2124.0, 2124.0, 2123.0, 2124.0, 2124.0, 2124.0, 2123.0, 2123.0, 2124.0, 2123.0, 2123.0, 2123.0, 2123.0, 2124.0, 2124.0, 2123.0, 2123.0, 2123.0, 2124.0, 2124.0, 2124.0, 2123.0, 2123.0, 2123.0, 2124.0, 2123.0, 2124.0, 2123.0, 2123.0, 2124.0, 2124.0, 2123.0, 2124.0, 2123.0, 2123.0, 2123.0, 2123.0, 2123.0, 2123.0, 2123.0, 2124.0, 2124.0, 2123.0, 2124.0, 2123.0, 2123.0, 2123.0, 2124.0, 2123.0, 2124.0, 2123.0, 2123.0, 2123.0, 2123.0, 2123.0, 2124.0, 2123.0, 2123.0, 2123.0, 2122.0, 2123.0]
    },
    "slices": {}
  }
}