{
  "AcquisitionMatrixPE": 80,
  "AcquisitionNumber": 1,
  "AcquisitionTime": "10:11:10.507500",
  "BandwidthPerPixelPhaseEncode": 25,
  "BaseResolution": 80,
  "BodyPartExamined": "BRAIN",
  "CoilCombinationMethod": "Sum of Squares",
  "ConsistencyInfo": "N4_VE11C_LATEST_20160120",
  "ConversionSoftware": "dcm2niix",
  "ConversionSoftwareVersion": "v1.0.20220720",
  "DerivedVendorReportedEchoSpacing": 0.0005,
  "DeviceSerialNumber": "66112",
  "DwellTime": 2.7e-06,
  "EchoTime": 0.03,
  "EchoTrainLength": 80,
  "EffectiveEchoSpacing": 0.0005,
  "FlipAngle": 10,
  "HeudiconvVersion": "0.13.1",
  "ImageOrientationPatientDICOM": [0.988116, 0.153352, 0.0105209, -0.149086, 0.939462, 0.308519],
  "ImageOrientationText": "Tra>Cor(17.9)>Sag(-2.1)",
  "ImageType": [
    "ORIGINAL",
    "PRIMARY",
    "M",
    "ND",
    "NORM",
    "MOSAIC"
],
  "ImagingFrequency": 123.252,
  "InPlanePhaseEncodingDirectionDICOM": "COL",
  "InstitutionAddress": "Maynard 3,Hanover,NH,US,03755",
  "InstitutionName": "Dartmouth College - PBS",
  "InstitutionalDepartmentName": "Department",
  "MRAcquisitionType": "2D",
  "MagneticFieldStrength": 3,
  "Manufacturer": "Siemens",
  "ManufacturersModelName": "Prisma",
  "MatrixCoilMode": "SENSE",
  "Modality": "MR",
  "NonlinearGradientCorrection": false,
  "PartialFourier": 1,
  "PatientPosition": "HFS",
  "PercentPhaseFOV": 100,
  "PercentSampling": 100,
  "PhaseEncodingDirection": "j-",
  "PhaseEncodingSteps": 80,
  "PhaseResolution": 1,
  "PixelBandwidth": 2315,
  "ProcedureStepDescription": "dbic^QA",
  "ProtocolName": "func-bold_fa-10",
  "PulseSequenceDetails": "%SiemensSeq%\\ep2d_bold",
  "ReceiveCoilActiveElements": "HEA;HEP",
  "ReceiveCoilName": "Head_32",
  "ReconMatrixPE": 80,
  "RepetitionTime": 2,
  "SAR": 0.0117503,
  "ScanOptions": "FS",
  "ScanningSequence": "EP",
  "SequenceName": "*epfid2d1_80",
  "SequenceVariant": "SK",
  "SeriesDescription": "func-bold_fa-10",
  "SeriesNumber": 10,
  "ShimSetting": [4144, -7697, -7518, 276, -76, -112, -45, 69],
  "SliceThickness": 3.5,
  "SliceTiming": [0.99, 0, 1.055, 0.065, 1.12, 0.13, 1.1875, 0.1975, 1.2525, 0.2625, 1.32, 0.33, 1.385, 0.395, 1.45, 0.46, 1.5175, 0.5275, 1.5825, 0.5925, 1.65, 0.66, 1.715, 0.725, 1.78, 0.79, 1.8475, 0.8575, 1.9125, 0.9225],
  "SoftwareVersions": "syngo MR E11",
  "SpacingBetweenSlices": 3.99,
  "StationName": "AWP66112",
  "TotalReadoutTime": 0.0395,
  "TxRefAmp": 223.074,
  "dcmmeta_affine": [
    [-2.9643471240997314, -0.44725704193115234, -0.14933764934539795, 139.1066436767578],
    [-0.4600547254085541, 2.8183865547180176, 1.2226213216781616, -97.84579467773438],
    [0.03156261146068573, -0.92555832862854, 3.7951276302337646, -22.493465423583984],
    [0.0, 0.0, 0.0, 1.0]
],
  "dcmmeta_reorient_transform": [
    [0.0, -1.0, 0.0, 79.0],
    [1.0, 0.0, 0.0, 0.0],
    [0.0, 0.0, 1.0, 0.0],
    [0.0, 0.0, 0.0, 1.0]
],
  "dcmmeta_shape": [80, 80, 30, 200],
  "dcmmeta_slice_dim": 2,
  "dcmmeta_version": 0.6,
  "global": {
    "const": {
      "AccessionNumber": "qa",
      "AcquisitionMatrix": [80, 0, 0, 80],
      "AngioFlag": "N",
      "BitsAllocated": 16,
      "BitsStored": 12,
      "BodyPartExamined": "BRAIN",
      "Columns": 480,
      "EchoNumbers": 1,
      "EchoTime": 30.0,
      "EchoTrainLength": 80,
      "FlipAngle": 10.0,
      "HighBit": 11,
      "ImageOrientationPatient": [0.98811568415632, 0.15335157645514, 0.0105208708294, -0.1490856831455, 0.93946219522147, 0.30851943671458],
      "ImagePositionPatient": [-607.19133218263, -780.49501064653, -287.03675733254],
      "ImageType": [
        "ORIGINAL",
        "PRIMARY",
        "M",
        "ND",
        "NORM",
        "MOSAIC"
],
      "ImagedNucleus": "1H",
      "ImagingFrequency": 123.25236,
      "InPlanePhaseEncodingDirection": "COL",
      "MRAcquisitionType": "2D",
      "MagneticFieldStrength": 3.0,
      "Manufacturer": "SIEMENS",
      "ManufacturerModelName": "Prisma",
      "Modality": "MR",
      "NumberOfAverages": 1.0,
      "NumberOfPhaseEncodingSteps": 80,
      "PercentPhaseFieldOfView": 100.0,
      "PercentSampling": 100.0,
      "PerformedProcedureStepStartTime": "094602.676000",
      "PhotometricInterpretation": "MONOCHROME2",
      "PixelBandwidth": 2315.0,
      "PixelRepresentation": 0,
      "PixelSpacing": [3.0, 3.0],
      "ProtocolName": "func-bold_fa-10",
      "RepetitionTime": 2000.0,
      "Rows": 480,
      "SAR": 0.01175029707654,
      "SamplesPerPixel": 1,
      "ScanOptions": "FS",
      "ScanningSequence": "EP",
      "SequenceName": "*epfid2d1_80",
      "SequenceVariant": "SK",
      "SeriesDescription": "func-bold_fa-10",
      "SeriesNumber": 10,
      "SeriesTime": "101153.720000",
      "SliceLocation": -56.583408135368,
      "SliceThickness": 3.5,
      "SmallestImagePixelValue": 0,
      "SoftwareVersions": "syngo MR E11",
      "SpacingBetweenSlices": 3.989999907417,
      "SpecificCharacterSet": "ISO_IR 100",
      "StudyID": "15",
      "StudyTime": "094602.614000",
      "TransmitCoilName": "Body",
      "VariableFlipAngleFlag": "N",
      "WindowCenterWidthExplanation": "Algo1",
      "dBdt": 0.0},
    "slices": {}
  },
  "time": {
    "samples": {
      "AcquisitionNumber": [1, 2, 3, 4, 5, 6, 7, 8, 9, 10, 11, 12, 13, 14, 15, 16, 17, 18, 19, 20, 21, 22, 23, 24, 25, 26, 27, 28, 29, 30, 31, 32, 33, 34, 35, 36, 37, 38, 39, 40, 41, 42, 43, 44, 45, 46, 47, 48, 49, 50, 51, 52, 53, 54, 55, 56, 57, 58, 59, 60, 61, 62, 63, 64, 65, 66, 67, 68, 69, 70, 71, 72, 73, 74, 75, 76, 77, 78, 79, 80, 81, 82, 83, 84, 85, 86, 87, 88, 89, 90, 91, 92, 93, 94, 95, 96, 97, 98, 99, 100, 101, 102, 103, 104, 105, 106, 107, 108, 109, 110, 111, 112, 113, 114, 115, 116, 117, 118, 119, 120, 121, 122, 123, 124, 125, 126, 127, 128, 129, 130, 131, 132, 133, 134, 135, 136, 137, 138, 139, 140, 141, 142, 143, 144, 145, 146, 147, 148, 149, 150, 151, 152, 153, 154, 155, 156, 157, 158, 159, 160, 161, 162, 163, 164, 165, 166, 167, 168, 169, 170, 171, 172, 173, 174, 175, 176, 177, 178, 179, 180, 181, 182, 183, 184, 185, 186, 187, 188, 189, 190, 191, 192, 193, 194, 195, 196, 197, 198, 199, 200],
      "AcquisitionTime": ["101110.507500", "101112.507500", "101114.507500", "101116.507500", "101118.507500", "101120.507500", "101122.507500", "101124.507500", "101126.507500", "101128.507500", "101130.507500", "101132.507500", "101134.507500", "101136.507500", "101138.507500", "101140.507500", "101142.507500", "101144.507500", "101146.507500", "101148.507500", "101150.507500", "101152.507500", "101154.507500", "101156.507500", "101158.507500", "101200.507500", "101202.507500", "101204.507500", "101206.507500", "101208.507500", "101210.507500", "101212.507500", "101214.507500", "101216.507500", "101218.507500", "101220.507500", "101222.507500", "101224.507500", "101226.507500", "101228.507500", "101230.507500", "101232.507500", "101234.507500", "101236.507500", "101238.507500", "101240.507500", "101242.507500", "101244.507500", "101246.507500", "101248.507500", "101250.507500", "101252.507500", "101254.507500", "101256.507500", "101258.507500", "101300.507500", "101302.507500", "101304.507500", "101306.507500", "101308.507500", "101310.507500", "101312.507500", "101314.507500", "101316.507500", "101318.507500", "101320.507500", "101322.507500", "101324.507500", "101326.507500", "101328.507500", "101330.507500", "101332.507500", "101334.507500", "101336.507500", "101338.507500", "101340.507500", "101342.507500", "101344.507500", "101346.507500", "101348.507500", "101350.507500", "101352.507500", "101354.507500", "101356.507500", "101358.507500", "101400.507500", "101402.507500", "101404.507500", "101406.507500", "101408.507500", "101410.507500", "101412.507500", "101414.507500", "101416.507500", "101418.507500", "101420.507500", "101422.507500", "101424.507500", "101426.507500", "101428.507500", "101430.507500", "101432.507500", "101434.507500", "101436.507500", "101438.507500", "101440.507500", "101442.507500", "101444.507500", "101446.507500", "101448.507500", "101450.507500", "101452.507500", "101454.507500", "101456.507500", "101458.507500", "101500.507500", "101502.507500", "101504.507500", "101506.507500", "101508.507500", "101510.507500", "101512.507500", "101514.507500", "101516.507500", "101518.507500", "101520.507500", "101522.507500", "101524.507500", "101526.507500", "101528.507500", "101530.507500", "101532.507500", "101534.507500", "101536.507500", "101538.507500", "101540.507500", "101542.507500", "101544.507500", "101546.507500", "101548.507500", "101550.507500", "101552.507500", "101554.507500", "101556.507500", "101558.507500", "101600.507500", "101602.507500", "101604.507500", "101606.507500", "101608.507500", "101610.507500", "101612.507500", "101614.507500", "101616.507500", "101618.507500", "101620.507500", "101622.507500", "101624.507500", "101626.507500", "101628.507500", "101630.507500", "101632.507500", "101634.507500", "101636.507500", "101638.507500", "101640.507500", "101642.507500", "101644.507500", "101646.507500", "101648.507500", "101650.507500", "101652.507500", "101654.507500", "101656.507500", "101658.507500", "101700.507500", "101702.507500", "101704.507500", "101706.507500", "101708.507500", "101710.507500", "101712.507500", "101714.507500", "101716.507500", "101718.507500", "101720.507500", "101722.507500", "101724.507500", "101726.507500", "101728.507500", "101730.507500", "101732.507500", "101734.507500", "101736.507500", "101738.507500", "101740.507500", "101742.507500", "101744.507500", "101746.507500", "101748.507500"],
      "ContentTime": ["101153.723000", "101153.727000", "101153.729000", "101153.732000", "101153.734000", "101153.737000", "101153.739000", "101153.742000", "101153.745000", "101153.747000", "101153.750000", "101153.752000", "101153.755000", "101153.757000", "101153.760000", "101153.762000", "101153.765000", "101153.767000", "101153.770000", "101153.773000", "101153.775000", "101233.720000", "101233.722000", "101233.725000", "101233.728000", "101233.730000", "101233.733000", "101233.735000", "101233.738000", "101233.740000", "101233.743000", "101233.745000", "101233.748000", "101233.751000", "101233.753000", "101233.756000", "101233.758000", "101233.761000", "101233.763000", "101233.766000", "101233.768000", "101313.719000", "101313.722000", "101313.725000", "101313.727000", "101313.730000", "101313.733000", "101313.735000", "101313.738000", "101313.740000", "101313.743000", "101313.746000", "101313.748000", "101313.751000", "101313.753000", "101313.756000", "101313.758000", "101313.761000", "101313.763000", "101313.766000", "101313.768000", "101353.718000", "101353.721000", "101353.724000", "101353.727000", "101353.729000", "101353.732000", "101353.735000", "101353.737000", "101353.740000", "101353.742000", "101353.745000", "101353.747000", "101353.750000", "101353.753000", "101353.755000", "101353.758000", "101353.760000", "101353.763000", "101353.765000", "101353.768000", "101433.718000", "101433.721000", "101433.724000", "101433.726000", "101433.729000", "101433.732000", "101433.734000", "101433.737000", "101433.739000", "101433.742000", "101433.745000", "101433.747000", "101433.750000", "101433.752000", "101433.755000", "101433.757000", "101433.760000", "101433.763000", "101433.765000", "101433.768000", "101513.719000", "101513.722000", "101513.725000", "101513.727000", "101513.730000", "101513.733000", "101513.735000", "101513.738000", "101513.741000", "101513.743000", "101513.746000", "101513.748000", "101513.751000", "101513.753000", "101513.756000", "101513.759000", "101513.761000", "101513.764000", "101513.766000", "101513.769000", "101553.719000", "101553.721000", "101553.724000", "101553.727000", "101553.729000", "101553.732000", "101553.734000", "101553.737000", "101553.739000", "101553.742000", "101553.745000", "101553.747000", "101553.750000", "101553.752000", "101553.755000", "101553.758000", "101553.760000", "101553.763000", "101553.766000", "101553.768000", "101633.719000", "101633.721000", "101633.724000", "101633.727000", "101633.729000", "101633.732000", "101633.742000", "101633.744000", "101633.747000", "101633.750000", "101633.752000", "101633.755000", "101633.757000", "101633.760000", "101633.763000", "101633.765000", "101633.768000", "101633.771000", "101633.773000", "101633.776000", "101713.719000", "101713.722000", "101713.725000", "101713.728000", "101713.730000", "101713.733000", "101713.735000", "101713.738000", "101713.740000", "101713.743000", "101713.745000", "101713.748000", "101713.751000", "101713.753000", "101713.756000", "101713.759000", "101713.761000", "101713.764000", "101713.767000", "101713.770000", "101749.990000", "101749.992000", "101749.995000", "101749.998000", "101750.006000", "101750.009000", "101750.011000", "101750.014000", "101750.017000", "101750.019000", "101750.023000", "101750.033000", "101750.040000", "101750.044000", "101750.048000", "101750.052000", "101750.056000", "101750.059000", "101750.062000"],
      "InstanceCreationTime": ["101153.723000", "101153.727000", "101153.729000", "101153.732000", "101153.734000", "101153.737000", "101153.739000", "101153.742000", "101153.745000", "101153.747000", "101153.750000", "101153.752000", "101153.755000", "101153.757000", "101153.760000", "101153.762000", "101153.765000", "101153.767000", "101153.770000", "101153.773000", "101153.775000", "101233.720000", "101233.722000", "101233.725000", "101233.728000", "101233.730000", "101233.733000", "101233.735000", "101233.738000", "101233.740000", "101233.743000", "101233.745000", "101233.748000", "101233.751000", "101233.753000", "101233.756000", "101233.758000", "101233.761000", "101233.763000", "101233.766000", "101233.768000", "101313.719000", "101313.722000", "101313.725000", "101313.727000", "101313.730000", "101313.733000", "101313.735000", "101313.738000", "101313.740000", "101313.743000", "101313.746000", "101313.748000", "101313.751000", "101313.753000", "101313.756000", "101313.758000", "101313.761000", "101313.763000", "101313.766000", "101313.768000", "101353.718000", "101353.721000", "101353.724000", "101353.727000", "101353.729000", "101353.732000", "101353.735000", "101353.737000", "101353.740000", "101353.742000", "101353.745000", "101353.747000", "101353.750000", "101353.753000", "101353.755000", "101353.758000", "101353.760000", "101353.763000", "101353.765000", "101353.768000", "101433.718000", "101433.721000", "101433.724000", "101433.726000", "101433.729000", "101433.732000", "101433.734000", "101433.737000", "101433.739000", "101433.742000", "101433.745000", "101433.747000", "101433.750000", "101433.752000", "101433.755000", "101433.757000", "101433.760000", "101433.763000", "101433.765000", "101433.768000", "101513.719000", "101513.722000", "101513.725000", "101513.727000", "101513.730000", "101513.733000", "101513.735000", "101513.738000", "101513.741000", "101513.743000", "101513.746000", "101513.748000", "101513.751000", "101513.753000", "101513.756000", "101513.759000", "101513.761000", "101513.764000", "101513.766000", "101513.769000", "101553.719000", "101553.721000", "101553.724000", "101553.727000", "101553.729000", "101553.732000", "101553.734000", "101553.737000", "101553.739000", "101553.742000", "101553.745000", "101553.747000", "101553.750000", "101553.752000", "101553.755000", "101553.758000", "101553.760000", "101553.763000", "101553.766000", "101553.768000", "101633.719000", "101633.721000", "101633.724000", "101633.727000", "101633.729000", "101633.732000", "101633.742000", "101633.744000", "101633.747000", "101633.750000", "101633.752000", "101633.755000", "101633.757000", "101633.760000", "101633.763000", "101633.765000", "101633.768000", "101633.771000", "101633.773000", "101633.776000", "101713.719000", "101713.722000", "101713.725000", "101713.728000", "101713.730000", "101713.733000", "101713.735000", "101713.738000", "101713.740000", "101713.743000", "101713.745000", "101713.748000", "101713.751000", "101713.753000", "101713.756000", "101713.759000", "101713.761000", "101713.764000", "101713.767000", "101713.770000", "101749.990000", "101749.992000", "101749.995000", "101749.998000", "101750.006000", "101750.009000", "101750.011000", "101750.014000", "101750.017000", "101750.019000", "101750.023000", "101750.033000", "101750.040000", "101750.044000", "101750.048000", "101750.052000", "101750.056000", "101750.059000", "101750.062000"],
      "InstanceNumber": [1, 2, 3, 4, 5, 6, 7, 8, 9, 10, 11, 12, 13, 14, 15, 16, 17, 18, 19, 20, 21, 22, 23, 24, 25, 26, 27, 28, 29, 30, 31, 32, 33, 34, 35, 36, 37, 38, 39, 40, 41, 42, 43, 44, 45, 46, 47, 48, 49, 50, 51, 52, 53, 54, 55, 56, 57, 58, 59, 60, 61, 62, 63, 64, 65, 66, 67, 68, 69, 70, 71, 72, 73, 74, 75, 76, 77, 78, 79, 80, 81, 82, 83, 84, 85, 86, 87, 88, 89, 90, 91, 92, 93, 94, 95, 96, 97, 98, 99, 100, 101, 102, 103, 104, 105, 106, 107, 108, 109, 110, 111, 112, 113, 114, 115, 116, 117, 118, 119, 120, 121, 122, 123, 124, 125, 126, 127, 128, 129, 130, 131, 132, 133, 134, 135, 136, 137, 138, 139, 140, 141, 142, 143, 144, 145, 146, 147, 148, 149, 150, 151, 152, 153, 154, 155, 156, 157, 158, 159, 160, 161, 162, 163, 164, 165, 166, 167, 168, 169, 170, 171, 172, 173, 174, 175, 176, 177, 178, 179, 180, 181, 182, 183, 184, 185, 186, 187, 188, 189, 190, 191, 192, 193, 194, 195, 196, 197, 198, 199, 200],
      "LargestImagePixelValue": [325, 323, 324, 325, 324, 326, 323, 323, 324, 323, 326, 323, 328, 323, 323, 324, 325, 323, 324, 322, 323, 327, 325, 326, 326, 323, 323, 324, 323, 323, 324, 325, 324, 326, 325, 325, 326, 325, 323, 323, 325, 323, 324, 322, 326, 323, 322, 324, 322, 326, 326, 325, 322, 327, 326, 324, 324, 321, 322, 327, 326, 325, 327, 323, 322, 326, 323, 322, 325, 325, 322, 323, 324, 323, 323, 329, 323, 322, 323, 323, 323, 324, 326, 324, 323, 322, 326, 327, 322, 323, 324, 323, 324, 323, 323, 323, 324, 327, 324, 323, 322, 324, 324, 321, 324, 325, 321, 322, 323, 323, 324, 321, 325, 325, 323, 323, 323, 324, 324, 324, 326, 323, 323, 324, 321, 324, 322, 322, 329, 323, 322, 324, 324, 323, 325, 321, 324, 323, 325, 325, 325, 324, 323, 324, 325, 323, 322, 323, 324, 323, 322, 324, 324, 323, 326, 324, 327, 325, 326, 323, 323, 324, 324, 324, 322, 324, 322, 326, 322, 323, 324, 322, 323, 323, 327, 324, 322, 324, 325, 325, 320, 323, 321, 324, 321, 324, 320, 324, 327, 325, 325, 324, 325, 324, 322, 325, 323, 324, 321, 327],
      "WindowCenter": [271.0, 270.0, 271.0, 271.0, 271.0, 271.0, 271.0, 271.0, 271.0, 271.0, 271.0, 271.0, 271.0, 271.0, 271.0, 271.0, 271.0, 271.0, 271.0, 271.0, 271.0, 271.0, 270.0, 271.0, 271.0, 271.0, 271.0, 271.0, 271.0, 271.0, 271.0, 271.0, 270.0, 271.0, 271.0, 271.0, 271.0, 271.0, 271.0, 271.0, 271.0, 271.0, 271.0, 270.0, 271.0, 271.0, 271.0, 271.0, 271.0, 271.0, 271.0, 270.0, 271.0, 271.0, 271.0, 271.0, 271.0, 271.0, 271.0, 271.0, 271.0, 271.0, 271.0, 271.0, 271.0, 271.0, 271.0, 271.0, 271.0, 271.0, 271.0, 270.0, 270.0, 271.0, 271.0, 270.0, 271.0, 271.0, 270.0, 271.0, 270.0, 271.0, 270.0, 271.0, 270.0, 271.0, 271.0, 271.0, 270.0, 270.0, 271.0, 270.0, 271.0, 270.0, 271.0, 271.0, 271.0, 271.0, 270.0, 270.0, 271.0, 271.0, 271.0, 270.0, 270.0, 271.0, 270.0, 271.0, 270.0, 270.0, 271.0, 271.0, 271.0, 271.0, 271.0, 270.0, 270.0, 271.0, 271.0, 271.0, 270.0, 270.0, 271.0, 270.0, 270.0, 271.0, 271.0, 271.0, 270.0, 271.0, 270.0, 271.0, 271.0, 271.0, 270.0, 270.0, 270.0, 270.0, 271.0, 271.0, 271.0, 271.0, 271.0, 271.0, 270.0, 270.0, 271.0, 271.0, 270.0, 271.0, 270.0, 271.0, 271.0, 271.0, 270.0, 270.0, 271.0, 271.0, 271.0, 271.0, 271.0, 271.0, 270.0, 270.0, 270.0, 270.0, 271.0, 270.0, 270.0, 271.0, 270.0, 270.0, 270.0, 271.0, 270.0, 271.0, 270.0, 271.0, 271.0, 271.0, 270.0, 271.0, 270.0, 270.0, 271.0, 270.0, 271.0, 270.0, 271.0, 271.0, 270.0, 270.0, 271.0, 270.0, 271.0, 270.0, 271.0, 270.0, 270.0, 271.0],
      "WindowWidth": [595.0, 594.0, 595.0, 595.0, 595.0, 595.0, 595.0, 595.0, 595.0, 595.0, 595.0, 595.0, 595.0, 595.0, 595.0, 595.0, 595.0, 595.0, 595.0, 595.0, 595.0, 595.0, 595.0, 595.0, 595.0, 595.0, 595.0, 595.0, 595.0, 595.0, 595.0, 595.0, 594.0, 595.0, 595.0, 595.0, 595.0, 595.0, 595.0, 595.0, 595.0, 595.0, 595.0, 594.0, 595.0, 595.0, 595.0, 595.0, 595.0, 595.0, 595.0, 595.0, 595.0, 595.0, 595.0, 595.0, 595.0, 595.0, 595.0, 595.0, 595.0, 595.0, 595.0, 595.0, 595.0, 595.0, 595.0, 595.0, 595.0, 595.0, 595.0, 594.0, 595.0, 595.0, 595.0, 594.0, 595.0, 595.0, 595.0, 595.0, 595.0, 595.0, 595.0, 595.0, 595.0, 595.0, 595.0, 595.0, 595.0, 595.0, 595.0, 595.0, 595.0, 594.0, 595.0, 595.0, 595.0, 595.0, 595.0, 594.0, 595.0, 595.0, 595.0, 595.0, 594.0, 595.0, 595.0, 595.0, 595.0, 594.0, 595.0, 595.0, 595.0, 595.0, 595.0, 594.0, 594.0, 595.0, 595.0, 595.0, 595.0, 595.0, 595.0, 595.0, 594.0, 595.0, 595.0, 595.0, 594.0, 595.0, 594.0, 595.0, 595.0, 595.0, 594.0, 595.0, 594.0, 595.0, 595.0, 595.0, 595.0, 595.0, 595.0, 595.0, 595.0, 595.0, 595.0, 595.0, 594.0, 595.0, 595.0, 595.0, 595.0, 595.0, 594.0, 594.0, 595.0, 595.0, 595.0, 595.0, 595.0, 595.0, 594.0, 594.0, 594.0, 594.0, 595.0, 594.0, 594.0, 595.0, 594.0, 594.0, 594.0, 595.0, 594.0, 595.0, 594.0, 595.0, 595.0, 595.0, 594.0, 595.0, 594.0, 593.0, 595.0, 594.0, 595.0, 594.0, 595.0, 595.0, 594.0, 594.0, 595.0, 594.0, 595.0, 594.0, 595.0, 594.0, 594.0, 595.0]
    },
    "slices": {}
  }
}