{
  "AcquisitionMatrixPE": 122,
  "AcquisitionNumber": 1,
  "AcquisitionTime": "10:29:39.210000",
  "BandwidthPerPixelPhaseEncode": 28.76,
  "BaseResolution": 122,
  "BodyPartExamined": "BRAIN",
  "CoilCombinationMethod": "Adaptive Combine",
  "ConsistencyInfo": "N4_VE11C_LATEST_20160120",
  "ConversionSoftware": "dcm2niix",
  "ConversionSoftwareVersion": "v1.0.20220720",
  "DerivedVendorReportedEchoSpacing": 0.000570008,
  "DeviceSerialNumber": "66112",
  "DiffusionScheme": "Monopolar",
  "DwellTime": 2e-06,
  "EchoTime": 0.075,
  "EchoTrainLength": 61,
  "EffectiveEchoSpacing": 0.000285004,
  "FlipAngle": 90,
  "HeudiconvVersion": "0.13.1",
  "ImageOrientationPatientDICOM": [0.99996, 0.00767879, 0.00458342, -0.00872651, 0.949889, 0.312465],
  "ImageOrientationText": "Tra>Cor(18.2)>Sag(0.1)",
  "ImageType": [
    "ORIGINAL",
    "PRIMARY",
    "DIFFUSION",
    "NONE",
    "ND",
    "NORM"
],
  "ImagingFrequency": 123.252,
  "InPlanePhaseEncodingDirectionDICOM": "COL",
  "InstitutionAddress": "Maynard 3,Hanover,NH,US,03755",
  "InstitutionName": "Dartmouth College - PBS",
  "InstitutionalDepartmentName": "Department",
  "MRAcquisitionType": "2D",
  "MagneticFieldStrength": 3,
  "Manufacturer": "Siemens",
  "ManufacturersModelName": "Prisma",
  "MatrixCoilMode": "GRAPPA",
  "Modality": "MR",
  "NonlinearGradientCorrection": false,
  "ParallelReductionFactorInPlane": 2,
  "PartialFourier": 1,
  "PatientPosition": "HFS",
  "PercentPhaseFOV": 100,
  "PercentSampling": 100,
  "PhaseEncodingDirection": "j-",
  "PhaseEncodingSteps": 122,
  "PhaseResolution": 1,
  "PixelBandwidth": 2050,
  "ProcedureStepDescription": "dbic^QA",
  "ProtocolName": "dwi_acq-DTI-30-p2",
  "PulseSequenceDetails": "%SiemensSeq%\\ep2d_diff",
  "ReceiveCoilActiveElements": "HEA;HEP",
  "ReceiveCoilName": "Head_32",
  "ReconMatrixPE": 122,
  "RefLinesPE": 38,
  "RepetitionTime": 7.7,
  "SAR": 0.101832,
  "ScanOptions": "FS",
  "ScanningSequence": "EP",
  "SequenceName": "*ep_b0",
  "SequenceVariant": "SK\\SP",
  "SeriesDescription": "dwi_acq-DTI-30-p2",
  "SeriesNumber": 12,
  "ShimSetting": [4153, -7696, -7516, 236, -51, -97, -34, 94],
  "SliceThickness": 2,
  "SliceTiming": [3.84375, 0, 3.95312, 0.10938, 4.0625, 0.22656, 4.17188, 0.33594, 4.28125, 0.4375, 4.39062, 0.54688, 4.5, 0.66406, 4.60938, 0.77344, 4.71875, 0.88281, 4.82812, 0.99219, 4.9375, 1.10156, 5.04688, 1.21094, 5.15625, 1.32031, 5.26562, 1.42969, 5.375, 1.53906, 5.48438, 1.64844, 5.60156, 1.75781, 5.71094, 1.86719, 5.82031, 1.97656, 5.92969, 2.08594, 6.03906, 2.19531, 6.14844, 2.30469, 6.25781, 2.41406, 6.36719, 2.52344, 6.47656, 2.63281, 6.58594, 2.74219, 6.69531, 2.85156, 6.80469, 2.96875, 6.91406, 3.07812, 7.02344, 3.1875, 7.13281, 3.28906, 7.24219, 3.40625, 7.35156, 3.51562, 7.46094, 3.625, 7.57031, 3.73438],
  "SoftwareVersions": "syngo MR E11",
  "SpacingBetweenSlices": 2,
  "SpoilingState": true,
  "StationName": "AWP66112",
  "TotalReadoutTime": 0.0344855,
  "TxRefAmp": 226.881,
  "dcmmeta_affine": [
    [-1.9671344757080078, -0.017166906967759132, 0.003908812999725342, 121.36892700195312],
    [-0.01510582584887743, 1.8686347007751465, 0.6249847412109375, -120.8387451171875],
    [0.009016561321914196, -0.6146847605705261, 1.89984130859375, -18.131502151489258],
    [0.0, 0.0, 0.0, 1.0]
],
  "dcmmeta_reorient_transform": [
    [0.0, -1.0, 0.0, 121.0],
    [1.0, 0.0, 0.0, 0.0],
    [0.0, 0.0, -1.0, 69.0],
    [0.0, 0.0, 0.0, 1.0]
],
  "dcmmeta_shape": [122, 122, 70, 31],
  "dcmmeta_slice_dim": 2,
  "dcmmeta_version": 0.6,
  "global": {
    "const": {
      "AccessionNumber": "qa",
      "AcquisitionMatrix": [122, 0, 0, 122],
      "AngioFlag": "N",
      "BitsAllocated": 16,
      "BitsStored": 12,
      "BodyPartExamined": "BRAIN",
      "Columns": 122,
      "EchoNumbers": 1,
      "EchoTime": 75.0,
      "EchoTrainLength": 61,
      "FlipAngle": 90.0,
      "HighBit": 11,
      "ImageOrientationPatient": [0.99996001339289, 0.00767879475437, 0.00458341863915, -0.0087265104502, 0.94988927264692, 0.31246474637256],
      "ImageType": [
        "ORIGINAL",
        "PRIMARY",
        "DIFFUSION",
        "NONE",
        "ND",
        "NORM"
],
      "ImagedNucleus": "1H",
      "ImagingFrequency": 123.252363,
      "InPlanePhaseEncodingDirection": "COL",
      "MRAcquisitionType": "2D",
      "MagneticFieldStrength": 3.0,
      "Manufacturer": "SIEMENS",
      "ManufacturerModelName": "Prisma",
      "Modality": "MR",
      "NumberOfAverages": 1.0,
      "NumberOfPhaseEncodingSteps": 122,
      "PercentPhaseFieldOfView": 100.0,
      "PercentSampling": 100.0,
      "PerformedProcedureStepStartTime": "100002.637000",
      "PhotometricInterpretation": "MONOCHROME2",
      "PixelBandwidth": 2050.0,
      "PixelRepresentation": 0,
      "PixelSpacing": [1.9672131538391, 1.9672131538391],
      "ProtocolName": "dwi_acq-DTI-30-p2",
      "RepetitionTime": 7700.0,
      "Rows": 122,
      "SAR": 0.10183213203358,
      "SamplesPerPixel": 1,
      "ScanOptions": "FS",
      "ScanningSequence": "EP",
      "SequenceVariant": [
        "SK",
        "SP"
],
      "SeriesDescription": "dwi_acq-DTI-30-p2",
      "SeriesNumber": 12,
      "SeriesTime": "102953.213000",
      "SliceThickness": 2.0,
      "SmallestImagePixelValue": 0,
      "SoftwareVersions": "syngo MR E11",
      "SpacingBetweenSlices": 2.0,
      "SpecificCharacterSet": "ISO_IR 100",
      "StudyID": "6",
      "StudyTime": "100002.580000",
      "TransmitCoilName": "Body",
      "VariableFlipAngleFlag": "N",
      "WindowCenterWidthExplanation": "Algo1",
      "dBdt": 0.0},
    "slices": {
      "AcquisitionTime": ["102939.210000", "102935.370000", "102939.320000", "102935.480000", "102939.430000", "102935.590000", "102939.540000", "102935.700000", "102939.647500", "102935.807500", "102939.757500", "102935.917500", "102939.867500", "102936.027500", "102939.977500", "102936.137500", "102940.087500", "102936.247500", "102940.197500", "102936.357500", "102940.307500", "102936.467500", "102940.417500", "102936.577500", "102940.525000", "102936.687500", "102940.635000", "102936.795000", "102940.745000", "102936.905000", "102940.855000", "102937.015000", "102940.965000", "102937.125000", "102941.075000", "102937.235000", "102941.185000", "102937.345000", "102941.295000", "102937.455000", "102941.405000", "102937.565000", "102941.512500", "102937.675000", "102941.622500", "102937.782500", "102941.732500", "102937.892500", "102941.842500", "102938.002500", "102941.952500", "102938.112500", "102942.062500", "102938.222500", "102942.172500", "102938.332500", "102942.282500", "102938.442500", "102942.392500", "102938.552500", "102942.500000", "102938.660000", "102942.610000", "102938.770000", "102942.720000", "102938.880000", "102942.830000", "102938.990000", "102942.940000", "102939.100000", "102946.910000", "102943.070000", "102947.020000", "102943.180000", "102947.130000", "102943.290000", "102947.240000", "102943.400000", "102947.347500", "102943.507500", "102947.457500", "102943.617500", "102947.567500", "102943.727500", "102947.677500", "102943.837500", "102947.787500", "102943.947500", "102947.897500", "102944.057500", "102948.007500", "102944.167500", "102948.117500", "102944.277500", "102948.225000", "102944.387500", "102948.335000", "102944.495000", "102948.445000", "102944.605000", "102948.555000", "102944.715000", "102948.665000", "102944.825000", "102948.775000", "102944.935000", "102948.885000", "102945.045000", "102948.995000", "102945.155000", "102949.105000", "102945.265000", "102949.212500", "102945.375000", "102949.322500", "102945.482500", "102949.432500", "102945.592500", "102949.542500", "102945.702500", "102949.652500", "102945.812500", "102949.762500", "102945.922500", "102949.872500", "102946.032500", "102949.982500", "102946.142500", "102950.092500", "102946.252500", "102950.200000", "102946.360000", "102950.310000", "102946.470000", "102950.420000", "102946.580000", "102950.530000", "102946.690000", "102950.640000", "102946.800000", "102954.610000", "102950.770000", "102954.720000", "102950.880000", "102954.830000", "102950.990000", "102954.940000", "102951.100000", "102955.047500", "102951.207500", "102955.157500", "102951.317500", "102955.267500", "102951.427500", "102955.377500", "102951.537500", "102955.487500", "102951.647500", "102955.597500", "102951.757500", "102955.707500", "102951.867500", "102955.817500", "102951.977500", "102955.925000", "102952.087500", "102956.035000", "102952.195000", "102956.145000", "102952.305000", "102956.255000", "102952.415000", "102956.365000", "102952.525000", "102956.475000", "102952.635000", "102956.585000", "102952.745000", "102956.695000", "102952.855000", "102956.805000", "102952.965000", "102956.912500", "102953.075000", "102957.022500", "102953.182500", "102957.132500", "102953.292500", "102957.242500", "102953.402500", "102957.352500", "102953.512500", "102957.462500", "102953.622500", "102957.572500", "102953.732500", "102957.682500", "102953.842500", "102957.792500", "102953.952500", "102957.900000", "102954.060000", "102958.010000", "102954.170000", "102958.120000", "102954.280000", "102958.230000", "102954.390000", "102958.340000", "102954.500000", "103002.310000", "102958.470000", "103002.420000", "102958.580000", "103002.530000", "102958.690000", "103002.640000", "102958.800000", "103002.747500", "102958.907500", "103002.857500", "102959.017500", "103002.967500", "102959.127500", "103003.077500", "102959.237500", "103003.187500", "102959.347500", "103003.297500", "102959.457500", "103003.407500", "102959.567500", "103003.517500", "102959.677500", "103003.625000", "102959.787500", "103003.735000", "102959.895000", "103003.845000", "103000.005000", "103003.955000", "103000.115000", "103004.065000", "103000.225000", "103004.175000", "103000.335000", "103004.285000", "103000.445000", "103004.395000", "103000.555000", "103004.505000", "103000.665000", "103004.612500", "103000.775000", "103004.722500", "103000.882500", "103004.832500", "103000.992500", "103004.942500", "103001.102500", "103005.052500", "103001.212500", "103005.162500", "103001.322500", "103005.272500", "103001.432500", "103005.382500", "103001.542500", "103005.492500", "103001.652500", "103005.600000", "103001.760000", "103005.710000", "103001.870000", "103005.820000", "103001.980000", "103005.930000", "103002.090000", "103006.040000", "103002.200000", "103010.010000", "103006.170000", "103010.120000", "103006.280000", "103010.230000", "103006.390000", "103010.340000", "103006.500000", "103010.447500", "103006.607500", "103010.557500", "103006.717500", "103010.667500", "103006.827500", "103010.777500", "103006.937500", "103010.887500", "103007.047500", "103010.997500", "103007.157500", "103011.107500", "103007.267500", "103011.217500", "103007.377500", "103011.325000", "103007.487500", "103011.435000", "103007.595000", "103011.545000", "103007.705000", "103011.655000", "103007.815000", "103011.765000", "103007.925000", "103011.875000", "103008.035000", "103011.985000", "103008.145000", "103012.095000", "103008.255000", "103012.205000", "103008.365000", "103012.312500", "103008.475000", "103012.422500", "103008.582500", "103012.532500", "103008.692500", "103012.642500", "103008.802500", "103012.752500", "103008.912500", "103012.862500", "103009.022500", "103012.972500", "103009.132500", "103013.082500", "103009.242500", "103013.192500", "103009.352500", "103013.300000", "103009.460000", "103013.410000", "103009.570000", "103013.520000", "103009.680000", "103013.630000", "103009.790000", "103013.740000", "103009.900000", "103017.710000", "103013.870000", "103017.820000", "103013.980000", "103017.930000", "103014.090000", "103018.040000", "103014.200000", "103018.147500", "103014.307500", "103018.257500", "103014.417500", "103018.367500", "103014.527500", "103018.477500", "103014.637500", "103018.587500", "103014.747500", "103018.697500", "103014.857500", "103018.807500", "103014.967500", "103018.917500", "103015.077500", "103019.025000", "103015.187500", "103019.135000", "103015.295000", "103019.245000", "103015.405000", "103019.355000", "103015.515000", "103019.465000", "103015.625000", "103019.575000", "103015.735000", "103019.685000", "103015.845000", "103019.795000", "103015.955000", "103019.905000", "103016.065000", "103020.012500", "103016.175000", "103020.122500", "103016.282500", "103020.232500", "103016.392500", "103020.342500", "103016.502500", "103020.452500", "103016.612500", "103020.562500", "103016.722500", "103020.672500", "103016.832500", "103020.782500", "103016.942500", "103020.892500", "103017.052500", "103021.000000", "103017.160000", "103021.110000", "103017.270000", "103021.220000", "103017.380000", "103021.330000", "103017.490000", "103021.440000", "103017.600000", "103025.410000", "103021.570000", "103025.520000", "103021.680000", "103025.630000", "103021.790000", "103025.740000", "103021.900000", "103025.847500", "103022.007500", "103025.957500", "103022.117500", "103026.067500", "103022.227500", "103026.177500", "103022.337500", "103026.287500", "103022.447500", "103026.397500", "103022.557500", "103026.507500", "103022.667500", "103026.617500", "103022.777500", "103026.725000", "103022.887500", "103026.835000", "103022.995000", "103026.945000", "103023.105000", "103027.055000", "103023.215000", "103027.165000", "103023.325000", "103027.275000", "103023.435000", "103027.385000", "103023.545000", "103027.495000", "103023.655000", "103027.605000", "103023.765000", "103027.712500", "103023.875000", "103027.822500", "103023.982500", "103027.932500", "103024.092500", "103028.042500", "103024.202500", "103028.152500", "103024.312500", "103028.262500", "103024.422500", "103028.372500", "103024.532500", "103028.482500", "103024.642500", "103028.592500", "103024.752500", "103028.700000", "103024.860000", "103028.810000", "103024.970000", "103028.920000", "103025.080000", "103029.030000", "103025.190000", "103029.140000", "103025.300000", "103033.110000", "103029.270000", "103033.220000", "103029.380000", "103033.330000", "103029.490000", "103033.440000", "103029.600000", "103033.547500", "103029.707500", "103033.657500", "103029.817500", "103033.767500", "103029.927500", "103033.877500", "103030.037500", "103033.987500", "103030.147500", "103034.097500", "103030.257500", "103034.207500", "103030.367500", "103034.317500", "103030.477500", "103034.425000", "103030.587500", "103034.535000", "103030.695000", "103034.645000", "103030.805000", "103034.755000", "103030.915000", "103034.865000", "103031.025000", "103034.975000", "103031.135000", "103035.085000", "103031.245000", "103035.195000", "103031.355000", "103035.305000", "103031.465000", "103035.412500", "103031.575000", "103035.522500", "103031.682500", "103035.632500", "103031.792500", "103035.742500", "103031.902500", "103035.852500", "103032.012500", "103035.962500", "103032.122500", "103036.072500", "103032.232500", "103036.182500", "103032.342500", "103036.292500", "103032.452500", "103036.400000", "103032.560000", "103036.510000", "103032.670000", "103036.620000", "103032.780000", "103036.730000", "103032.890000", "103036.840000", "103033.000000", "103040.810000", "103036.970000", "103040.920000", "103037.080000", "103041.030000", "103037.190000", "103041.140000", "103037.300000", "103041.247500", "103037.407500", "103041.357500", "103037.517500", "103041.467500", "103037.627500", "103041.577500", "103037.737500", "103041.687500", "103037.847500", "103041.797500", "103037.957500", "103041.907500", "103038.067500", "103042.017500", "103038.177500", "103042.125000", "103038.287500", "103042.235000", "103038.395000", "103042.345000", "103038.505000", "103042.455000", "103038.615000", "103042.565000", "103038.725000", "103042.675000", "103038.835000", "103042.785000", "103038.945000", "103042.895000", "103039.055000", "103043.005000", "103039.165000", "103043.112500", "103039.275000", "103043.222500", "103039.382500", "103043.332500", "103039.492500", "103043.442500", "103039.602500", "103043.552500", "103039.712500", "103043.662500", "103039.822500", "103043.772500", "103039.932500", "103043.882500", "103040.042500", "103043.992500", "103040.152500", "103044.100000", "103040.260000", "103044.210000", "103040.370000", "103044.320000", "103040.480000", "103044.430000", "103040.590000", "103044.540000", "103040.700000", "103048.510000", "103044.670000", "103048.620000", "103044.780000", "103048.730000", "103044.890000", "103048.840000", "103045.000000", "103048.947500", "103045.107500", "103049.057500", "103045.217500", "103049.167500", "103045.327500", "103049.277500", "103045.437500", "103049.387500", "103045.547500", "103049.497500", "103045.657500", "103049.607500", "103045.767500", "103049.717500", "103045.877500", "103049.825000", "103045.987500", "103049.935000", "103046.095000", "103050.045000", "103046.205000", "103050.155000", "103046.315000", "103050.265000", "103046.425000", "103050.375000", "103046.535000", "103050.485000", "103046.645000", "103050.595000", "103046.755000", "103050.705000", "103046.865000", "103050.812500", "103046.975000", "103050.922500", "103047.082500", "103051.032500", "103047.192500", "103051.142500", "103047.302500", "103051.252500", "103047.412500", "103051.362500", "103047.522500", "103051.472500", "103047.632500", "103051.582500", "103047.742500", "103051.692500", "103047.852500", "103051.800000", "103047.960000", "103051.910000", "103048.070000", "103052.020000", "103048.180000", "103052.130000", "103048.290000", "103052.240000", "103048.400000", "103056.210000", "103052.370000", "103056.320000", "103052.480000", "103056.430000", "103052.590000", "103056.540000", "103052.700000", "103056.647500", "103052.807500", "103056.757500", "103052.917500", "103056.867500", "103053.027500", "103056.977500", "103053.137500", "103057.087500", "103053.247500", "103057.197500", "103053.357500", "103057.307500", "103053.467500", "103057.417500", "103053.577500", "103057.525000", "103053.687500", "103057.635000", "103053.795000", "103057.745000", "103053.905000", "103057.855000", "103054.015000", "103057.965000", "103054.125000", "103058.075000", "103054.235000", "103058.185000", "103054.345000", "103058.295000", "103054.455000", "103058.405000", "103054.565000", "103058.512500", "103054.675000", "103058.622500", "103054.782500", "103058.732500", "103054.892500", "103058.842500", "103055.002500", "103058.952500", "103055.112500", "103059.062500", "103055.222500", "103059.172500", "103055.332500", "103059.282500", "103055.442500", "103059.392500", "103055.552500", "103059.500000", "103055.660000", "103059.610000", "103055.770000", "103059.720000", "103055.880000", "103059.830000", "103055.990000", "103059.940000", "103056.100000", "103103.910000", "103100.070000", "103104.020000", "103100.180000", "103104.130000", "103100.290000", "103104.240000", "103100.400000", "103104.347500", "103100.507500", "103104.457500", "103100.617500", "103104.567500", "103100.727500", "103104.677500", "103100.837500", "103104.787500", "103100.947500", "103104.897500", "103101.057500", "103105.007500", "103101.167500", "103105.117500", "103101.277500", "103105.225000", "103101.387500", "103105.335000", "103101.495000", "103105.445000", "103101.605000", "103105.555000", "103101.715000", "103105.665000", "103101.825000", "103105.775000", "103101.935000", "103105.885000", "103102.045000", "103105.995000", "103102.155000", "103106.105000", "103102.265000", "103106.212500", "103102.375000", "103106.322500", "103102.482500", "103106.432500", "103102.592500", "103106.542500", "103102.702500", "103106.652500", "103102.812500", "103106.762500", "103102.922500", "103106.872500", "103103.032500", "103106.982500", "103103.142500", "103107.092500", "103103.252500", "103107.200000", "103103.360000", "103107.310000", "103103.470000", "103107.420000", "103103.580000", "103107.530000", "103103.690000", "103107.640000", "103103.800000", "103111.610000", "103107.770000", "103111.720000", "103107.880000", "103111.830000", "103107.990000", "103111.940000", "103108.100000", "103112.047500", "103108.207500", "103112.157500", "103108.317500", "103112.267500", "103108.427500", "103112.377500", "103108.537500", "103112.487500", "103108.647500", "103112.597500", "103108.757500", "103112.707500", "103108.867500", "103112.817500", "103108.977500", "103112.925000", "103109.087500", "103113.035000", "103109.195000", "103113.145000", "103109.305000", "103113.255000", "103109.415000", "103113.365000", "103109.525000", "103113.475000", "103109.635000", "103113.585000", "103109.745000", "103113.695000", "103109.855000", "103113.805000", "103109.965000", "103113.912500", "103110.075000", "103114.022500", "103110.182500", "103114.132500", "103110.292500", "103114.242500", "103110.402500", "103114.352500", "103110.512500", "103114.462500", "103110.622500", "103114.572500", "103110.732500", "103114.682500", "103110.842500", "103114.792500", "103110.952500", "103114.900000", "103111.060000", "103115.010000", "103111.170000", "103115.120000", "103111.280000", "103115.230000", "103111.390000", "103115.340000", "103111.500000", "103119.310000", "103115.470000", "103119.420000", "103115.580000", "103119.530000", "103115.690000", "103119.640000", "103115.800000", "103119.747500", "103115.907500", "103119.857500", "103116.017500", "103119.967500", "103116.127500", "103120.077500", "103116.237500", "103120.187500", "103116.347500", "103120.297500", "103116.457500", "103120.407500", "103116.567500", "103120.517500", "103116.677500", "103120.625000", "103116.787500", "103120.735000", "103116.895000", "103120.845000", "103117.005000", "103120.955000", "103117.115000", "103121.065000", "103117.225000", "103121.175000", "103117.335000", "103121.285000", "103117.445000", "103121.395000", "103117.555000", "103121.505000", "103117.665000", "103121.612500", "103117.775000", "103121.722500", "103117.882500", "103121.832500", "103117.992500", "103121.942500", "103118.102500", "103122.052500", "103118.212500", "103122.162500", "103118.322500", "103122.272500", "103118.432500", "103122.382500", "103118.542500", "103122.492500", "103118.652500", "103122.600000", "103118.760000", "103122.710000", "103118.870000", "103122.820000", "103118.980000", "103122.930000", "103119.090000", "103123.040000", "103119.200000", "103127.010000", "103123.170000", "103127.120000", "103123.280000", "103127.230000", "103123.390000", "103127.340000", "103123.500000", "103127.447500", "103123.607500", "103127.557500", "103123.717500", "103127.667500", "103123.827500", "103127.777500", "103123.937500", "103127.887500", "103124.047500", "103127.997500", "103124.157500", "103128.107500", "103124.267500", "103128.217500", "103124.377500", "103128.325000", "103124.487500", "103128.435000", "103124.595000", "103128.545000", "103124.705000", "103128.655000", "103124.815000", "103128.765000", "103124.925000", "103128.875000", "103125.035000", "103128.985000", "103125.145000", "103129.095000", "103125.255000", "103129.205000", "103125.365000", "103129.312500", "103125.475000", "103129.422500", "103125.582500", "103129.532500", "103125.692500", "103129.642500", "103125.802500", "103129.752500", "103125.912500", "103129.862500", "103126.022500", "103129.972500", "103126.132500", "103130.082500", "103126.242500", "103130.192500", "103126.352500", "103130.300000", "103126.460000", "103130.410000", "103126.570000", "103130.520000", "103126.680000", "103130.630000", "103126.790000", "103130.740000", "103126.900000", "103134.710000", "103130.870000", "103134.820000", "103130.980000", "103134.930000", "103131.090000", "103135.040000", "103131.200000", "103135.147500", "103131.307500", "103135.257500", "103131.417500", "103135.367500", "103131.527500", "103135.477500", "103131.637500", "103135.587500", "103131.747500", "103135.697500", "103131.857500", "103135.807500", "103131.967500", "103135.917500", "103132.077500", "103136.025000", "103132.187500", "103136.135000", "103132.295000", "103136.245000", "103132.405000", "103136.355000", "103132.515000", "103136.465000", "103132.625000", "103136.575000", "103132.735000", "103136.685000", "103132.845000", "103136.795000", "103132.955000", "103136.905000", "103133.065000", "103137.012500", "103133.175000", "103137.122500", "103133.282500", "103137.232500", "103133.392500", "103137.342500", "103133.502500", "103137.452500", "103133.612500", "103137.562500", "103133.722500", "103137.672500", "103133.832500", "103137.782500", "103133.942500", "103137.892500", "103134.052500", "103138.000000", "103134.160000", "103138.110000", "103134.270000", "103138.220000", "103134.380000", "103138.330000", "103134.490000", "103138.440000", "103134.600000", "103142.410000", "103138.570000", "103142.520000", "103138.680000", "103142.630000", "103138.790000", "103142.740000", "103138.900000", "103142.847500", "103139.007500", "103142.957500", "103139.117500", "103143.067500", "103139.227500", "103143.177500", "103139.337500", "103143.287500", "103139.447500", "103143.397500", "103139.557500", "103143.507500", "103139.667500", "103143.617500", "103139.777500", "103143.725000", "103139.887500", "103143.835000", "103139.995000", "103143.945000", "103140.105000", "103144.055000", "103140.215000", "103144.165000", "103140.325000", "103144.275000", "103140.435000", "103144.385000", "103140.545000", "103144.495000", "103140.655000", "103144.605000", "103140.765000", "103144.712500", "103140.875000", "103144.822500", "103140.982500", "103144.932500", "103141.092500", "103145.042500", "103141.202500", "103145.152500", "103141.312500", "103145.262500", "103141.422500", "103145.372500", "103141.532500", "103145.482500", "103141.642500", "103145.592500", "103141.752500", "103145.700000", "103141.860000", "103145.810000", "103141.970000", "103145.920000", "103142.080000", "103146.030000", "103142.190000", "103146.140000", "103142.300000", "103150.110000", "103146.270000", "103150.220000", "103146.380000", "103150.330000", "103146.490000", "103150.440000", "103146.600000", "103150.547500", "103146.707500", "103150.657500", "103146.817500", "103150.767500", "103146.927500", "103150.877500", "103147.037500", "103150.987500", "103147.147500", "103151.097500", "103147.257500", "103151.207500", "103147.367500", "103151.317500", "103147.477500", "103151.425000", "103147.587500", "103151.535000", "103147.695000", "103151.645000", "103147.805000", "103151.755000", "103147.915000", "103151.865000", "103148.025000", "103151.975000", "103148.135000", "103152.085000", "103148.245000", "103152.195000", "103148.355000", "103152.305000", "103148.465000", "103152.412500", "103148.575000", "103152.522500", "103148.682500", "103152.632500", "103148.792500", "103152.742500", "103148.902500", "103152.852500", "103149.012500", "103152.962500", "103149.122500", "103153.072500", "103149.232500", "103153.182500", "103149.342500", "103153.292500", "103149.452500", "103153.400000", "103149.560000", "103153.510000", "103149.670000", "103153.620000", "103149.780000", "103153.730000", "103149.890000", "103153.840000", "103150.000000", "103157.810000", "103153.970000", "103157.920000", "103154.080000", "103158.030000", "103154.190000", "103158.140000", "103154.300000", "103158.247500", "103154.407500", "103158.357500", "103154.517500", "103158.467500", "103154.627500", "103158.577500", "103154.737500", "103158.687500", "103154.847500", "103158.797500", "103154.957500", "103158.907500", "103155.067500", "103159.017500", "103155.177500", "103159.125000", "103155.287500", "103159.235000", "103155.395000", "103159.345000", "103155.505000", "103159.455000", "103155.615000", "103159.565000", "103155.725000", "103159.675000", "103155.835000", "103159.785000", "103155.945000", "103159.895000", "103156.055000", "103200.005000", "103156.165000", "103200.112500", "103156.275000", "103200.222500", "103156.382500", "103200.332500", "103156.492500", "103200.442500", "103156.602500", "103200.552500", "103156.712500", "103200.662500", "103156.822500", "103200.772500", "103156.932500", "103200.882500", "103157.042500", "103200.992500", "103157.152500", "103201.100000", "103157.260000", "103201.210000", "103157.370000", "103201.320000", "103157.480000", "103201.430000", "103157.590000", "103201.540000", "103157.700000", "103205.510000", "103201.670000", "103205.620000", "103201.780000", "103205.730000", "103201.890000", "103205.840000", "103202.000000", "103205.947500", "103202.107500", "103206.057500", "103202.217500", "103206.167500", "103202.327500", "103206.277500", "103202.437500", "103206.387500", "103202.547500", "103206.497500", "103202.657500", "103206.607500", "103202.767500", "103206.717500", "103202.877500", "103206.825000", "103202.987500", "103206.935000", "103203.095000", "103207.045000", "103203.205000", "103207.155000", "103203.315000", "103207.265000", "103203.425000", "103207.375000", "103203.535000", "103207.485000", "103203.645000", "103207.595000", "103203.755000", "103207.705000", "103203.865000", "103207.812500", "103203.975000", "103207.922500", "103204.082500", "103208.032500", "103204.192500", "103208.142500", "103204.302500", "103208.252500", "103204.412500", "103208.362500", "103204.522500", "103208.472500", "103204.632500", "103208.582500", "103204.742500", "103208.692500", "103204.852500", "103208.800000", "103204.960000", "103208.910000", "103205.070000", "103209.020000", "103205.180000", "103209.130000", "103205.290000", "103209.240000", "103205.400000", "103213.210000", "103209.370000", "103213.320000", "103209.480000", "103213.430000", "103209.590000", "103213.540000", "103209.700000", "103213.647500", "103209.807500", "103213.757500", "103209.917500", "103213.867500", "103210.027500", "103213.977500", "103210.137500", "103214.087500", "103210.247500", "103214.197500", "103210.357500", "103214.307500", "103210.467500", "103214.417500", "103210.577500", "103214.525000", "103210.687500", "103214.635000", "103210.795000", "103214.745000", "103210.905000", "103214.855000", "103211.015000", "103214.965000", "103211.125000", "103215