{
  "AcquisitionMatrixPE": 80,
  "AcquisitionNumber": 1,
  "AcquisitionTime": "14:30:42.737500",
  "BandwidthPerPixelPhaseEncode": 48.077,
  "BaseResolution": 80,
  "BodyPartExamined": "BRAIN",
  "CoilCombinationMethod": "Sum of Squares",
  "ConsistencyInfo": "N4_VE11E_LATEST_20181129",
  "ConversionSoftware": "dcm2niix",
  "ConversionSoftwareVersion": "v1.0.20220720",
  "DerivedVendorReportedEchoSpacing": 0.000519999,
  "DeviceSerialNumber": "66112",
  "DwellTime": 2.7e-06,
  "EchoTime": 0.035,
  "EchoTrainLength": 39,
  "EffectiveEchoSpacing": 0.00026,
  "FlipAngle": 90,
  "HeudiconvVersion": "0.13.1",
  "ImageOrientationPatientDICOM": [0.984414, 0.175632, 0.00911918, -0.170215, 0.938442, 0.300588],
  "ImageOrientationText": "Tra>Cor(17.3)>Sag(-2.5)",
  "ImageType": [
    "ORIGINAL",
    "PRIMARY",
    "M",
    "ND",
    "NORM",
    "MOSAIC"
],
  "ImagingFrequency": 123.261,
  "InPlanePhaseEncodingDirectionDICOM": "COL",
  "InstitutionAddress": "Maynard 3,Hanover,NH,US,03755",
  "InstitutionName": "Dartmouth College - PBS",
  "InstitutionalDepartmentName": "Department",
  "MRAcquisitionType": "2D",
  "MagneticFieldStrength": 3,
  "Manufacturer": "Siemens",
  "ManufacturersModelName": "Prisma",
  "MatrixCoilMode": "GRAPPA",
  "Modality": "MR",
  "NonlinearGradientCorrection": false,
  "ParallelReductionFactorInPlane": 2,
  "PartialFourier": 1,
  "PatientPosition": "HFS",
  "PercentPhaseFOV": 100,
  "PercentSampling": 100,
  "PhaseEncodingDirection": "j-",
  "PhaseEncodingSteps": 79,
  "PhaseResolution": 1,
  "PixelBandwidth": 2315,
  "ProcedureStepDescription": "dbic^QA",
  "ProtocolName": "func-bold_task-rest_acq-p2",
  "PulseSequenceDetails": "%SiemensSeq%\\ep2d_bold",
  "ReceiveCoilActiveElements": "HEA;HEP",
  "ReceiveCoilName": "Head_32",
  "ReconMatrixPE": 80,
  "RefLinesPE": 24,
  "RepetitionTime": 2,
  "SAR": 0.0469232,
  "ScanOptions": "FS",
  "ScanningSequence": "EP",
  "SequenceName": "*epfid2d1_80",
  "SequenceVariant": "SK",
  "SeriesDescription": "func-bold_task-rest_acq-p2",
  "SeriesNumber": 5,
  "ShimSetting": [4253, -7733, -7480, -44, -158, -8, -22, 94],
  "SliceThickness": 3.5,
  "SliceTiming": [0.99, 0, 1.055, 0.065, 1.12, 0.13, 1.1875, 0.1975, 1.2525, 0.2625, 1.32, 0.33, 1.385, 0.395, 1.45, 0.46, 1.5175, 0.5275, 1.5825, 0.5925, 1.65, 0.66, 1.715, 0.725, 1.78, 0.79, 1.8475, 0.8575, 1.9125, 0.9225],
  "SoftwareVersions": "syngo MR E11",
  "SpacingBetweenSlices": 3.99,
  "StationName": "AWP66112",
  "TaskName": "rest",
  "TotalReadoutTime": 0.02054,
  "TxRefAmp": 220.7,
  "dcmmeta_affine": [
    [-2.9532408714294434, -0.5106440782546997, -0.17649798095226288, 142.19100952148438],
    [-0.5268962383270264, 2.815326690673828, 1.1868462562561035, -104.45023345947266],
    [0.02735753357410431, -0.9017641544342041, 3.805304765701294, -28.30561065673828],
    [0.0, 0.0, 0.0, 1.0]
],
  "dcmmeta_reorient_transform": [
    [0.0, -1.0, 0.0, 79.0],
    [1.0, 0.0, 0.0, 0.0],
    [0.0, 0.0, 1.0, 0.0],
    [0.0, 0.0, 0.0, 1.0]
],
  "dcmmeta_shape": [80, 80, 30, 200],
  "dcmmeta_slice_dim": 2,
  "dcmmeta_version": 0.6,
  "global": {
    "const": {
      "AccessionNumber": "qa",
      "AcquisitionMatrix": [80, 0, 0, 80],
      "AngioFlag": "N",
      "BitsAllocated": 16,
      "BitsStored": 12,
      "BodyPartExamined": "BRAIN",
      "Columns": 480,
      "EchoNumbers": 1,
      "EchoTime": 35.0,
      "EchoTrainLength": 39,
      "FlipAngle": 90.0,
      "HighBit": 11,
      "ImageOrientationPatient": [0.98441364061438, 0.17563207215666, 0.00911917772131, -0.1702146929764, 0.93844220859758, 0.30058805601263],
      "ImagePositionPatient": [-590.36949969987, -786.40513722576, -285.36931998278],
      "ImageType": [
        "ORIGINAL",
        "PRIMARY",
        "M",
        "ND",
        "NORM",
        "MOSAIC"
],
      "ImagedNucleus": "1H",
      "ImagingFrequency": 123.261234,
      "InPlanePhaseEncodingDirection": "COL",
      "MRAcquisitionType": "2D",
      "MagneticFieldStrength": 3.0,
      "Manufacturer": "SIEMENS",
      "ManufacturerModelName": "Prisma",
      "Modality": "MR",
      "NumberOfAverages": 1.0,
      "NumberOfPhaseEncodingSteps": 79,
      "PercentPhaseFieldOfView": 100.0,
      "PercentSampling": 100.0,
      "PerformedProcedureStepStartTime": "142908.147000",
      "PhotometricInterpretation": "MONOCHROME2",
      "PixelBandwidth": 2315.0,
      "PixelRepresentation": 0,
      "PixelSpacing": [3.0, 3.0],
      "ProtocolName": "func-bold_task-rest_acq-p2",
      "RepetitionTime": 2000.0,
      "Rows": 480,
      "SAR": 0.04692318096398,
      "SamplesPerPixel": 1,
      "ScanOptions": "FS",
      "ScanningSequence": "EP",
      "SequenceName": "*epfid2d1_80",
      "SequenceVariant": "SK",
      "SeriesDescription": "func-bold_task-rest_acq-p2",
      "SeriesNumber": 5,
      "SeriesTime": "143122.747000",
      "SliceLocation": -64.354453689745,
      "SliceThickness": 3.5,
      "SmallestImagePixelValue": 0,
      "SoftwareVersions": "syngo MR E11",
      "SpacingBetweenSlices": 3.9900000304928,
      "SpecificCharacterSet": "ISO_IR 100",
      "StudyID": "31",
      "StudyTime": "142908.099000",
      "TransmitCoilName": "Body",
      "VariableFlipAngleFlag": "N",
      "WindowCenterWidthExplanation": "Algo1"
    },
    "slices": {}
  },
  "time": {
    "samples": {
      "AcquisitionNumber": [1, 2, 3, 4, 5, 6, 7, 8, 9, 10, 11, 12, 13, 14, 15, 16, 17, 18, 19, 20, 21, 22, 23, 24, 25, 26, 27, 28, 29, 30, 31, 32, 33, 34, 35, 36, 37, 38, 39, 40, 41, 42, 43, 44, 45, 46, 47, 48, 49, 50, 51, 52, 53, 54, 55, 56, 57, 58, 59, 60, 61, 62, 63, 64, 65, 66, 67, 68, 69, 70, 71, 72, 73, 74, 75, 76, 77, 78, 79, 80, 81, 82, 83, 84, 85, 86, 87, 88, 89, 90, 91, 92, 93, 94, 95, 96, 97, 98, 99, 100, 101, 102, 103, 104, 105, 106, 107, 108, 109, 110, 111, 112, 113, 114, 115, 116, 117, 118, 119, 120, 121, 122, 123, 124, 125, 126, 127, 128, 129, 130, 131, 132, 133, 134, 135, 136, 137, 138, 139, 140, 141, 142, 143, 144, 145, 146, 147, 148, 149, 150, 151, 152, 153, 154, 155, 156, 157, 158, 159, 160, 161, 162, 163, 164, 165, 166, 167, 168, 169, 170, 171, 172, 173, 174, 175, 176, 177, 178, 179, 180, 181, 182, 183, 184, 185, 186, 187, 188, 189, 190, 191, 192, 193, 194, 195, 196, 197, 198, 199, 200],
      "AcquisitionTime": ["143042.737500", "143044.737500", "143046.737500", "143048.737500", "143050.737500", "143052.737500", "143054.737500", "143056.737500", "143058.737500", "143100.737500", "143102.737500", "143104.737500", "143106.737500", "143108.737500", "143110.737500", "143112.737500", "143114.737500", "143116.737500", "143118.737500", "143120.737500", "143122.737500", "143124.737500", "143126.737500", "143128.737500", "143130.737500", "143132.737500", "143134.737500", "143136.737500", "143138.737500", "143140.737500", "143142.737500", "143144.737500", "143146.737500", "143148.737500", "143150.737500", "143152.737500", "143154.737500", "143156.737500", "143158.737500", "143200.737500", "143202.737500", "143204.737500", "143206.737500", "143208.737500", "143210.737500", "143212.737500", "143214.737500", "143216.737500", "143218.737500", "143220.737500", "143222.737500", "143224.737500", "143226.737500", "143228.737500", "143230.737500", "143232.737500", "143234.737500", "143236.737500", "143238.737500", "143240.737500", "143242.737500", "143244.737500", "143246.737500", "143248.737500", "143250.737500", "143252.737500", "143254.737500", "143256.737500", "143258.737500", "143300.737500", "143302.737500", "143304.737500", "143306.737500", "143308.737500", "143310.737500", "143312.737500", "143314.737500", "143316.737500", "143318.737500", "143320.737500", "143322.737500", "143324.737500", "143326.737500", "143328.737500", "143330.737500", "143332.737500", "143334.737500", "143336.737500", "143338.737500", "143340.737500", "143342.737500", "143344.737500", "143346.737500", "143348.737500", "143350.737500", "143352.737500", "143354.737500", "143356.737500", "143358.737500", "143400.737500", "143402.737500", "143404.737500", "143406.737500", "143408.737500", "143410.737500", "143412.737500", "143414.737500", "143416.737500", "143418.737500", "143420.737500", "143422.737500", "143424.737500", "143426.737500", "143428.737500", "143430.737500", "143432.737500", "143434.737500", "143436.737500", "143438.737500", "143440.737500", "143442.737500", "143444.737500", "143446.737500", "143448.737500", "143450.737500", "143452.737500", "143454.737500", "143456.737500", "143458.737500", "143500.737500", "143502.737500", "143504.737500", "143506.737500", "143508.737500", "143510.737500", "143512.737500", "143514.737500", "143516.737500", "143518.737500", "143520.737500", "143522.737500", "143524.737500", "143526.737500", "143528.737500", "143530.737500", "143532.737500", "143534.737500", "143536.737500", "143538.737500", "143540.737500", "143542.737500", "143544.737500", "143546.737500", "143548.737500", "143550.737500", "143552.737500", "143554.737500", "143556.737500", "143558.737500", "143600.737500", "143602.737500", "143604.737500", "143606.737500", "143608.737500", "143610.737500", "143612.737500", "143614.737500", "143616.737500", "143618.737500", "143620.737500", "143622.737500", "143624.737500", "143626.737500", "143628.737500", "143630.737500", "143632.737500", "143634.737500", "143636.737500", "143638.737500", "143640.737500", "143642.737500", "143644.737500", "143646.737500", "143648.737500", "143650.737500", "143652.737500", "143654.737500", "143656.737500", "143658.737500", "143700.737500", "143702.737500", "143704.737500", "143706.737500", "143708.737500", "143710.737500", "143712.737500", "143714.737500", "143716.737500", "143718.737500", "143720.737500"],
      "ContentTime": ["143122.750000", "143122.754000", "143122.756000", "143122.758000", "143122.760000", "143122.763000", "143122.765000", "143122.772000", "143122.774000", "143122.777000", "143122.786000", "143122.788000", "143122.790000", "143122.793000", "143122.797000", "143122.799000", "143122.802000", "143122.804000", "143122.806000", "143122.809000", "143202.745000", "143202.748000", "143202.750000", "143202.752000", "143202.755000", "143202.757000", "143202.759000", "143202.762000", "143202.764000", "143202.766000", "143202.768000", "143202.771000", "143202.773000", "143202.775000", "143202.778000", "143202.780000", "143202.782000", "143202.785000", "143202.787000", "143202.789000", "143242.745000", "143242.748000", "143242.750000", "143242.752000", "143242.755000", "143242.757000", "143242.759000", "143242.762000", "143242.764000", "143242.766000", "143242.768000", "143242.771000", "143242.773000", "143242.775000", "143242.778000", "143242.787000", "143242.789000", "143242.792000", "143242.794000", "143242.796000", "143322.745000", "143322.748000", "143322.750000", "143322.753000", "143322.755000", "143322.757000", "143322.759000", "143322.762000", "143322.764000", "143322.766000", "143322.769000", "143322.778000", "143322.780000", "143322.783000", "143322.785000", "143322.787000", "143322.790000", "143322.792000", "143322.795000", "143322.797000", "143402.745000", "143402.748000", "143402.750000", "143402.752000", "143402.755000", "143402.757000", "143402.759000", "143402.762000", "143402.764000", "143402.766000", "143402.769000", "143402.771000", "143402.773000", "143402.775000", "143402.785000", "143402.787000", "143402.789000", "143402.791000", "143402.794000", "143402.796000", "143442.745000", "143442.754000", "143442.756000", "143442.758000", "143442.761000", "143442.763000", "143442.765000", "143442.768000", "143442.770000", "143442.772000", "143442.774000", "143442.777000", "143442.779000", "143442.781000", "143442.784000", "143442.786000", "143442.788000", "143442.791000", "143442.793000", "143442.795000", "143522.745000", "143522.748000", "143522.750000", "143522.752000", "143522.755000", "143522.757000", "143522.759000", "143522.761000", "143522.772000", "143522.774000", "143522.776000", "143522.779000", "143522.781000", "143522.783000", "143522.786000", "143522.788000", "143522.790000", "143522.793000", "143522.795000", "143522.797000", "143602.745000", "143602.748000", "143602.750000", "143602.752000", "143602.754000", "143602.757000", "143602.759000", "143602.761000", "143602.764000", "143602.766000", "143602.768000", "143602.771000", "143602.773000", "143602.776000", "143602.778000", "143602.780000", "143602.782000", "143602.785000", "143602.787000", "143602.789000", "143642.745000", "143642.748000", "143642.750000", "143642.752000", "143642.755000", "143642.757000", "143642.759000", "143642.762000", "143642.764000", "143642.766000", "143642.769000", "143642.771000", "143642.773000", "143642.778000", "143642.781000", "143642.783000", "143642.785000", "143642.787000", "143642.790000", "143642.792000", "143722.261000", "143722.264000", "143722.266000", "143722.269000", "143722.271000", "143722.273000", "143722.276000", "143722.278000", "143722.280000", "143722.283000", "143722.285000", "143722.287000", "143722.290000", "143722.298000", "143722.301000", "143722.303000", "143722.306000", "143722.309000", "143722.314000", "143722.317000"],
      "InstanceCreationTime": ["143122.750000", "143122.754000", "143122.756000", "143122.758000", "143122.760000", "143122.763000", "143122.765000", "143122.772000", "143122.774000", "143122.777000", "143122.786000", "143122.788000", "143122.790000", "143122.793000", "143122.797000", "143122.799000", "143122.802000", "143122.804000", "143122.806000", "143122.809000", "143202.745000", "143202.748000", "143202.750000", "143202.752000", "143202.755000", "143202.757000", "143202.759000", "143202.762000", "143202.764000", "143202.766000", "143202.768000", "143202.771000", "143202.773000", "143202.775000", "143202.778000", "143202.780000", "143202.782000", "143202.785000", "143202.787000", "143202.789000", "143242.745000", "143242.748000", "143242.750000", "143242.752000", "143242.755000", "143242.757000", "143242.759000", "143242.762000", "143242.764000", "143242.766000", "143242.768000", "143242.771000", "143242.773000", "143242.775000", "143242.778000", "143242.787000", "143242.789000", "143242.792000", "143242.794000", "143242.796000", "143322.745000", "143322.748000", "143322.750000", "143322.753000", "143322.755000", "143322.757000", "143322.759000", "143322.762000", "143322.764000", "143322.766000", "143322.769000", "143322.778000", "143322.780000", "143322.783000", "143322.785000", "143322.787000", "143322.790000", "143322.792000", "143322.795000", "143322.797000", "143402.745000", "143402.748000", "143402.750000", "143402.752000", "143402.755000", "143402.757000", "143402.759000", "143402.762000", "143402.764000", "143402.766000", "143402.769000", "143402.771000", "143402.773000", "143402.775000", "143402.785000", "143402.787000", "143402.789000", "143402.791000", "143402.794000", "143402.796000", "143442.745000", "143442.754000", "143442.756000", "143442.758000", "143442.761000", "143442.763000", "143442.765000", "143442.768000", "143442.770000", "143442.772000", "143442.774000", "143442.777000", "143442.779000", "143442.781000", "143442.784000", "143442.786000", "143442.788000", "143442.791000", "143442.793000", "143442.795000", "143522.745000", "143522.748000", "143522.750000", "143522.752000", "143522.755000", "143522.757000", "143522.759000", "143522.761000", "143522.772000", "143522.774000", "143522.776000", "143522.779000", "143522.781000", "143522.783000", "143522.786000", "143522.788000", "143522.790000", "143522.793000", "143522.795000", "143522.797000", "143602.745000", "143602.748000", "143602.750000", "143602.752000", "143602.754000", "143602.757000", "143602.759000", "143602.761000", "143602.764000", "143602.766000", "143602.768000", "143602.771000", "143602.773000", "143602.776000", "143602.778000", "143602.780000", "143602.782000", "143602.785000", "143602.787000", "143602.789000", "143642.745000", "143642.748000", "143642.750000", "143642.752000", "143642.755000", "143642.757000", "143642.759000", "143642.762000", "143642.764000", "143642.766000", "143642.769000", "143642.771000", "143642.773000", "143642.778000", "143642.781000", "143642.783000", "143642.785000", "143642.787000", "143642.790000", "143642.792000", "143722.261000", "143722.264000", "143722.266000", "143722.269000", "143722.271000", "143722.273000", "143722.276000", "143722.278000", "143722.280000", "143722.283000", "143722.285000", "143722.287000", "143722.290000", "143722.298000", "143722.301000", "143722.303000", "143722.306000", "143722.309000", "143722.314000", "143722.317000"],
      "InstanceNumber": [1, 2, 3, 4, 5, 6, 7, 8, 9, 10, 11, 12, 13, 14, 15, 16, 17, 18, 19, 20, 21, 22, 23, 24, 25, 26, 27, 28, 29, 30, 31, 32, 33, 34, 35, 36, 37, 38, 39, 40, 41, 42, 43, 44, 45, 46, 47, 48, 49, 50, 51, 52, 53, 54, 55, 56, 57, 58, 59, 60, 61, 62, 63, 64, 65, 66, 67, 68, 69, 70, 71, 72, 73, 74, 75, 76, 77, 78, 79, 80, 81, 82, 83, 84, 85, 86, 87, 88, 89, 90, 91, 92, 93, 94, 95, 96, 97, 98, 99, 100, 101, 102, 103, 104, 105, 106, 107, 108, 109, 110, 111, 112, 113, 114, 115, 116, 117, 118, 119, 120, 121, 122, 123, 124, 125, 126, 127, 128, 129, 130, 131, 132, 133, 134, 135, 136, 137, 138, 139, 140, 141, 142, 143, 144, 145, 146, 147, 148, 149, 150, 151, 152, 153, 154, 155, 156, 157, 158, 159, 160, 161, 162, 163, 164, 165, 166, 167, 168, 169, 170, 171, 172, 173, 174, 175, 176, 177, 178, 179, 180, 181, 182, 183, 184, 185, 186, 187, 188, 189, 190, 191, 192, 193, 194, 195, 196, 197, 198, 199, 200],
      "LargestImagePixelValue": [2202, 2205, 2199, 2209, 2209, 2206, 2199, 2202, 2200, 2206, 2202, 2214, 2204, 2207, 2211, 2200, 2206, 2198, 2202, 2215, 2208, 2201, 2200, 2200, 2199, 2205, 2202, 2208, 2196, 2204, 2198, 2202, 2196, 2200, 2206, 2206, 2198, 2202, 2204, 2204, 2206, 2205, 2192, 2201, 2192, 2212, 2206, 2198, 2202, 2200, 2197, 2198, 2202, 2208, 2201, 2198, 2191, 2199, 2201, 2205, 2202, 2203, 2196, 2198, 2192, 2196, 2204, 2199, 2205, 2194, 2196, 2196, 2201, 2199, 2208, 2204, 2201, 2199, 2204, 2201, 2204, 2202, 2204, 2194, 2203, 2200, 2202, 2208, 2201, 2202, 2199, 2201, 2195, 2203, 2205, 2190, 2202, 2197, 2203, 2201, 2207, 2199, 2200, 2198, 2207, 2205, 2199, 2196, 2197, 2199, 2200, 2204, 2196, 2203, 2194, 2196, 2201, 2199, 2199, 2198, 2204, 2197, 2199, 2198, 2191, 2197, 2191, 2202, 2189, 2194, 2199, 2199, 2197, 2195, 2205, 2194, 2200, 2196, 2197, 2203, 2196, 2198, 2197, 2194, 2189, 2196, 2200, 2195, 2194, 2194, 2202, 2191, 2196, 2201, 2195, 2196, 2193, 2197, 2202, 2184, 2201, 2201, 2197, 2196, 2188, 2202, 2201, 2200, 2195, 2200, 2198, 2196, 2193, 2204, 2195, 2196, 2194, 2200, 2204, 2197, 2194, 2197, 2197, 2198, 2200, 2193, 2195, 2194, 2201, 2190, 2190, 2200, 2194, 2184, 2193, 2196, 2191, 2200, 2194, 2193],
      "WindowCenter": [1035.0, 1034.0, 1035.0, 1035.0, 1034.0, 1034.0, 1034.0, 1034.0, 1034.0, 1034.0, 1034.0, 1034.0, 1034.0, 1034.0, 1034.0, 1034.0, 1034.0, 1034.0, 1034.0, 1034.0, 1034.0, 1034.0, 1034.0, 1034.0, 1034.0, 1034.0, 1034.0, 1034.0, 1034.0, 1034.0, 1034.0, 1034.0, 1034.0, 1034.0, 1034.0, 1034.0, 1033.0, 1034.0, 1033.0, 1034.0, 1034.0, 1033.0, 1033.0, 1033.0, 1033.0, 1033.0, 1033.0, 1033.0, 1033.0, 1033.0, 1033.0, 1033.0, 1033.0, 1033.0, 1033.0, 1033.0, 1034.0, 1033.0, 1033.0, 1033.0, 1033.0, 1033.0, 1033.0, 1033.0, 1033.0, 1033.0, 1033.0, 1033.0, 1033.0, 1033.0, 1033.0, 1033.0, 1033.0, 1033.0, 1033.0, 1033.0, 1033.0, 1033.0, 1033.0, 1033.0, 1033.0, 1033.0, 1033.0, 1033.0, 1032.0, 1032.0, 1032.0, 1033.0, 1033.0, 1032.0, 1032.0, 1033.0, 1032.0, 1032.0, 1032.0, 1033.0, 1033.0, 1032.0, 1032.0, 1033.0, 1032.0, 1032.0, 1032.0, 1032.0, 1032.0, 1032.0, 1032.0, 1032.0, 1032.0, 1032.0, 1032.0, 1032.0, 1032.0, 1032.0, 1032.0, 1032.0, 1032.0, 1032.0, 1032.0, 1032.0, 1032.0, 1032.0, 1032.0, 1032.0, 1032.0, 1032.0, 1032.0, 1032.0, 1032.0, 1032.0, 1032.0, 1032.0, 1032.0, 1032.0, 1033.0, 1032.0, 1032.0, 1032.0, 1032.0, 1032.0, 1032.0, 1032.0, 1033.0, 1032.0, 1032.0, 1032.0, 1032.0, 1032.0, 1032.0, 1032.0, 1032.0, 1032.0, 1032.0, 1032.0, 1032.0, 1032.0, 1032.0, 1032.0, 1031.0, 1031.0, 1031.0, 1031.0, 1031.0, 1031.0, 1031.0, 1031.0, 1032.0, 1031.0, 1031.0, 1032.0, 1031.0, 1031.0, 1032.0, 1032.0, 1031.0, 1031.0, 1031.0, 1031.0, 1031.0, 1031.0, 1031.0, 1031.0, 1031.0, 1031.0, 1031.0, 1031.0, 1031.0, 1031.0, 1031.0, 1031.0, 1031.0, 1031.0, 1031.0, 1031.0, 1031.0, 1031.0, 1031.0, 1031.0, 1031.0, 1031.0],
      "WindowWidth": [2316.0, 2316.0, 2315.0, 2315.0, 2315.0, 2315.0, 2315.0, 2315.0, 2315.0, 2315.0, 2315.0, 2315.0, 2314.0, 2314.0, 2314.0, 2314.0, 2314.0, 2314.0, 2314.0, 2314.0, 2313.0, 2313.0, 2314.0, 2314.0, 2314.0, 2313.0, 2313.0, 2313.0, 2313.0, 2313.0, 2313.0, 2313.0, 2313.0, 2313.0, 2313.0, 2313.0, 2313.0, 2312.0, 2313.0, 2312.0, 2312.0, 2312.0, 2312.0, 2312.0, 2312.0, 2312.0, 2312.0, 2312.0, 2312.0, 2311.0, 2312.0, 2312.0, 2312.0, 2311.0, 2311.0, 2311.0, 2312.0, 2311.0, 2311.0, 2311.0, 2311.0, 2311.0, 2311.0, 2311.0, 2311.0, 2310.0, 2310.0, 2310.0, 2310.0, 2310.0, 2310.0, 2310.0, 2310.0, 2310.0, 2310.0, 2310.0, 2310.0, 2311.0, 2311.0, 2311.0, 2311.0, 2311.0, 2310.0, 2310.0, 2310.0, 2310.0, 2310.0, 2310.0, 2311.0, 2311.0, 2310.0, 2310.0, 2310.0, 2310.0, 2310.0, 2310.0, 2310.0, 2310.0, 2310.0, 2311.0, 2310.0, 2310.0, 2310.0, 2309.0, 2310.0, 2310.0, 2309.0, 2309.0, 2309.0, 2309.0, 2309.0, 2309.0, 2309.0, 2309.0, 2309.0, 2309.0, 2309.0, 2309.0, 2309.0, 2309.0, 2309.0, 2309.0, 2309.0, 2309.0, 2309.0, 2309.0, 2309.0, 2308.0, 2308.0, 2308.0, 2309.0, 2308.0, 2308.0, 2308.0, 2309.0, 2308.0, 2308.0, 2308.0, 2308.0, 2308.0, 2308.0, 2308.0, 2309.0, 2308.0, 2308.0, 2308.0, 2308.0, 2308.0, 2308.0, 2308.0, 2308.0, 2307.0, 2308.0, 2308.0, 2307.0, 2307.0, 2307.0, 2307.0, 2307.0, 2307.0, 2307.0, 2307.0, 2307.0, 2307.0, 2307.0, 2307.0, 2307.0, 2307.0, 2307.0, 2307.0, 2307.0, 2307.0, 2307.0, 2308.0, 2307.0, 2307.0, 2307.0, 2307.0, 2307.0, 2306.0, 2307.0, 2307.0, 2307.0, 2307.0, 2306.0, 2306.0, 2306.0, 2306.0, 2306.0, 2307.0, 2306.0, 2306.0, 2306.0, 2306.0, 2306.0, 2306.0, 2306.0, 2306.0, 2306.0, 2306.0]
    },
    "slices": {}
  }
}