{
  "AcquisitionMatrixPE": 122,
  "AcquisitionNumber": 1,
  "AcquisitionTime": "10:09:47.182500",
  "BandwidthPerPixelPhaseEncode": 28.76,
  "BaseResolution": 122,
  "BodyPartExamined": "BRAIN",
  "CoilCombinationMethod": "Adaptive Combine",
  "ConsistencyInfo": "N4_VE11C_LATEST_20160120",
  "ConversionSoftware": "dcm2niix",
  "ConversionSoftwareVersion": "v1.0.20220720",
  "DerivedVendorReportedEchoSpacing": 0.000570008,
  "DeviceSerialNumber": "66112",
  "DiffusionScheme": "Monopolar",
  "DwellTime": 2e-06,
  "EchoTime": 0.075,
  "EchoTrainLength": 61,
  "EffectiveEchoSpacing": 0.000285004,
  "FlipAngle": 90,
  "HeudiconvVersion": "0.13.1",
  "ImageOrientationPatientDICOM": [0.994457, -0.10489, 0.00723879, 0.0901527, 0.886108, 0.454625],
  "ImageOrientationText": "Tra>Cor(26.9)>Sag(3.1)",
  "ImageType": [
    "ORIGINAL",
    "PRIMARY",
    "DIFFUSION",
    "NONE",
    "ND",
    "NORM"
],
  "ImagingFrequency": 123.252,
  "InPlanePhaseEncodingDirectionDICOM": "COL",
  "InstitutionAddress": "Maynard 3,Hanover,NH,US,03755",
  "InstitutionName": "Dartmouth College - PBS",
  "InstitutionalDepartmentName": "Department",
  "MRAcquisitionType": "2D",
  "MagneticFieldStrength": 3,
  "Manufacturer": "Siemens",
  "ManufacturersModelName": "Prisma",
  "MatrixCoilMode": "GRAPPA",
  "Modality": "MR",
  "NonlinearGradientCorrection": false,
  "ParallelReductionFactorInPlane": 2,
  "PartialFourier": 1,
  "PatientPosition": "HFS",
  "PercentPhaseFOV": 100,
  "PercentSampling": 100,
  "PhaseEncodingDirection": "j-",
  "PhaseEncodingSteps": 122,
  "PhaseResolution": 1,
  "PixelBandwidth": 2050,
  "ProcedureStepDescription": "dbic^QA",
  "ProtocolName": "dwi_acq-DTI-30-p2",
  "PulseSequenceDetails": "%SiemensSeq%\\ep2d_diff",
  "ReceiveCoilActiveElements": "HEA;HEP",
  "ReceiveCoilName": "Head_32",
  "ReconMatrixPE": 122,
  "RefLinesPE": 38,
  "RepetitionTime": 7.7,
  "SAR": 0.101554,
  "ScanOptions": "FS",
  "ScanningSequence": "EP",
  "SequenceName": "*ep_b0",
  "SequenceVariant": "SK\\SP",
  "SeriesDescription": "dwi_acq-DTI-30-p2",
  "SeriesNumber": 12,
  "ShimSetting": [4145, -7709, -7516, 219, -76, -74, -1, 58],
  "SliceThickness": 2,
  "SliceTiming": [3.83594, 0, 3.94531, 0.10938, 4.0625, 0.21875, 4.17188, 0.32812, 4.28125, 0.4375, 4.39062, 0.54688, 4.5, 0.65625, 4.60938, 0.76562, 4.71875, 0.875, 4.82812, 0.98438, 4.9375, 1.09375, 5.04688, 1.20312, 5.15625, 1.3125, 5.26562, 1.42969, 5.375, 1.53906, 5.48438, 1.64062, 5.59375, 1.75, 5.70312, 1.86719, 5.8125, 1.97656, 5.92188, 2.08594, 6.03125, 2.19531, 6.14062, 2.30469, 6.25, 2.41406, 6.35938, 2.52344, 6.46875, 2.63281, 6.57812, 2.74219, 6.6875, 2.85156, 6.80469, 2.96094, 6.91406, 3.07031, 7.02344, 3.17969, 7.13281, 3.28906, 7.24219, 3.39844, 7.35156, 3.50781, 7.46094, 3.61719, 7.57031, 3.72656],
  "SoftwareVersions": "syngo MR E11",
  "SpacingBetweenSlices": 2,
  "SpoilingState": true,
  "StationName": "AWP66112",
  "TotalReadoutTime": 0.0344855,
  "TxRefAmp": 231.078,
  "dcmmeta_affine": [
    [-1.9563097953796387, 0.17734967172145844, 0.1082000732421875, 106.29097747802734],
    [0.2063411921262741, 1.7431641817092896, 0.9029083251953125, -142.4008026123047],
    [0.01424024160951376, -0.8943451046943665, 1.7813034057617188, 8.96880054473877],
    [0.0, 0.0, 0.0, 1.0]
],
  "dcmmeta_reorient_transform": [
    [0.0, -1.0, 0.0, 121.0],
    [1.0, 0.0, 0.0, 0.0],
    [0.0, 0.0, -1.0, 69.0],
    [0.0, 0.0, 0.0, 1.0]
],
  "dcmmeta_shape": [122, 122, 70, 31],
  "dcmmeta_slice_dim": 2,
  "dcmmeta_version": 0.6,
  "global": {
    "const": {
      "AccessionNumber": "qa",
      "AcquisitionMatrix": [122, 0, 0, 122],
      "AngioFlag": "N",
      "BitsAllocated": 16,
      "BitsStored": 12,
      "BodyPartExamined": "BRAIN",
      "Columns": 122,
      "EchoNumbers": 1,
      "EchoTime": 75.0,
      "EchoTrainLength": 61,
      "FlipAngle": 90.0,
      "HighBit": 11,
      "ImageOrientationPatient": [0.99445747309799, -0.1048901049956, 0.00723878950976, 0.09015274690802, 0.886108470518, 0.45462540701241],
      "ImageType": [
        "ORIGINAL",
        "PRIMARY",
        "DIFFUSION",
        "NONE",
        "ND",
        "NORM"
],
      "ImagedNucleus": "1H",
      "ImagingFrequency": 123.252364,
      "InPlanePhaseEncodingDirection": "COL",
      "MRAcquisitionType": "2D",
      "MagneticFieldStrength": 3.0,
      "Manufacturer": "SIEMENS",
      "ManufacturerModelName": "Prisma",
      "Modality": "MR",
      "NumberOfAverages": 1.0,
      "NumberOfPhaseEncodingSteps": 122,
      "PercentPhaseFieldOfView": 100.0,
      "PercentSampling": 100.0,
      "PerformedProcedureStepStartTime": "093748.141000",
      "PhotometricInterpretation": "MONOCHROME2",
      "PixelBandwidth": 2050.0,
      "PixelRepresentation": 0,
      "PixelSpacing": [1.9672131538391, 1.9672131538391],
      "ProtocolName": "dwi_acq-DTI-30-p2",
      "RepetitionTime": 7700.0,
      "Rows": 122,
      "SAR": 0.10155369015294,
      "SamplesPerPixel": 1,
      "ScanOptions": "FS",
      "ScanningSequence": "EP",
      "SequenceVariant": [
        "SK",
        "SP"
],
      "SeriesDescription": "dwi_acq-DTI-30-p2",
      "SeriesNumber": 12,
      "SeriesTime": "100954.826000",
      "SliceThickness": 2.0,
      "SmallestImagePixelValue": 0,
      "SoftwareVersions": "syngo MR E11",
      "SpacingBetweenSlices": 2.0,
      "SpecificCharacterSet": "ISO_IR 100",
      "StudyID": "4",
      "StudyTime": "093748.092000",
      "TransmitCoilName": "Body",
      "VariableFlipAngleFlag": "N",
      "WindowCenterWidthExplanation": "Algo1",
      "dBdt": 0.0},
    "slices": {
      "AcquisitionTime": ["100947.182500", "100943.342500", "100947.292500", "100943.452500", "100947.402500", "100943.562500", "100947.512500", "100943.672500", "100947.622500", "100943.782500", "100947.732500", "100943.892500", "100947.840000", "100944.002500", "100947.950000", "100944.110000", "100948.060000", "100944.220000", "100948.170000", "100944.330000", "100948.280000", "100944.440000", "100948.390000", "100944.550000", "100948.500000", "100944.660000", "100948.610000", "100944.770000", "100948.720000", "100944.880000", "100948.827500", "100944.987500", "100948.937500", "100945.097500", "100949.047500", "100945.207500", "100949.157500", "100945.317500", "100949.267500", "100945.427500", "100949.377500", "100945.537500", "100949.487500", "100945.647500", "100949.597500", "100945.757500", "100949.705000", "100945.867500", "100949.815000", "100945.975000", "100949.925000", "100946.085000", "100950.035000", "100946.195000", "100950.145000", "100946.305000", "100950.255000", "100946.415000", "100950.365000", "100946.525000", "100950.475000", "100946.635000", "100950.585000", "100946.745000", "100950.692500", "100946.855000", "100950.802500", "100946.962500", "100950.912500", "100947.072500", "100954.882500", "100951.042500", "100954.992500", "100951.152500", "100955.102500", "100951.262500", "100955.212500", "100951.372500", "100955.322500", "100951.482500", "100955.432500", "100951.592500", "100955.540000", "100951.702500", "100955.650000", "100951.810000", "100955.760000", "100951.920000", "100955.870000", "100952.030000", "100955.980000", "100952.140000", "100956.090000", "100952.250000", "100956.200000", "100952.360000", "100956.310000", "100952.470000", "100956.420000", "100952.580000", "100956.527500", "100952.687500", "100956.637500", "100952.797500", "100956.747500", "100952.907500", "100956.857500", "100953.017500", "100956.967500", "100953.127500", "100957.077500", "100953.237500", "100957.187500", "100953.347500", "100957.297500", "100953.457500", "100957.405000", "100953.567500", "100957.515000", "100953.675000", "100957.625000", "100953.785000", "100957.735000", "100953.895000", "100957.845000", "100954.005000", "100957.955000", "100954.115000", "100958.065000", "100954.225000", "100958.175000", "100954.335000", "100958.285000", "100954.445000", "100958.392500", "100954.555000", "100958.502500", "100954.662500", "100958.612500", "100954.772500", "101002.582500", "100958.742500", "101002.692500", "100958.852500", "101002.802500", "100958.962500", "101002.912500", "100959.072500", "101003.022500", "100959.182500", "101003.132500", "100959.292500", "101003.240000", "100959.402500", "101003.350000", "100959.510000", "101003.460000", "100959.620000", "101003.570000", "100959.730000", "101003.680000", "100959.840000", "101003.790000", "100959.950000", "101003.900000", "101000.060000", "101004.010000", "101000.170000", "101004.120000", "101000.280000", "101004.227500", "101000.387500", "101004.337500", "101000.497500", "101004.447500", "101000.607500", "101004.557500", "101000.717500", "101004.667500", "101000.827500", "101004.777500", "101000.937500", "101004.887500", "101001.047500", "101004.997500", "101001.157500", "101005.105000", "101001.267500", "101005.215000", "101001.375000", "101005.325000", "101001.485000", "101005.435000", "101001.595000", "101005.545000", "101001.705000", "101005.655000", "101001.815000", "101005.765000", "101001.925000", "101005.875000", "101002.035000", "101005.985000", "101002.145000", "101006.092500", "101002.255000", "101006.202500", "101002.362500", "101006.312500", "101002.472500", "101010.282500", "101006.442500", "101010.392500", "101006.552500", "101010.502500", "101006.662500", "101010.612500", "101006.772500", "101010.722500", "101006.882500", "101010.832500", "101006.992500", "101010.940000", "101007.102500", "101011.050000", "101007.210000", "101011.160000", "101007.320000", "101011.270000", "101007.430000", "101011.380000", "101007.540000", "101011.490000", "101007.650000", "101011.600000", "101007.760000", "101011.710000", "101007.870000", "101011.820000", "101007.980000", "101011.927500", "101008.087500", "101012.037500", "101008.197500", "101012.147500", "101008.307500", "101012.257500", "101008.417500", "101012.367500", "101008.527500", "101012.477500", "101008.637500", "101012.587500", "101008.747500", "101012.697500", "101008.857500", "101012.805000", "101008.967500", "101012.915000", "101009.075000", "101013.025000", "101009.185000", "101013.135000", "101009.295000", "101013.245000", "101009.405000", "101013.355000", "101009.515000", "101013.465000", "101009.625000", "101013.575000", "101009.735000", "101013.685000", "101009.845000", "101013.792500", "101009.955000", "101013.902500", "101010.062500", "101014.012500", "101010.172500", "101017.982500", "101014.142500", "101018.092500", "101014.252500", "101018.202500", "101014.362500", "101018.312500", "101014.472500", "101018.422500", "101014.582500", "101018.532500", "101014.692500", "101018.640000", "101014.802500", "101018.750000", "101014.910000", "101018.860000", "101015.020000", "101018.970000", "101015.130000", "101019.080000", "101015.240000", "101019.190000", "101015.350000", "101019.300000", "101015.460000", "101019.410000", "101015.570000", "101019.520000", "101015.680000", "101019.627500", "101015.787500", "101019.737500", "101015.897500", "101019.847500", "101016.007500", "101019.957500", "101016.117500", "101020.067500", "101016.227500", "101020.177500", "101016.337500", "101020.287500", "101016.447500", "101020.397500", "101016.557500", "101020.505000", "101016.667500", "101020.615000", "101016.775000", "101020.725000", "101016.885000", "101020.835000", "101016.995000", "101020.945000", "101017.105000", "101021.055000", "101017.215000", "101021.165000", "101017.325000", "101021.275000", "101017.435000", "101021.385000", "101017.545000", "101021.492500", "101017.655000", "101021.602500", "101017.762500", "101021.712500", "101017.872500", "101025.682500", "101021.842500", "101025.792500", "101021.952500", "101025.902500", "101022.062500", "101026.012500", "101022.172500", "101026.122500", "101022.282500", "101026.232500", "101022.392500", "101026.340000", "101022.502500", "101026.450000", "101022.610000", "101026.560000", "101022.720000", "101026.670000", "101022.830000", "101026.780000", "101022.940000", "101026.890000", "101023.050000", "101027.000000", "101023.160000", "101027.110000", "101023.270000", "101027.220000", "101023.380000", "101027.327500", "101023.487500", "101027.437500", "101023.597500", "101027.547500", "101023.707500", "101027.657500", "101023.817500", "101027.767500", "101023.927500", "101027.877500", "101024.037500", "101027.987500", "101024.147500", "101028.097500", "101024.257500", "101028.205000", "101024.367500", "101028.315000", "101024.475000", "101028.425000", "101024.585000", "101028.535000", "101024.695000", "101028.645000", "101024.805000", "101028.755000", "101024.915000", "101028.865000", "101025.025000", "101028.975000", "101025.135000", "101029.085000", "101025.245000", "101029.192500", "101025.355000", "101029.302500", "101025.462500", "101029.412500", "101025.572500", "101033.382500", "101029.542500", "101033.492500", "101029.652500", "101033.602500", "101029.762500", "101033.712500", "101029.872500", "101033.822500", "101029.982500", "101033.932500", "101030.092500", "101034.040000", "101030.202500", "101034.150000", "101030.310000", "101034.260000", "101030.420000", "101034.370000", "101030.530000", "101034.480000", "101030.640000", "101034.590000", "101030.750000", "101034.700000", "101030.860000", "101034.810000", "101030.970000", "101034.920000", "101031.080000", "101035.027500", "101031.187500", "101035.137500", "101031.297500", "101035.247500", "101031.407500", "101035.357500", "101031.517500", "101035.467500", "101031.627500", "101035.577500", "101031.737500", "101035.687500", "101031.847500", "101035.797500", "101031.957500", "101035.905000", "101032.067500", "101036.015000", "101032.175000", "101036.125000", "101032.285000", "101036.235000", "101032.395000", "101036.345000", "101032.505000", "101036.455000", "101032.615000", "101036.565000", "101032.725000", "101036.675000", "101032.835000", "101036.785000", "101032.945000", "101036.892500", "101033.055000", "101037.002500", "101033.162500", "101037.112500", "101033.272500", "101041.082500", "101037.242500", "101041.192500", "101037.352500", "101041.302500", "101037.462500", "101041.412500", "101037.572500", "101041.522500", "101037.682500", "101041.632500", "101037.792500", "101041.740000", "101037.902500", "101041.850000", "101038.010000", "101041.960000", "101038.120000", "101042.070000", "101038.230000", "101042.180000", "101038.340000", "101042.290000", "101038.450000", "101042.400000", "101038.560000", "101042.510000", "101038.670000", "101042.620000", "101038.780000", "101042.727500", "101038.887500", "101042.837500", "101038.997500", "101042.947500", "101039.107500", "101043.057500", "101039.217500", "101043.167500", "101039.327500", "101043.277500", "101039.437500", "101043.387500", "101039.547500", "101043.497500", "101039.657500", "101043.605000", "101039.767500", "101043.715000", "101039.875000", "101043.825000", "101039.985000", "101043.935000", "101040.095000", "101044.045000", "101040.205000", "101044.155000", "101040.315000", "101044.265000", "101040.425000", "101044.375000", "101040.535000", "101044.485000", "101040.645000", "101044.592500", "101040.755000", "101044.702500", "101040.862500", "101044.812500", "101040.972500", "101048.782500", "101044.942500", "101048.892500", "101045.052500", "101049.002500", "101045.162500", "101049.112500", "101045.272500", "101049.222500", "101045.382500", "101049.332500", "101045.492500", "101049.440000", "101045.602500", "101049.550000", "101045.710000", "101049.660000", "101045.820000", "101049.770000", "101045.930000", "101049.880000", "101046.040000", "101049.990000", "101046.150000", "101050.100000", "101046.260000", "101050.210000", "101046.370000", "101050.320000", "101046.480000", "101050.427500", "101046.587500", "101050.537500", "101046.697500", "101050.647500", "101046.807500", "101050.757500", "101046.917500", "101050.867500", "101047.027500", "101050.977500", "101047.137500", "101051.087500", "101047.247500", "101051.197500", "101047.357500", "101051.305000", "101047.467500", "101051.415000", "101047.575000", "101051.525000", "101047.685000", "101051.635000", "101047.795000", "101051.745000", "101047.905000", "101051.855000", "101048.015000", "101051.965000", "101048.125000", "101052.075000", "101048.235000", "101052.185000", "101048.345000", "101052.292500", "101048.455000", "101052.402500", "101048.562500", "101052.512500", "101048.672500", "101056.482500", "101052.642500", "101056.592500", "101052.752500", "101056.702500", "101052.862500", "101056.812500", "101052.972500", "101056.922500", "101053.082500", "101057.032500", "101053.192500", "101057.140000", "101053.302500", "101057.250000", "101053.410000", "101057.360000", "101053.520000", "101057.470000", "101053.630000", "101057.580000", "101053.740000", "101057.690000", "101053.850000", "101057.800000", "101053.960000", "101057.910000", "101054.070000", "101058.020000", "101054.180000", "101058.127500", "101054.287500", "101058.237500", "101054.397500", "101058.347500", "101054.507500", "101058.457500", "101054.617500", "101058.567500", "101054.727500", "101058.677500", "101054.837500", "101058.787500", "101054.947500", "101058.897500", "101055.057500", "101059.005000", "101055.167500", "101059.115000", "101055.275000", "101059.225000", "101055.385000", "101059.335000", "101055.495000", "101059.445000", "101055.605000", "101059.555000", "101055.715000", "101059.665000", "101055.825000", "101059.775000", "101055.935000", "101059.885000", "101056.045000", "101059.992500", "101056.155000", "101100.102500", "101056.262500", "101100.212500", "101056.372500", "101104.182500", "101100.342500", "101104.292500", "101100.452500", "101104.402500", "101100.562500", "101104.512500", "101100.672500", "101104.622500", "101100.782500", "101104.732500", "101100.892500", "101104.840000", "101101.002500", "101104.950000", "101101.110000", "101105.060000", "101101.220000", "101105.170000", "101101.330000", "101105.280000", "101101.440000", "101105.390000", "101101.550000", "101105.500000", "101101.660000", "101105.610000", "101101.770000", "101105.720000", "101101.880000", "101105.827500", "101101.987500", "101105.937500", "101102.097500", "101106.047500", "101102.207500", "101106.157500", "101102.317500", "101106.267500", "101102.427500", "101106.377500", "101102.537500", "101106.487500", "101102.647500", "101106.597500", "101102.757500", "101106.705000", "101102.867500", "101106.815000", "101102.975000", "101106.925000", "101103.085000", "101107.035000", "101103.195000", "101107.145000", "101103.305000", "101107.255000", "101103.415000", "101107.365000", "101103.525000", "101107.475000", "101103.635000", "101107.585000", "101103.745000", "101107.692500", "101103.855000", "101107.802500", "101103.962500", "101107.912500", "101104.072500", "101111.882500", "101108.042500", "101111.992500", "101108.152500", "101112.102500", "101108.262500", "101112.212500", "101108.372500", "101112.322500", "101108.482500", "101112.432500", "101108.592500", "101112.540000", "101108.702500", "101112.650000", "101108.810000", "101112.760000", "101108.920000", "101112.870000", "101109.030000", "101112.980000", "101109.140000", "101113.090000", "101109.250000", "101113.200000", "101109.360000", "101113.310000", "101109.470000", "101113.420000", "101109.580000", "101113.527500", "101109.687500", "101113.637500", "101109.797500", "101113.747500", "101109.907500", "101113.857500", "101110.017500", "101113.967500", "101110.127500", "101114.077500", "101110.237500", "101114.187500", "101110.347500", "101114.297500", "101110.457500", "101114.405000", "101110.567500", "101114.515000", "101110.675000", "101114.625000", "101110.785000", "101114.735000", "101110.895000", "101114.845000", "101111.005000", "101114.955000", "101111.115000", "101115.065000", "101111.225000", "101115.175000", "101111.335000", "101115.285000", "101111.445000", "101115.392500", "101111.555000", "101115.502500", "101111.662500", "101115.612500", "101111.772500", "101119.582500", "101115.742500", "101119.692500", "101115.852500", "101119.802500", "101115.962500", "101119.912500", "101116.072500", "101120.022500", "101116.182500", "101120.132500", "101116.292500", "101120.240000", "101116.402500", "101120.350000", "101116.510000", "101120.460000", "101116.620000", "101120.570000", "101116.730000", "101120.680000", "101116.840000", "101120.790000", "101116.950000", "101120.900000", "101117.060000", "101121.010000", "101117.170000", "101121.120000", "101117.280000", "101121.227500", "101117.387500", "101121.337500", "101117.497500", "101121.447500", "101117.607500", "101121.557500", "101117.717500", "101121.667500", "101117.827500", "101121.777500", "101117.937500", "101121.887500", "101118.047500", "101121.997500", "101118.157500", "101122.105000", "101118.267500", "101122.215000", "101118.375000", "101122.325000", "101118.485000", "101122.435000", "101118.595000", "101122.545000", "101118.705000", "101122.655000", "101118.815000", "101122.765000", "101118.925000", "101122.875000", "101119.035000", "101122.985000", "101119.145000", "101123.092500", "101119.255000", "101123.202500", "101119.362500", "101123.312500", "101119.472500", "101127.282500", "101123.442500", "101127.392500", "101123.552500", "101127.502500", "101123.662500", "101127.612500", "101123.772500", "101127.722500", "101123.882500", "101127.832500", "101123.992500", "101127.940000", "101124.102500", "101128.050000", "101124.210000", "101128.160000", "101124.320000", "101128.270000", "101124.430000", "101128.380000", "101124.540000", "101128.490000", "101124.650000", "101128.600000", "101124.760000", "101128.710000", "101124.870000", "101128.820000", "101124.980000", "101128.927500", "101125.087500", "101129.037500", "101125.197500", "101129.147500", "101125.307500", "101129.257500", "101125.417500", "101129.367500", "101125.527500", "101129.477500", "101125.637500", "101129.587500", "101125.747500", "101129.697500", "101125.857500", "101129.805000", "101125.967500", "101129.915000", "101126.075000", "101130.025000", "101126.185000", "101130.135000", "101126.295000", "101130.245000", "101126.405000", "101130.355000", "101126.515000", "101130.465000", "101126.625000", "101130.575000", "101126.735000", "101130.685000", "101126.845000", "101130.792500", "101126.955000", "101130.902500", "101127.062500", "101131.012500", "101127.172500", "101134.982500", "101131.142500", "101135.092500", "101131.252500", "101135.202500", "101131.362500", "101135.312500", "101131.472500", "101135.422500", "101131.582500", "101135.532500", "101131.692500", "101135.640000", "101131.802500", "101135.750000", "101131.910000", "101135.860000", "101132.020000", "101135.970000", "101132.130000", "101136.080000", "101132.240000", "101136.190000", "101132.350000", "101136.300000", "101132.460000", "101136.410000", "101132.570000", "101136.520000", "101132.680000", "101136.627500", "101132.787500", "101136.737500", "101132.897500", "101136.847500", "101133.007500", "101136.957500", "101133.117500", "101137.067500", "101133.227500", "101137.177500", "101133.337500", "101137.287500", "101133.447500", "101137.397500", "101133.557500", "101137.505000", "101133.667500", "101137.615000", "101133.775000", "101137.725000", "101133.885000", "101137.835000", "101133.995000", "101137.945000", "101134.105000", "101138.055000", "101134.215000", "101138.165000", "101134.325000", "101138.275000", "101134.435000", "101138.385000", "101134.545000", "101138.492500", "101134.655000", "101138.602500", "101134.762500", "101138.712500", "101134.872500", "101142.682500", "101138.842500", "101142.792500", "101138.952500", "101142.902500", "101139.062500", "101143.012500", "101139.172500", "101143.122500", "101139.282500", "101143.232500", "101139.392500", "101143.340000", "101139.502500", "101143.450000", "101139.610000", "101143.560000", "101139.720000", "101143.670000", "101139.830000", "101143.780000", "101139.940000", "101143.890000", "101140.050000", "101144.000000", "101140.160000", "101144.110000", "101140.270000", "101144.220000", "101140.380000", "101144.327500", "101140.487500", "101144.437500", "101140.597500", "101144.547500", "101140.707500", "101144.657500", "101140.817500", "101144.767500", "101140.927500", "101144.877500", "101141.037500", "101144.987500", "101141.147500", "101145.097500", "101141.257500", "101145.205000", "101141.367500", "101145.315000", "101141.475000", "101145.425000", "101141.585000", "101145.535000", "101141.695000", "101145.645000", "101141.805000", "101145.755000", "101141.915000", "101145.865000", "101142.025000", "101145.975000", "101142.135000", "101146.085000", "101142.245000", "101146.192500", "101142.355000", "101146.302500", "101142.462500", "101146.412500", "101142.572500", "101150.382500", "101146.542500", "101150.492500", "101146.652500", "101150.602500", "101146.762500", "101150.712500", "101146.872500", "101150.822500", "101146.982500", "101150.932500", "101147.092500", "101151.040000", "101147.202500", "101151.150000", "101147.310000", "101151.260000", "101147.420000", "101151.370000", "101147.530000", "101151.480000", "101147.640000", "101151.590000", "101147.750000", "101151.700000", "101147.860000", "101151.810000", "101147.970000", "101151.920000", "101148.080000", "101152.027500", "101148.187500", "101152.137500", "101148.297500", "101152.247500", "101148.407500", "101152.357500", "101148.517500", "101152.467500", "101148.627500", "101152.577500", "101148.737500", "101152.687500", "101148.847500", "101152.797500", "101148.957500", "101152.905000", "101149.067500", "101153.015000", "101149.175000", "101153.125000", "101149.285000", "101153.235000", "101149.395000", "101153.345000", "101149.505000", "101153.455000", "101149.615000", "101153.565000", "101149.725000", "101153.675000", "101149.835000", "101153.785000", "101149.945000", "101153.892500", "101150.055000", "101154.002500", "101150.162500", "101154.112500", "101150.272500", "101158.082500", "101154.242500", "101158.192500", "101154.352500", "101158.302500", "101154.462500", "101158.412500", "101154.572500", "101158.522500", "101154.682500", "101158.632500", "101154.792500", "101158.740000", "101154.902500", "101158.850000", "101155.010000", "101158.960000", "101155.120000", "101159.070000", "101155.230000", "101159.180000", "101155.340000", "101159.290000", "101155.450000", "101159.400000", "101155.560000", "101159.510000", "101155.670000", "101159.620000", "101155.780000", "101159.727500", "101155.887500", "101159.837500", "101155.997500", "101159.947500", "101156.107500", "101200.057500", "101156.217500", "101200.167500", "101156.327500", "101200.277500", "101156.437500", "101200.387500", "101156.547500", "101200.497500", "101156.657500", "101200.605000", "101156.767500", "101200.715000", "101156.875000", "101200.825000", "101156.985000", "101200.935000", "101157.095000", "101201.045000", "101157.205000", "101201.155000", "101157.315000", "101201.265000", "101157.425000", "101201.375000", "101157.535000", "101201.485000", "101157.645000", "101201.592500", "101157.755000", "101201.702500", "101157.862500", "101201.812500", "101157.972500", "101205.782500", "101201.942500", "101205.892500", "101202.052500", "101206.002500", "101202.162500", "101206.112500", "101202.272500", "101206.222500", "101202.382500", "101206.332500", "101202.492500", "101206.440000", "101202.602500", "101206.550000", "101202.710000", "101206.660000", "101202.820000", "101206.770000", "101202.930000", "101206.880000", "101203.040000", "101206.990000", "101203.150000", "101207.100000", "101203.260000", "101207.210000", "101203.370000", "101207.320000", "101203.480000", "101207.427500", "101203.587500", "101207.537500", "101203.697500", "101207.647500", "101203.807500", "101207.757500", "101203.917500", "101207.867500", "101204.027500", "101207.977500", "101204.137500", "101208.087500", "101204.247500", "101208.197500", "101204.357500", "101208.305000", "101204.467500", "101208.415000", "101204.575000", "101208.525000", "101204.685000", "101208.635000", "101204.795000", "101208.745000", "101204.905000", "101208.855000", "101205.015000", "101208.965000", "101205.125000", "101209.075000", "101205.235000", "101209.185000", "101205.345000", "101209.292500", "101205.455000", "101209.402500", "101205.562500", "101209.512500", "101205.672500", "101213.482500", "101209.642500", "101213.592500", "101209.752500", "101213.702500", "101209.862500", "101213.812500", "101209.972500", "101213.922500", "101210.082500", "101214.032500", "101210.192500", "101214.140000", "101210.302500", "101214.250000", "101210.410000", "101214.360000", "101210.520000", "101214.470000", "101210.630000", "101214.580000", "101210.740000", "101214.690000", "101210.850000", "101214.800000", "101210.960000", "101214.910000", "101211.070000", "101215.020000", "101211.180000", "101215.127500", "101211.287500", "101215.237500", "101211.397500", "101215.347500", "101211.507500", "101215.457500", "101211.617500", "101215.567500", "101211.727500", "101215.677500", "101211.837500", "101215.787500", "101211.947500", "101215.897500", "101212.057500", "101216.005000", "101212.167500", "101216.115000", "101212.275000", "101216.225000", "101212.385000", "101216.335000", "101212.495000", "101216.445000", "101212.605000", "101216.555000", "101212.715000", "101216.665000", "101212.825000", "101216.775000", "101212.935000", "101216.885000", "101213.045000", "101216.992500", "101213.155000", "101217.102500", "101213.262500", "101217.212500", "101213.372500", "101221.182500", "101217.342500", "101221.292500", "101217.452500", "101221.402500", "101217.562500", "101221.512500", "101217.672500", "101221.622500", "101217.782500", "101221.732500", "101217.892500", "101221.840000", "101218.002500", "101221.950000", "101218.110000", "101222.060000", "101218.220000", "101222.170000", "101218.330000", "101222.280000", "101218.440000", "101222.390000", "101218.550000", "101222.500000", "101218.660000", "101222.610000", "101218.770000", "101222.720000", "101218.880000", "101222.827500", "101218.987500", "101222.937500", "101219.097500", "101223.047500", "101219.2075