{
  "AcquisitionMatrixPE": 122,
  "AcquisitionNumber": 1,
  "AcquisitionTime": "10:14:8.495000",
  "BandwidthPerPixelPhaseEncode": 27.785,
  "BaseResolution": 122,
  "BodyPartExamined": "BRAIN",
  "CoilCombinationMethod": "Adaptive Combine",
  "ConsistencyInfo": "N4_VE11C_LATEST_20160120",
  "ConversionSoftware": "dcm2niix",
  "ConversionSoftwareVersion": "v1.0.20220720",
  "DerivedVendorReportedEchoSpacing": 0.000590011,
  "DeviceSerialNumber": "66112",
  "DiffusionScheme": "Monopolar",
  "DwellTime": 2e-06,
  "EchoTime": 0.068,
  "EchoTrainLength": 61,
  "EffectiveEchoSpacing": 0.000295005,
  "FlipAngle": 90,
  "HeudiconvVersion": "0.13.1",
  "ImageOrientationPatientDICOM": [0.994457, -0.10489, 0.00723879, 0.0901527, 0.886108, 0.454625],
  "ImageOrientationText": "Tra>Cor(26.9)>Sag(3.1)",
  "ImageType": [
    "ORIGINAL",
    "PRIMARY",
    "DIFFUSION",
    "NONE",
    "ND",
    "NORM"
],
  "ImagingFrequency": 123.252,
  "InPlanePhaseEncodingDirectionDICOM": "COL",
  "InstitutionAddress": "Maynard 3,Hanover,NH,US,03755",
  "InstitutionName": "Dartmouth College - PBS",
  "InstitutionalDepartmentName": "Department",
  "MRAcquisitionType": "2D",
  "MagneticFieldStrength": 3,
  "Manufacturer": "Siemens",
  "ManufacturersModelName": "Prisma",
  "Modality": "MR",
  "MultibandAccelerationFactor": 4,
  "NonlinearGradientCorrection": false,
  "ParallelReductionFactorInPlane": 2,
  "PartialFourier": 1,
  "PatientPosition": "HFS",
  "PercentPhaseFOV": 100,
  "PercentSampling": 100,
  "PhaseEncodingDirection": "j-",
  "PhaseEncodingSteps": 122,
  "PhaseResolution": 1,
  "PixelBandwidth": 2050,
  "ProcedureStepDescription": "dbic^QA",
  "ProtocolName": "dwi_acq-DTI-30-p2-s4",
  "PulseSequenceDetails": "%SiemensSeq%\\ep2d_diff",
  "ReceiveCoilActiveElements": "HEA;HEP",
  "ReceiveCoilName": "Head_32",
  "ReconMatrixPE": 122,
  "RefLinesPE": 38,
  "RepetitionTime": 3.6,
  "SAR": 0.158012,
  "ScanOptions": "FS",
  "ScanningSequence": "EP",
  "SequenceName": "*ep_b0",
  "SequenceVariant": "SK\\SP",
  "SeriesDescription": "dwi_acq-DTI-30-p2-s4",
  "SeriesNumber": 13,
  "ShimSetting": [4145, -7709, -7516, 220, -76, -74, -1, 59],
  "SliceThickness": 2,
  "SliceTiming": [2.58594, 0, 1.79688, 0.20312, 1.99219, 0.39844, 2.1875, 0.60156, 2.39062, 1, 2.78906, 1.19531, 2.99219, 1.39844, 3.1875, 1.59375, 3.38281, 0.79688, 2.58594, 0, 1.79688, 0.20312, 1.99219, 0.39844, 2.1875, 0.60156, 2.39062, 1, 2.78906, 1.19531, 2.99219, 1.39844, 3.1875, 1.59375, 3.38281, 0.79688, 2.58594, 0, 1.79688, 0.20312, 1.99219, 0.39844, 2.1875, 0.60156, 2.39062, 1, 2.78906, 1.19531, 2.99219, 1.39844, 3.1875, 1.59375, 3.38281, 0.79688, 2.58594, 0, 1.79688, 0.20312, 1.99219, 0.39844, 2.1875, 0.60156, 2.39062, 1, 2.78906, 1.19531, 2.99219, 1.39844, 3.1875, 1.59375, 3.38281, 0.79688],
  "SoftwareVersions": "syngo MR E11",
  "SpacingBetweenSlices": 2,
  "SpoilingState": true,
  "StationName": "AWP66112",
  "TotalReadoutTime": 0.0356956,
  "TxRefAmp": 231.078,
  "dcmmeta_affine": [
    [-1.9563097953796387, 0.17734967172145844, 0.1082000732421875, 106.18277740478516],
    [0.2063411921262741, 1.7431641817092896, 0.9029045104980469, -143.30345153808594],
    [0.01424024160951376, -0.8943451046943665, 1.7813034057617188, 7.187496662139893],
    [0.0, 0.0, 0.0, 1.0]
],
  "dcmmeta_reorient_transform": [
    [0.0, -1.0, 0.0, 121.0],
    [1.0, 0.0, 0.0, 0.0],
    [0.0, 0.0, -1.0, 71.0],
    [0.0, 0.0, 0.0, 1.0]
],
  "dcmmeta_shape": [122, 122, 72, 31],
  "dcmmeta_slice_dim": 2,
  "dcmmeta_version": 0.6,
  "global": {
    "const": {
      "AccessionNumber": "qa",
      "AcquisitionMatrix": [122, 0, 0, 122],
      "AngioFlag": "N",
      "BitsAllocated": 16,
      "BitsStored": 12,
      "BodyPartExamined": "BRAIN",
      "Columns": 122,
      "EchoNumbers": 1,
      "EchoTime": 68.0,
      "EchoTrainLength": 61,
      "FlipAngle": 90.0,
      "HighBit": 11,
      "ImageOrientationPatient": [0.99445747309799, -0.1048901049956, 0.00723878950976, 0.09015274690802, 0.886108470518, 0.45462540701241],
      "ImageType": [
        "ORIGINAL",
        "PRIMARY",
        "DIFFUSION",
        "NONE",
        "ND",
        "NORM"
],
      "ImagedNucleus": "1H",
      "ImagingFrequency": 123.252367,
      "InPlanePhaseEncodingDirection": "COL",
      "MRAcquisitionType": "2D",
      "MagneticFieldStrength": 3.0,
      "Manufacturer": "SIEMENS",
      "ManufacturerModelName": "Prisma",
      "Modality": "MR",
      "NumberOfAverages": 1.0,
      "NumberOfPhaseEncodingSteps": 122,
      "PercentPhaseFieldOfView": 100.0,
      "PercentSampling": 100.0,
      "PerformedProcedureStepStartTime": "093748.141000",
      "PhotometricInterpretation": "MONOCHROME2",
      "PixelBandwidth": 2050.0,
      "PixelRepresentation": 0,
      "PixelSpacing": [1.9672131538391, 1.9672131538391],
      "ProtocolName": "dwi_acq-DTI-30-p2-s4",
      "RepetitionTime": 3600.0,
      "Rows": 122,
      "SAR": 0.15801198948292,
      "SamplesPerPixel": 1,
      "ScanOptions": "FS",
      "ScanningSequence": "EP",
      "SequenceVariant": [
        "SK",
        "SP"
],
      "SeriesDescription": "dwi_acq-DTI-30-p2-s4",
      "SeriesNumber": 13,
      "SeriesTime": "101414.897000",
      "SliceThickness": 2.0,
      "SmallestImagePixelValue": 0,
      "SoftwareVersions": "syngo MR E11",
      "SpacingBetweenSlices": 2.0,
      "SpecificCharacterSet": "ISO_IR 100",
      "StudyID": "4",
      "StudyTime": "093748.092000",
      "TransmitCoilName": "Body",
      "VariableFlipAngleFlag": "N",
      "WindowCenterWidthExplanation": "Algo1",
      "dBdt": 0.0},
    "slices": {
      "AcquisitionTime": ["101408.495000", "101405.910000", "101407.700000", "101406.110000", "101407.900000", "101406.307500", "101408.097500", "101406.507500", "101408.297500", "101406.905000", "101408.695000", "101407.105000", "101408.895000", "101407.302500", "101409.092500", "101407.502500", "101409.292500", "101406.705000", "101408.495000", "101405.910000", "101407.700000", "101406.110000", "101407.900000", "101406.307500", "101408.097500", "101406.507500", "101408.297500", "101406.905000", "101408.695000", "101407.105000", "101408.895000", "101407.302500", "101409.092500", "101407.502500", "101409.292500", "101406.705000", "101408.495000", "101405.910000", "101407.700000", "101406.110000", "101407.900000", "101406.307500", "101408.097500", "101406.507500", "101408.297500", "101406.905000", "101408.695000", "101407.105000", "101408.895000", "101407.302500", "101409.092500", "101407.502500", "101409.292500", "101406.705000", "101408.495000", "101405.910000", "101407.700000", "101406.110000", "101407.900000", "101406.307500", "101408.097500", "101406.507500", "101408.297500", "101406.905000", "101408.695000", "101407.105000", "101408.895000", "101407.302500", "101409.092500", "101407.502500", "101409.292500", "101406.705000", "101412.095000", "101409.510000", "101411.300000", "101409.710000", "101411.500000", "101409.907500", "101411.697500", "101410.107500", "101411.897500", "101410.505000", "101412.295000", "101410.705000", "101412.495000", "101410.902500", "101412.692500", "101411.102500", "101412.892500", "101410.305000", "101412.095000", "101409.510000", "101411.300000", "101409.710000", "101411.500000", "101409.907500", "101411.697500", "101410.107500", "101411.897500", "101410.505000", "101412.295000", "101410.705000", "101412.495000", "101410.902500", "101412.692500", "101411.102500", "101412.892500", "101410.305000", "101412.095000", "101409.510000", "101411.300000", "101409.710000", "101411.500000", "101409.907500", "101411.697500", "101410.107500", "101411.897500", "101410.505000", "101412.295000", "101410.705000", "101412.495000", "101410.902500", "101412.692500", "101411.102500", "101412.892500", "101410.305000", "101412.095000", "101409.510000", "101411.300000", "101409.710000", "101411.500000", "101409.907500", "101411.697500", "101410.107500", "101411.897500", "101410.505000", "101412.295000", "101410.705000", "101412.495000", "101410.902500", "101412.692500", "101411.102500", "101412.892500", "101410.305000", "101415.695000", "101413.110000", "101414.900000", "101413.310000", "101415.100000", "101413.507500", "101415.297500", "101413.707500", "101415.497500", "101414.105000", "101415.895000", "101414.305000", "101416.095000", "101414.502500", "101416.292500", "101414.702500", "101416.492500", "101413.905000", "101415.695000", "101413.110000", "101414.900000", "101413.310000", "101415.100000", "101413.507500", "101415.297500", "101413.707500", "101415.497500", "101414.105000", "101415.895000", "101414.305000", "101416.095000", "101414.502500", "101416.292500", "101414.702500", "101416.492500", "101413.905000", "101415.695000", "101413.110000", "101414.900000", "101413.310000", "101415.100000", "101413.507500", "101415.297500", "101413.707500", "101415.497500", "101414.105000", "101415.895000", "101414.305000", "101416.095000", "101414.502500", "101416.292500", "101414.702500", "101416.492500", "101413.905000", "101415.695000", "101413.110000", "101414.900000", "101413.310000", "101415.100000", "101413.507500", "101415.297500", "101413.707500", "101415.497500", "101414.105000", "101415.895000", "101414.305000", "101416.095000", "101414.502500", "101416.292500", "101414.702500", "101416.492500", "101413.905000", "101419.295000", "101416.710000", "101418.500000", "101416.910000", "101418.700000", "101417.107500", "101418.897500", "101417.307500", "101419.097500", "101417.705000", "101419.495000", "101417.905000", "101419.695000", "101418.102500", "101419.892500", "101418.302500", "101420.092500", "101417.505000", "101419.295000", "101416.710000", "101418.500000", "101416.910000", "101418.700000", "101417.107500", "101418.897500", "101417.307500", "101419.097500", "101417.705000", "101419.495000", "101417.905000", "101419.695000", "101418.102500", "101419.892500", "101418.302500", "101420.092500", "101417.505000", "101419.295000", "101416.710000", "101418.500000", "101416.910000", "101418.700000", "101417.107500", "101418.897500", "101417.307500", "101419.097500", "101417.705000", "101419.495000", "101417.905000", "101419.695000", "101418.102500", "101419.892500", "101418.302500", "101420.092500", "101417.505000", "101419.295000", "101416.710000", "101418.500000", "101416.910000", "101418.700000", "101417.107500", "101418.897500", "101417.307500", "101419.097500", "101417.705000", "101419.495000", "101417.905000", "101419.695000", "101418.102500", "101419.892500", "101418.302500", "101420.092500", "101417.505000", "101422.895000", "101420.310000", "101422.100000", "101420.510000", "101422.300000", "101420.707500", "101422.497500", "101420.907500", "101422.697500", "101421.305000", "101423.095000", "101421.505000", "101423.295000", "101421.702500", "101423.492500", "101421.902500", "101423.692500", "101421.105000", "101422.895000", "101420.310000", "101422.100000", "101420.510000", "101422.300000", "101420.707500", "101422.497500", "101420.907500", "101422.697500", "101421.305000", "101423.095000", "101421.505000", "101423.295000", "101421.702500", "101423.492500", "101421.902500", "101423.692500", "101421.105000", "101422.895000", "101420.310000", "101422.100000", "101420.510000", "101422.300000", "101420.707500", "101422.497500", "101420.907500", "101422.697500", "101421.305000", "101423.095000", "101421.505000", "101423.295000", "101421.702500", "101423.492500", "101421.902500", "101423.692500", "101421.105000", "101422.895000", "101420.310000", "101422.100000", "101420.510000", "101422.300000", "101420.707500", "101422.497500", "101420.907500", "101422.697500", "101421.305000", "101423.095000", "101421.505000", "101423.295000", "101421.702500", "101423.492500", "101421.902500", "101423.692500", "101421.105000", "101426.495000", "101423.910000", "101425.700000", "101424.110000", "101425.900000", "101424.307500", "101426.097500", "101424.507500", "101426.297500", "101424.905000", "101426.695000", "101425.105000", "101426.895000", "101425.302500", "101427.092500", "101425.502500", "101427.292500", "101424.705000", "101426.495000", "101423.910000", "101425.700000", "101424.110000", "101425.900000", "101424.307500", "101426.097500", "101424.507500", "101426.297500", "101424.905000", "101426.695000", "101425.105000", "101426.895000", "101425.302500", "101427.092500", "101425.502500", "101427.292500", "101424.705000", "101426.495000", "101423.910000", "101425.700000", "101424.110000", "101425.900000", "101424.307500", "101426.097500", "101424.507500", "101426.297500", "101424.905000", "101426.695000", "101425.105000", "101426.895000", "101425.302500", "101427.092500", "101425.502500", "101427.292500", "101424.705000", "101426.495000", "101423.910000", "101425.700000", "101424.110000", "101425.900000", "101424.307500", "101426.097500", "101424.507500", "101426.297500", "101424.905000", "101426.695000", "101425.105000", "101426.895000", "101425.302500", "101427.092500", "101425.502500", "101427.292500", "101424.705000", "101430.095000", "101427.510000", "101429.300000", "101427.710000", "101429.500000", "101427.907500", "101429.697500", "101428.107500", "101429.897500", "101428.505000", "101430.295000", "101428.705000", "101430.495000", "101428.902500", "101430.692500", "101429.102500", "101430.892500", "101428.305000", "101430.095000", "101427.510000", "101429.300000", "101427.710000", "101429.500000", "101427.907500", "101429.697500", "101428.107500", "101429.897500", "101428.505000", "101430.295000", "101428.705000", "101430.495000", "101428.902500", "101430.692500", "101429.102500", "101430.892500", "101428.305000", "101430.095000", "101427.510000", "101429.300000", "101427.710000", "101429.500000", "101427.907500", "101429.697500", "101428.107500", "101429.897500", "101428.505000", "101430.295000", "101428.705000", "101430.495000", "101428.902500", "101430.692500", "101429.102500", "101430.892500", "101428.305000", "101430.095000", "101427.510000", "101429.300000", "101427.710000", "101429.500000", "101427.907500", "101429.697500", "101428.107500", "101429.897500", "101428.505000", "101430.295000", "101428.705000", "101430.495000", "101428.902500", "101430.692500", "101429.102500", "101430.892500", "101428.305000", "101433.695000", "101431.110000", "101432.900000", "101431.310000", "101433.100000", "101431.507500", "101433.297500", "101431.707500", "101433.497500", "101432.105000", "101433.895000", "101432.305000", "101434.095000", "101432.502500", "101434.292500", "101432.702500", "101434.492500", "101431.905000", "101433.695000", "101431.110000", "101432.900000", "101431.310000", "101433.100000", "101431.507500", "101433.297500", "101431.707500", "101433.497500", "101432.105000", "101433.895000", "101432.305000", "101434.095000", "101432.502500", "101434.292500", "101432.702500", "101434.492500", "101431.905000", "101433.695000", "101431.110000", "101432.900000", "101431.310000", "101433.100000", "101431.507500", "101433.297500", "101431.707500", "101433.497500", "101432.105000", "101433.895000", "101432.305000", "101434.095000", "101432.502500", "101434.292500", "101432.702500", "101434.492500", "101431.905000", "101433.695000", "101431.110000", "101432.900000", "101431.310000", "101433.100000", "101431.507500", "101433.297500", "101431.707500", "101433.497500", "101432.105000", "101433.895000", "101432.305000", "101434.095000", "101432.502500", "101434.292500", "101432.702500", "101434.492500", "101431.905000", "101437.295000", "101434.710000", "101436.500000", "101434.910000", "101436.700000", "101435.107500", "101436.897500", "101435.307500", "101437.097500", "101435.705000", "101437.495000", "101435.905000", "101437.695000", "101436.102500", "101437.892500", "101436.302500", "101438.092500", "101435.505000", "101437.295000", "101434.710000", "101436.500000", "101434.910000", "101436.700000", "101435.107500", "101436.897500", "101435.307500", "101437.097500", "101435.705000", "101437.495000", "101435.905000", "101437.695000", "101436.102500", "101437.892500", "101436.302500", "101438.092500", "101435.505000", "101437.295000", "101434.710000", "101436.500000", "101434.910000", "101436.700000", "101435.107500", "101436.897500", "101435.307500", "101437.097500", "101435.705000", "101437.495000", "101435.905000", "101437.695000", "101436.102500", "101437.892500", "101436.302500", "101438.092500", "101435.505000", "101437.295000", "101434.710000", "101436.500000", "101434.910000", "101436.700000", "101435.107500", "101436.897500", "101435.307500", "101437.097500", "101435.705000", "101437.495000", "101435.905000", "101437.695000", "101436.102500", "101437.892500", "101436.302500", "101438.092500", "101435.505000", "101440.895000", "101438.310000", "101440.100000", "101438.510000", "101440.300000", "101438.707500", "101440.497500", "101438.907500", "101440.697500", "101439.305000", "101441.095000", "101439.505000", "101441.295000", "101439.702500", "101441.492500", "101439.902500", "101441.692500", "101439.105000", "101440.895000", "101438.310000", "101440.100000", "101438.510000", "101440.300000", "101438.707500", "101440.497500", "101438.907500", "101440.697500", "101439.305000", "101441.095000", "101439.505000", "101441.295000", "101439.702500", "101441.492500", "101439.902500", "101441.692500", "101439.105000", "101440.895000", "101438.310000", "101440.100000", "101438.510000", "101440.300000", "101438.707500", "101440.497500", "101438.907500", "101440.697500", "101439.305000", "101441.095000", "101439.505000", "101441.295000", "101439.702500", "101441.492500", "101439.902500", "101441.692500", "101439.105000", "101440.895000", "101438.310000", "101440.100000", "101438.510000", "101440.300000", "101438.707500", "101440.497500", "101438.907500", "101440.697500", "101439.305000", "101441.095000", "101439.505000", "101441.295000", "101439.702500", "101441.492500", "101439.902500", "101441.692500", "101439.105000", "101444.495000", "101441.910000", "101443.700000", "101442.110000", "101443.900000", "101442.307500", "101444.097500", "101442.507500", "101444.297500", "101442.905000", "101444.695000", "101443.105000", "101444.895000", "101443.302500", "101445.092500", "101443.502500", "101445.292500", "101442.705000", "101444.495000", "101441.910000", "101443.700000", "101442.110000", "101443.900000", "101442.307500", "101444.097500", "101442.507500", "101444.297500", "101442.905000", "101444.695000", "101443.105000", "101444.895000", "101443.302500", "101445.092500", "101443.502500", "101445.292500", "101442.705000", "101444.495000", "101441.910000", "101443.700000", "101442.110000", "101443.900000", "101442.307500", "101444.097500", "101442.507500", "101444.297500", "101442.905000", "101444.695000", "101443.105000", "101444.895000", "101443.302500", "101445.092500", "101443.502500", "101445.292500", "101442.705000", "101444.495000", "101441.910000", "101443.700000", "101442.110000", "101443.900000", "101442.307500", "101444.097500", "101442.507500", "101444.297500", "101442.905000", "101444.695000", "101443.105000", "101444.895000", "101443.302500", "101445.092500", "101443.502500", "101445.292500", "101442.705000", "101448.095000", "101445.510000", "101447.300000", "101445.710000", "101447.500000", "101445.907500", "101447.697500", "101446.107500", "101447.897500", "101446.505000", "101448.295000", "101446.705000", "101448.495000", "101446.902500", "101448.692500", "101447.102500", "101448.892500", "101446.305000", "101448.095000", "101445.510000", "101447.300000", "101445.710000", "101447.500000", "101445.907500", "101447.697500", "101446.107500", "101447.897500", "101446.505000", "101448.295000", "101446.705000", "101448.495000", "101446.902500", "101448.692500", "101447.102500", "101448.892500", "101446.305000", "101448.095000", "101445.510000", "101447.300000", "101445.710000", "101447.500000", "101445.907500", "101447.697500", "101446.107500", "101447.897500", "101446.505000", "101448.295000", "101446.705000", "101448.495000", "101446.902500", "101448.692500", "101447.102500", "101448.892500", "101446.305000", "101448.095000", "101445.510000", "101447.300000", "101445.710000", "101447.500000", "101445.907500", "101447.697500", "101446.107500", "101447.897500", "101446.505000", "101448.295000", "101446.705000", "101448.495000", "101446.902500", "101448.692500", "101447.102500", "101448.892500", "101446.305000", "101451.695000", "101449.110000", "101450.900000", "101449.310000", "101451.100000", "101449.507500", "101451.297500", "101449.707500", "101451.497500", "101450.105000", "101451.895000", "101450.305000", "101452.095000", "101450.502500", "101452.292500", "101450.702500", "101452.492500", "101449.905000", "101451.695000", "101449.110000", "101450.900000", "101449.310000", "101451.100000", "101449.507500", "101451.297500", "101449.707500", "101451.497500", "101450.105000", "101451.895000", "101450.305000", "101452.095000", "101450.502500", "101452.292500", "101450.702500", "101452.492500", "101449.905000", "101451.695000", "101449.110000", "101450.900000", "101449.310000", "101451.100000", "101449.507500", "101451.297500", "101449.707500", "101451.497500", "101450.105000", "101451.895000", "101450.305000", "101452.095000", "101450.502500", "101452.292500", "101450.702500", "101452.492500", "101449.905000", "101451.695000", "101449.110000", "101450.900000", "101449.310000", "101451.100000", "101449.507500", "101451.297500", "101449.707500", "101451.497500", "101450.105000", "101451.895000", "101450.305000", "101452.095000", "101450.502500", "101452.292500", "101450.702500", "101452.492500", "101449.905000", "101455.295000", "101452.710000", "101454.500000", "101452.910000", "101454.700000", "101453.107500", "101454.897500", "101453.307500", "101455.097500", "101453.705000", "101455.495000", "101453.905000", "101455.695000", "101454.102500", "101455.892500", "101454.302500", "101456.092500", "101453.505000", "101455.295000", "101452.710000", "101454.500000", "101452.910000", "101454.700000", "101453.107500", "101454.897500", "101453.307500", "101455.097500", "101453.705000", "101455.495000", "101453.905000", "101455.695000", "101454.102500", "101455.892500", "101454.302500", "101456.092500", "101453.505000", "101455.295000", "101452.710000", "101454.500000", "101452.910000", "101454.700000", "101453.107500", "101454.897500", "101453.307500", "101455.097500", "101453.705000", "101455.495000", "101453.905000", "101455.695000", "101454.102500", "101455.892500", "101454.302500", "101456.092500", "101453.505000", "101455.295000", "101452.710000", "101454.500000", "101452.910000", "101454.700000", "101453.107500", "101454.897500", "101453.307500", "101455.097500", "101453.705000", "101455.495000", "101453.905000", "101455.695000", "101454.102500", "101455.892500", "101454.302500", "101456.092500", "101453.505000", "101458.895000", "101456.310000", "101458.100000", "101456.510000", "101458.300000", "101456.707500", "101458.497500", "101456.907500", "101458.697500", "101457.305000", "101459.095000", "101457.505000", "101459.295000", "101457.702500", "101459.492500", "101457.902500", "101459.692500", "101457.105000", "101458.895000", "101456.310000", "101458.100000", "101456.510000", "101458.300000", "101456.707500", "101458.497500", "101456.907500", "101458.697500", "101457.305000", "101459.095000", "101457.505000", "101459.295000", "101457.702500", "101459.492500", "101457.902500", "101459.692500", "101457.105000", "101458.895000", "101456.310000", "101458.100000", "101456.510000", "101458.300000", "101456.707500", "101458.497500", "101456.907500", "101458.697500", "101457.305000", "101459.095000", "101457.505000", "101459.295000", "101457.702500", "101459.492500", "101457.902500", "101459.692500", "101457.105000", "101458.895000", "101456.310000", "101458.100000", "101456.510000", "101458.300000", "101456.707500", "101458.497500", "101456.907500", "101458.697500", "101457.305000", "101459.095000", "101457.505000", "101459.295000", "101457.702500", "101459.492500", "101457.902500", "101459.692500", "101457.105000", "101502.495000", "101459.910000", "101501.700000", "101500.110000", "101501.900000", "101500.307500", "101502.097500", "101500.507500", "101502.297500", "101500.905000", "101502.695000", "101501.105000", "101502.895000", "101501.302500", "101503.092500", "101501.502500", "101503.292500", "101500.705000", "101502.495000", "101459.910000", "101501.700000", "101500.110000", "101501.900000", "101500.307500", "101502.097500", "101500.507500", "101502.297500", "101500.905000", "101502.695000", "101501.105000", "101502.895000", "101501.302500", "101503.092500", "101501.502500", "101503.292500", "101500.705000", "101502.495000", "101459.910000", "101501.700000", "101500.110000", "101501.900000", "101500.307500", "101502.097500", "101500.507500", "101502.297500", "101500.905000", "101502.695000", "101501.105000", "101502.895000", "101501.302500", "101503.092500", "101501.502500", "101503.292500", "101500.705000", "101502.495000", "101459.910000", "101501.700000", "101500.110000", "101501.900000", "101500.307500", "101502.097500", "101500.507500", "101502.297500", "101500.905000", "101502.695000", "101501.105000", "101502.895000", "101501.302500", "101503.092500", "101501.502500", "101503.292500", "101500.705000", "101506.095000", "101503.510000", "101505.300000", "101503.710000", "101505.500000", "101503.907500", "101505.697500", "101504.107500", "101505.897500", "101504.505000", "101506.295000", "101504.705000", "101506.495000", "101504.902500", "101506.692500", "101505.102500", "101506.892500", "101504.305000", "101506.095000", "101503.510000", "101505.300000", "101503.710000", "101505.500000", "101503.907500", "101505.697500", "101504.107500", "101505.897500", "101504.505000", "101506.295000", "101504.705000", "101506.495000", "101504.902500", "101506.692500", "101505.102500", "101506.892500", "101504.305000", "101506.095000", "101503.510000", "101505.300000", "101503.710000", "101505.500000", "101503.907500", "101505.697500", "101504.107500", "101505.897500", "101504.505000", "101506.295000", "101504.705000", "101506.495000", "101504.902500", "101506.692500", "101505.102500", "101506.892500", "101504.305000", "101506.095000", "101503.510000", "101505.300000", "101503.710000", "101505.500000", "101503.907500", "101505.697500", "101504.107500", "101505.897500", "101504.505000", "101506.295000", "101504.705000", "101506.495000", "101504.902500", "101506.692500", "101505.102500", "101506.892500", "101504.305000", "101509.695000", "101507.110000", "101508.900000", "101507.310000", "101509.100000", "101507.507500", "101509.297500", "101507.707500", "101509.497500", "101508.105000", "101509.895000", "101508.305000", "101510.095000", "101508.502500", "101510.292500", "101508.702500", "101510.492500", "101507.905000", "101509.695000", "101507.110000", "101508.900000", "101507.310000", "101509.100000", "101507.507500", "101509.297500", "101507.707500", "101509.497500", "101508.105000", "101509.895000", "101508.305000", "101510.095000", "101508.502500", "101510.292500", "101508.702500", "101510.492500", "101507.905000", "101509.695000", "101507.110000", "101508.900000", "101507.310000", "101509.100000", "101507.507500", "101509.297500", "101507.707500", "101509.497500", "101508.105000", "101509.895000", "101508.305000", "101510.095000", "101508.502500", "101510.292500", "101508.702500", "101510.492500", "101507.905000", "101509.695000", "101507.110000", "101508.900000", "101507.310000", "101509.100000", "101507.507500", "101509.297500", "101507.707500", "101509.497500", "101508.105000", "101509.895000", "101508.305000", "101510.095000", "101508.502500", "101510.292500", "101508.702500", "101510.492500", "101507.905000", "101513.295000", "101510.710000", "101512.500000", "101510.910000", "101512.700000", "101511.107500", "101512.897500", "101511.307500", "101513.097500", "101511.705000", "101513.495000", "101511.905000", "101513.695000", "101512.102500", "101513.892500", "101512.302500", "101514.092500", "101511.505000", "101513.295000", "101510.710000", "101512.500000", "101510.910000", "101512.700000", "101511.107500", "101512.897500", "101511.307500", "101513.097500", "101511.705000", "101513.495000", "101511.905000", "101513.695000", "101512.102500", "101513.892500", "101512.302500", "101514.092500", "101511.505000", "101513.295000", "101510.710000", "101512.500000", "101510.910000", "101512.700000", "101511.107500", "101512.897500", "101511.307500", "101513.097500", "101511.705000", "101513.495000", "101511.905000", "101513.695000", "101512.102500", "101513.892500", "101512.302500", "101514.092500", "101511.505000", "101513.295000", "101510.710000", "101512.500000", "101510.910000", "101512.700000", "101511.107500", "101512.897500", "101511.307500", "101513.097500", "101511.705000", "101513.495000", "101511.905000", "101513.695000", "101512.102500", "101513.892500", "101512.302500", "101514.092500", "101511.505000", "101516.895000", "101514.310000", "101516.100000", "101514.510000", "101516.300000", "101514.707500", "101516.497500", "101514.907500", "101516.697500", "101515.305000", "101517.095000", "101515.505000", "101517.295000", "101515.702500", "101517.492500", "101515.902500", "101517.692500", "101515.105000", "101516.895000", "101514.310000", "101516.100000", "101514.510000", "101516.300000", "101514.707500", "101516.497500", "101514.907500", "101516.697500", "101515.305000", "101517.095000", "101515.505000", "101517.295000", "101515.702500", "101517.492500", "101515.902500", "101517.692500", "101515.105000", "101516.895000", "101514.310000", "101516.100000", "101514.510000", "101516.300000", "101514.707500", "101516.497500", "101514.907500", "101516.697500", "101515.305000", "101517.095000", "101515.505000", "101517.295000", "101515.702500", "101517.492500", "101515.902500", "101517.692500", "101515.105000", "101516.895000", "101514.310000", "101516.100000", "101514.510000", "101516.300000", "101514.707500", "101516.497500", "101514.907500", "101516.697500", "101515.305000", "101517.095000", "101515.505000", "101517.295000", "101