{
  "AcquisitionMatrixPE": 80,
  "AcquisitionNumber": 1,
  "AcquisitionTime": "10:19:9.497500",
  "BandwidthPerPixelPhaseEncode": 25,
  "BaseResolution": 80,
  "BodyPartExamined": "BRAIN",
  "CoilCombinationMethod": "Sum of Squares",
  "ConsistencyInfo": "N4_VE11E_LATEST_20181129",
  "ConversionSoftware": "dcm2niix",
  "ConversionSoftwareVersion": "v1.0.20220720",
  "DerivedVendorReportedEchoSpacing": 0.0005,
  "DeviceSerialNumber": "66112",
  "DwellTime": 2.7e-06,
  "EchoTime": 0.03,
  "EchoTrainLength": 80,
  "EffectiveEchoSpacing": 0.0005,
  "FlipAngle": 10,
  "HeudiconvVersion": "0.13.1",
  "ImageOrientationPatientDICOM": [0.993577, -0.113106, 0.00341034, 0.106534, 0.945149, 0.308777],
  "ImageOrientationText": "Tra>Cor(17.9)>Sag(2.2)",
  "ImageType": [
    "ORIGINAL",
    "PRIMARY",
    "M",
    "ND",
    "NORM",
    "MOSAIC"
],
  "ImagingFrequency": 123.261,
  "InPlanePhaseEncodingDirectionDICOM": "COL",
  "InstitutionAddress": "Maynard 3,Hanover,NH,US,03755",
  "InstitutionName": "Dartmouth College - PBS",
  "InstitutionalDepartmentName": "Department",
  "MRAcquisitionType": "2D",
  "MagneticFieldStrength": 3,
  "Manufacturer": "Siemens",
  "ManufacturersModelName": "Prisma",
  "MatrixCoilMode": "SENSE",
  "Modality": "MR",
  "NonlinearGradientCorrection": false,
  "PartialFourier": 1,
  "PatientPosition": "HFS",
  "PercentPhaseFOV": 100,
  "PercentSampling": 100,
  "PhaseEncodingDirection": "j-",
  "PhaseEncodingSteps": 80,
  "PhaseResolution": 1,
  "PixelBandwidth": 2315,
  "ProcedureStepDescription": "dbic^QA",
  "ProtocolName": "func-bold_fa-10",
  "PulseSequenceDetails": "%SiemensSeq%\\ep2d_bold",
  "ReceiveCoilActiveElements": "HC1-7;NC1,2",
  "ReceiveCoilName": "HeadNeck_64",
  "ReconMatrixPE": 80,
  "RepetitionTime": 2,
  "SAR": 0.00858063,
  "ScanOptions": "FS",
  "ScanningSequence": "EP",
  "SequenceName": "*epfid2d1_80",
  "SequenceVariant": "SK",
  "SeriesDescription": "func-bold_fa-10",
  "SeriesNumber": 7,
  "ShimSetting": [4243, -7741, -7485, -124, -202, -215, -48, 104],
  "SliceThickness": 3.5,
  "SliceTiming": [0.99, 0, 1.055, 0.065, 1.12, 0.13, 1.1875, 0.1975, 1.2525, 0.2625, 1.3175, 0.33, 1.385, 0.395, 1.45, 0.46, 1.5175, 0.5275, 1.5825, 0.5925, 1.6475, 0.66, 1.715, 0.725, 1.78, 0.79, 1.8475, 0.8575, 1.9125, 0.9225],
  "SoftwareVersions": "syngo MR E11",
  "SpacingBetweenSlices": 3.99,
  "StationName": "AWP66112",
  "TotalReadoutTime": 0.0395,
  "TxRefAmp": 208.797,
  "dcmmeta_affine": [
    [-2.9807310104370117, 0.31960076093673706, 0.15221039950847626, 103.8751449584961],
    [0.33931899070739746, 2.8354477882385254, 1.2226592302322388, -135.75990295410156],
    [0.010231031104922295, -0.926332414150238, 3.79500150680542, -20.762948989868164],
    [0.0, 0.0, 0.0, 1.0]
],
  "dcmmeta_reorient_transform": [
    [0.0, -1.0, 0.0, 79.0],
    [1.0, 0.0, 0.0, 0.0],
    [0.0, 0.0, 1.0, 0.0],
    [0.0, 0.0, 0.0, 1.0]
],
  "dcmmeta_shape": [80, 80, 30, 200],
  "dcmmeta_slice_dim": 2,
  "dcmmeta_version": 0.6,
  "global": {
    "const": {
      "AccessionNumber": "qa64",
      "AcquisitionMatrix": [80, 0, 0, 80],
      "AngioFlag": "N",
      "BitsAllocated": 16,
      "BitsStored": 12,
      "BodyPartExamined": "BRAIN",
      "Columns": 480,
      "EchoNumbers": 1,
      "EchoTime": 30.0,
      "EchoTrainLength": 80,
      "FlipAngle": 10.0,
      "HighBit": 11,
      "ImageOrientationPatient": [0.99357703621478, -0.1131063334316, 0.00341034372537, 0.10653358833739, 0.94514923261314, 0.30877746460316],
      "ImagePositionPatient": [-789.18998288183, -587.46621211776, -281.25589292549],
      "ImageType": [
        "ORIGINAL",
        "PRIMARY",
        "M",
        "ND",
        "NORM",
        "MOSAIC"
],
      "ImagedNucleus": "1H",
      "ImagingFrequency": 123.261311,
      "InPlanePhaseEncodingDirection": "COL",
      "MRAcquisitionType": "2D",
      "MagneticFieldStrength": 3.0,
      "Manufacturer": "SIEMENS",
      "ManufacturerModelName": "Prisma",
      "Modality": "MR",
      "NumberOfAverages": 1.0,
      "NumberOfPhaseEncodingSteps": 80,
      "PercentPhaseFieldOfView": 100.0,
      "PercentSampling": 100.0,
      "PerformedProcedureStepStartTime": "100031.510000",
      "PhotometricInterpretation": "MONOCHROME2",
      "PixelBandwidth": 2315.0,
      "PixelRepresentation": 0,
      "PixelSpacing": [3.0, 3.0],
      "ProtocolName": "func-bold_fa-10",
      "RepetitionTime": 2000.0,
      "Rows": 480,
      "SAR": 0.00858062543796,
      "SamplesPerPixel": 1,
      "ScanOptions": "FS",
      "ScanningSequence": "EP",
      "SequenceName": "*epfid2d1_80",
      "SequenceVariant": "SK",
      "SeriesDescription": "func-bold_fa-10",
      "SeriesNumber": 7,
      "SeriesTime": "102001.608000",
      "SliceLocation": -57.386624508588,
      "SliceThickness": 3.5,
      "SmallestImagePixelValue": 0,
      "SoftwareVersions": "syngo MR E11",
      "SpacingBetweenSlices": 3.9899999500166,
      "SpecificCharacterSet": "ISO_IR 100",
      "StudyID": "16",
      "StudyTime": "100031.314000",
      "TransmitCoilName": "Body",
      "VariableFlipAngleFlag": "N",
      "WindowCenterWidthExplanation": "Algo1"
    },
    "slices": {}
  },
  "time": {
    "samples": {
      "AcquisitionNumber": [1, 2, 3, 4, 5, 6, 7, 8, 9, 10, 11, 12, 13, 14, 15, 16, 17, 18, 19, 20, 21, 22, 23, 24, 25, 26, 27, 28, 29, 30, 31, 32, 33, 34, 35, 36, 37, 38, 39, 40, 41, 42, 43, 44, 45, 46, 47, 48, 49, 50, 51, 52, 53, 54, 55, 56, 57, 58, 59, 60, 61, 62, 63, 64, 65, 66, 67, 68, 69, 70, 71, 72, 73, 74, 75, 76, 77, 78, 79, 80, 81, 82, 83, 84, 85, 86, 87, 88, 89, 90, 91, 92, 93, 94, 95, 96, 97, 98, 99, 100, 101, 102, 103, 104, 105, 106, 107, 108, 109, 110, 111, 112, 113, 114, 115, 116, 117, 118, 119, 120, 121, 122, 123, 124, 125, 126, 127, 128, 129, 130, 131, 132, 133, 134, 135, 136, 137, 138, 139, 140, 141, 142, 143, 144, 145, 146, 147, 148, 149, 150, 151, 152, 153, 154, 155, 156, 157, 158, 159, 160, 161, 162, 163, 164, 165, 166, 167, 168, 169, 170, 171, 172, 173, 174, 175, 176, 177, 178, 179, 180, 181, 182, 183, 184, 185, 186, 187, 188, 189, 190, 191, 192, 193, 194, 195, 196, 197, 198, 199, 200],
      "AcquisitionTime": ["101909.497500", "101911.497500", "101913.497500", "101915.497500", "101917.497500", "101919.497500", "101921.497500", "101923.497500", "101925.497500", "101927.497500", "101929.497500", "101931.497500", "101933.497500", "101935.497500", "101937.497500", "101939.497500", "101941.497500", "101943.497500", "101945.497500", "101947.497500", "101949.497500", "101951.497500", "101953.497500", "101955.497500", "101957.497500", "101959.497500", "102001.497500", "102003.497500", "102005.497500", "102007.497500", "102009.497500", "102011.497500", "102013.497500", "102015.497500", "102017.497500", "102019.497500", "102021.497500", "102023.497500", "102025.497500", "102027.497500", "102029.497500", "102031.497500", "102033.497500", "102035.497500", "102037.497500", "102039.497500", "102041.497500", "102043.497500", "102045.497500", "102047.497500", "102049.497500", "102051.497500", "102053.497500", "102055.497500", "102057.497500", "102059.497500", "102101.497500", "102103.497500", "102105.497500", "102107.497500", "102109.497500", "102111.497500", "102113.497500", "102115.497500", "102117.497500", "102119.497500", "102121.497500", "102123.497500", "102125.497500", "102127.497500", "102129.497500", "102131.497500", "102133.497500", "102135.497500", "102137.497500", "102139.497500", "102141.497500", "102143.497500", "102145.497500", "102147.497500", "102149.497500", "102151.497500", "102153.497500", "102155.497500", "102157.497500", "102159.497500", "102201.497500", "102203.497500", "102205.497500", "102207.497500", "102209.497500", "102211.497500", "102213.497500", "102215.497500", "102217.497500", "102219.497500", "102221.497500", "102223.497500", "102225.497500", "102227.497500", "102229.497500", "102231.497500", "102233.497500", "102235.497500", "102237.497500", "102239.497500", "102241.497500", "102243.497500", "102245.497500", "102247.497500", "102249.497500", "102251.497500", "102253.497500", "102255.497500", "102257.497500", "102259.497500", "102301.497500", "102303.497500", "102305.497500", "102307.497500", "102309.497500", "102311.497500", "102313.497500", "102315.497500", "102317.497500", "102319.497500", "102321.497500", "102323.497500", "102325.497500", "102327.497500", "102329.497500", "102331.497500", "102333.497500", "102335.497500", "102337.497500", "102339.497500", "102341.497500", "102343.497500", "102345.497500", "102347.497500", "102349.497500", "102351.497500", "102353.497500", "102355.497500", "102357.497500", "102359.497500", "102401.497500", "102403.497500", "102405.497500", "102407.497500", "102409.497500", "102411.497500", "102413.497500", "102415.497500", "102417.497500", "102419.497500", "102421.497500", "102423.497500", "102425.497500", "102427.497500", "102429.497500", "102431.497500", "102433.497500", "102435.497500", "102437.497500", "102439.497500", "102441.497500", "102443.497500", "102445.497500", "102447.497500", "102449.497500", "102451.497500", "102453.497500", "102455.497500", "102457.497500", "102459.497500", "102501.497500", "102503.497500", "102505.497500", "102507.497500", "102509.497500", "102511.497500", "102513.497500", "102515.497500", "102517.497500", "102519.497500", "102521.497500", "102523.497500", "102525.497500", "102527.497500", "102529.497500", "102531.497500", "102533.497500", "102535.497500", "102537.497500", "102539.497500", "102541.497500", "102543.497500", "102545.497500", "102547.497500"],
      "ContentTime": ["102001.611000", "102001.615000", "102001.617000", "102001.619000", "102001.622000", "102001.624000", "102001.627000", "102001.637000", "102001.640000", "102001.642000", "102001.644000", "102001.647000", "102001.649000", "102001.656000", "102001.658000", "102001.661000", "102001.663000", "102001.665000", "102001.668000", "102001.670000", "102001.672000", "102001.675000", "102001.677000", "102001.679000", "102001.682000", "102001.684000", "102041.606000", "102041.609000", "102041.611000", "102041.614000", "102041.616000", "102041.618000", "102041.621000", "102041.623000", "102041.625000", "102041.627000", "102041.630000", "102041.632000", "102041.634000", "102041.637000", "102041.639000", "102041.641000", "102041.644000", "102041.646000", "102041.655000", "102041.657000", "102121.607000", "102121.610000", "102121.612000", "102121.614000", "102121.617000", "102121.619000", "102121.621000", "102121.624000", "102121.626000", "102121.628000", "102121.631000", "102121.633000", "102121.635000", "102121.638000", "102121.640000", "102121.642000", "102121.645000", "102121.647000", "102121.649000", "102121.651000", "102201.607000", "102201.610000", "102201.612000", "102201.614000", "102201.617000", "102201.619000", "102201.621000", "102201.624000", "102201.626000", "102201.628000", "102201.631000", "102201.633000", "102201.635000", "102201.637000", "102201.640000", "102201.642000", "102201.644000", "102201.647000", "102201.649000", "102201.651000", "102241.606000", "102241.609000", "102241.611000", "102241.614000", "102241.616000", "102241.618000", "102241.621000", "102241.623000", "102241.625000", "102241.628000", "102241.630000", "102241.632000", "102241.634000", "102241.637000", "102241.639000", "102241.641000", "102241.644000", "102241.646000", "102241.648000", "102241.651000", "102321.606000", "102321.609000", "102321.611000", "102321.613000", "102321.616000", "102321.618000", "102321.620000", "102321.622000", "102321.625000", "102321.627000", "102321.629000", "102321.632000", "102321.634000", "102321.636000", "102321.638000", "102321.641000", "102321.643000", "102321.645000", "102321.648000", "102321.650000", "102401.607000", "102401.610000", "102401.612000", "102401.614000", "102401.617000", "102401.619000", "102401.621000", "102401.624000", "102401.626000", "102401.628000", "102401.631000", "102401.633000", "102401.635000", "102401.637000", "102401.644000", "102401.646000", "102401.648000", "102401.651000", "102401.653000", "102401.655000", "102421.607000", "102421.610000", "102421.612000", "102421.614000", "102421.617000", "102421.619000", "102421.621000", "102421.624000", "102421.626000", "102421.628000", "102501.606000", "102501.609000", "102501.611000", "102501.613000", "102501.616000", "102501.618000", "102501.621000", "102501.623000", "102501.625000", "102501.628000", "102501.630000", "102501.632000", "102501.635000", "102501.637000", "102501.639000", "102501.641000", "102501.644000", "102501.646000", "102501.648000", "102501.651000", "102541.606000", "102541.609000", "102541.611000", "102541.614000", "102541.616000", "102541.618000", "102541.621000", "102541.623000", "102541.625000", "102541.628000", "102541.630000", "102541.632000", "102541.635000", "102541.637000", "102541.639000", "102541.641000", "102541.644000", "102541.646000", "102541.648000", "102541.651000", "102548.727000", "102548.729000", "102548.732000", "102548.734000"],
      "InstanceCreationTime": ["102001.611000", "102001.615000", "102001.617000", "102001.619000", "102001.622000", "102001.624000", "102001.627000", "102001.637000", "102001.640000", "102001.642000", "102001.644000", "102001.647000", "102001.649000", "102001.656000", "102001.658000", "102001.661000", "102001.663000", "102001.665000", "102001.668000", "102001.670000", "102001.672000", "102001.675000", "102001.677000", "102001.679000", "102001.682000", "102001.684000", "102041.606000", "102041.609000", "102041.611000", "102041.614000", "102041.616000", "102041.618000", "102041.621000", "102041.623000", "102041.625000", "102041.627000", "102041.630000", "102041.632000", "102041.634000", "102041.637000", "102041.639000", "102041.641000", "102041.644000", "102041.646000", "102041.655000", "102041.657000", "102121.607000", "102121.610000", "102121.612000", "102121.614000", "102121.617000", "102121.619000", "102121.621000", "102121.624000", "102121.626000", "102121.628000", "102121.631000", "102121.633000", "102121.635000", "102121.638000", "102121.640000", "102121.642000", "102121.645000", "102121.647000", "102121.649000", "102121.651000", "102201.607000", "102201.610000", "102201.612000", "102201.614000", "102201.617000", "102201.619000", "102201.621000", "102201.624000", "102201.626000", "102201.628000", "102201.631000", "102201.633000", "102201.635000", "102201.637000", "102201.640000", "102201.642000", "102201.644000", "102201.647000", "102201.649000", "102201.651000", "102241.606000", "102241.609000", "102241.611000", "102241.614000", "102241.616000", "102241.618000", "102241.621000", "102241.623000", "102241.625000", "102241.628000", "102241.630000", "102241.632000", "102241.634000", "102241.637000", "102241.639000", "102241.641000", "102241.644000", "102241.646000", "102241.648000", "102241.651000", "102321.606000", "102321.609000", "102321.611000", "102321.613000", "102321.616000", "102321.618000", "102321.620000", "102321.622000", "102321.625000", "102321.627000", "102321.629000", "102321.632000", "102321.634000", "102321.636000", "102321.638000", "102321.641000", "102321.643000", "102321.645000", "102321.648000", "102321.650000", "102401.607000", "102401.610000", "102401.612000", "102401.614000", "102401.617000", "102401.619000", "102401.621000", "102401.624000", "102401.626000", "102401.628000", "102401.631000", "102401.633000", "102401.635000", "102401.637000", "102401.644000", "102401.646000", "102401.648000", "102401.651000", "102401.653000", "102401.655000", "102421.607000", "102421.610000", "102421.612000", "102421.614000", "102421.617000", "102421.619000", "102421.621000", "102421.624000", "102421.626000", "102421.628000", "102501.606000", "102501.609000", "102501.611000", "102501.613000", "102501.616000", "102501.618000", "102501.621000", "102501.623000", "102501.625000", "102501.628000", "102501.630000", "102501.632000", "102501.635000", "102501.637000", "102501.639000", "102501.641000", "102501.644000", "102501.646000", "102501.648000", "102501.651000", "102541.606000", "102541.609000", "102541.611000", "102541.614000", "102541.616000", "102541.618000", "102541.621000", "102541.623000", "102541.625000", "102541.628000", "102541.630000", "102541.632000", "102541.635000", "102541.637000", "102541.639000", "102541.641000", "102541.644000", "102541.646000", "102541.648000", "102541.651000", "102548.727000", "102548.729000", "102548.732000", "102548.734000"],
      "InstanceNumber": [1, 2, 3, 4, 5, 6, 7, 8, 9, 10, 11, 12, 13, 14, 15, 16, 17, 18, 19, 20, 21, 22, 23, 24, 25, 26, 27, 28, 29, 30, 31, 32, 33, 34, 35, 36, 37, 38, 39, 40, 41, 42, 43, 44, 45, 46, 47, 48, 49, 50, 51, 52, 53, 54, 55, 56, 57, 58, 59, 60, 61, 62, 63, 64, 65, 66, 67, 68, 69, 70, 71, 72, 73, 74, 75, 76, 77, 78, 79, 80, 81, 82, 83, 84, 85, 86, 87, 88, 89, 90, 91, 92, 93, 94, 95, 96, 97, 98, 99, 100, 101, 102, 103, 104, 105, 106, 107, 108, 109, 110, 111, 112, 113, 114, 115, 116, 117, 118, 119, 120, 121, 122, 123, 124, 125, 126, 127, 128, 129, 130, 131, 132, 133, 134, 135, 136, 137, 138, 139, 140, 141, 142, 143, 144, 145, 146, 147, 148, 149, 150, 151, 152, 153, 154, 155, 156, 157, 158, 159, 160, 161, 162, 163, 164, 165, 166, 167, 168, 169, 170, 171, 172, 173, 174, 175, 176, 177, 178, 179, 180, 181, 182, 183, 184, 185, 186, 187, 188, 189, 190, 191, 192, 193, 194, 195, 196, 197, 198, 199, 200],
      "LargestImagePixelValue": [628, 630, 629, 622, 626, 628, 623, 629, 628, 622, 625, 628, 624, 629, 629, 623, 629, 629, 630, 630, 629, 632, 629, 628, 626, 626, 624, 629, 622, 627, 627, 627, 630, 627, 626, 628, 630, 634, 631, 627, 626, 626, 630, 627, 627, 627, 623, 625, 627, 630, 630, 626, 631, 628, 630, 631, 628, 629, 627, 623, 624, 627, 623, 627, 627, 626, 626, 625, 622, 626, 626, 628, 631, 628, 628, 626, 629, 629, 629, 626, 628, 628, 622, 625, 628, 629, 628, 626, 629, 628, 630, 631, 633, 629, 633, 626, 628, 626, 630, 627, 629, 628, 622, 626, 626, 627, 626, 629, 629, 628, 629, 630, 631, 625, 631, 628, 624, 628, 627, 626, 629, 626, 623, 625, 627, 629, 630, 629, 632, 626, 631, 628, 628, 627, 628, 626, 625, 624, 628, 626, 628, 623, 624, 625, 626, 628, 630, 630, 626, 627, 629, 626, 627, 629, 626, 630, 628, 627, 625, 625, 627, 628, 626, 625, 629, 630, 632, 627, 625, 624, 628, 629, 626, 631, 627, 622, 623, 624, 628, 625, 628, 624, 625, 629, 629, 627, 630, 629, 627, 626, 628, 625, 626, 626, 627, 625, 628, 625, 624, 626],
      "WindowCenter": [452.0, 453.0, 452.0, 452.0, 452.0, 452.0, 452.0, 452.0, 452.0, 452.0, 452.0, 452.0, 452.0, 452.0, 452.0, 452.0, 452.0, 452.0, 453.0, 453.0, 452.0, 453.0, 452.0, 452.0, 452.0, 452.0, 452.0, 452.0, 452.0, 452.0, 452.0, 452.0, 453.0, 452.0, 452.0, 452.0, 453.0, 453.0, 453.0, 452.0, 452.0, 452.0, 453.0, 452.0, 452.0, 452.0, 452.0, 452.0, 452.0, 453.0, 453.0, 452.0, 453.0, 452.0, 453.0, 453.0, 452.0, 452.0, 452.0, 452.0, 452.0, 452.0, 452.0, 452.0, 452.0, 452.0, 452.0, 452.0, 452.0, 452.0, 452.0, 452.0, 453.0, 452.0, 452.0, 452.0, 452.0, 452.0, 452.0, 452.0, 452.0, 452.0, 452.0, 452.0, 452.0, 452.0, 452.0, 452.0, 452.0, 452.0, 453.0, 453.0, 453.0, 452.0, 453.0, 452.0, 451.0, 452.0, 453.0, 452.0, 452.0, 452.0, 452.0, 452.0, 452.0, 452.0, 452.0, 452.0, 452.0, 452.0, 452.0, 453.0, 453.0, 451.0, 453.0, 451.0, 452.0, 452.0, 452.0, 452.0, 452.0, 452.0, 452.0, 452.0, 452.0, 452.0, 453.0, 452.0, 453.0, 452.0, 453.0, 451.0, 451.0, 451.0, 451.0, 451.0, 451.0, 451.0, 452.0, 452.0, 452.0, 452.0, 452.0, 452.0, 452.0, 452.0, 453.0, 452.0, 451.0, 451.0, 451.0, 451.0, 451.0, 451.0, 451.0, 452.0, 451.0, 451.0, 451.0, 451.0, 451.0, 452.0, 452.0, 452.0, 451.0, 453.0, 452.0, 451.0, 451.0, 451.0, 451.0, 451.0, 451.0, 452.0, 451.0, 451.0, 451.0, 451.0, 451.0, 451.0, 451.0, 451.0, 451.0, 451.0, 451.0, 451.0, 452.0, 451.0, 451.0, 451.0, 451.0, 451.0, 451.0, 451.0, 451.0, 451.0, 451.0, 451.0, 451.0, 451.0],
      "WindowWidth": [942.0, 943.0, 941.0, 941.0, 942.0, 942.0, 942.0, 942.0, 942.0, 942.0, 942.0, 942.0, 942.0, 942.0, 942.0, 942.0, 942.0, 941.0, 943.0, 943.0, 941.0, 942.0, 941.0, 941.0, 941.0, 941.0, 941.0, 942.0, 942.0, 942.0, 942.0, 942.0, 942.0, 942.0, 942.0, 941.0, 942.0, 942.0, 942.0, 941.0, 941.0, 941.0, 942.0, 941.0, 941.0, 941.0, 941.0, 941.0, 942.0, 943.0, 943.0, 941.0, 942.0, 941.0, 942.0, 942.0, 940.0, 940.0, 940.0, 940.0, 940.0, 940.0, 940.0, 941.0, 941.0, 941.0, 941.0, 941.0, 941.0, 941.0, 941.0, 941.0, 943.0, 940.0, 940.0, 940.0, 940.0, 940.0, 940.0, 940.0, 940.0, 940.0, 940.0, 941.0, 941.0, 941.0, 941.0, 941.0, 941.0, 941.0, 942.0, 942.0, 942.0, 940.0, 942.0, 940.0, 939.0, 940.0, 942.0, 940.0, 940.0, 940.0, 940.0, 940.0, 940.0, 940.0, 940.0, 940.0, 940.0, 940.0, 940.0, 942.0, 941.0, 939.0, 941.0, 939.0, 940.0, 940.0, 940.0, 940.0, 940.0, 940.0, 940.0, 940.0, 940.0, 940.0, 942.0, 940.0, 942.0, 940.0, 941.0, 939.0, 939.0, 939.0, 940.0, 939.0, 940.0, 940.0, 940.0, 940.0, 940.0, 940.0, 940.0, 940.0, 940.0, 940.0, 941.0, 941.0, 940.0, 939.0, 940.0, 939.0, 939.0, 939.0, 939.0, 940.0, 940.0, 940.0, 940.0, 940.0, 940.0, 940.0, 940.0, 940.0, 939.0, 941.0, 941.0, 940.0, 939.0, 939.0, 939.0, 939.0, 939.0, 940.0, 939.0, 940.0, 939.0, 939.0, 940.0, 940.0, 940.0, 940.0, 940.0, 939.0, 939.0, 939.0, 940.0, 939.0, 939.0, 939.0, 939.0, 939.0, 939.0, 939.0, 939.0, 939.0, 939.0, 939.0, 940.0, 939.0]
    },
    "slices": {}
  }
}