{
  "AcquisitionMatrixPE": 80,
  "AcquisitionNumber": 1,
  "AcquisitionTime": "10:05:31.757500",
  "BandwidthPerPixelPhaseEncode": 48.077,
  "BaseResolution": 80,
  "BodyPartExamined": "BRAIN",
  "CoilCombinationMethod": "Sum of Squares",
  "ConsistencyInfo": "N4_VE11E_LATEST_20181129",
  "ConversionSoftware": "dcm2niix",
  "ConversionSoftwareVersion": "v1.0.20220720",
  "DerivedVendorReportedEchoSpacing": 0.000519999,
  "DeviceSerialNumber": "66112",
  "DwellTime": 2.7e-06,
  "EchoTime": 0.035,
  "EchoTrainLength": 39,
  "EffectiveEchoSpacing": 0.00026,
  "FlipAngle": 90,
  "HeudiconvVersion": "0.13.1",
  "ImageOrientationPatientDICOM": [0.993577, -0.113106, 0.00341034, 0.106534, 0.945149, 0.308777],
  "ImageOrientationText": "Tra>Cor(17.9)>Sag(2.2)",
  "ImageType": [
    "ORIGINAL",
    "PRIMARY",
    "M",
    "ND",
    "NORM",
    "MOSAIC"
],
  "ImagingFrequency": 123.261,
  "InPlanePhaseEncodingDirectionDICOM": "COL",
  "InstitutionAddress": "Maynard 3,Hanover,NH,US,03755",
  "InstitutionName": "Dartmouth College - PBS",
  "InstitutionalDepartmentName": "Department",
  "MRAcquisitionType": "2D",
  "MagneticFieldStrength": 3,
  "Manufacturer": "Siemens",
  "ManufacturersModelName": "Prisma",
  "MatrixCoilMode": "GRAPPA",
  "Modality": "MR",
  "NonlinearGradientCorrection": false,
  "ParallelReductionFactorInPlane": 2,
  "PartialFourier": 1,
  "PatientPosition": "HFS",
  "PercentPhaseFOV": 100,
  "PercentSampling": 100,
  "PhaseEncodingDirection": "j-",
  "PhaseEncodingSteps": 79,
  "PhaseResolution": 1,
  "PixelBandwidth": 2315,
  "ProcedureStepDescription": "dbic^QA",
  "ProtocolName": "func-bold_task-rest_acq-p2",
  "PulseSequenceDetails": "%SiemensSeq%\\ep2d_bold",
  "ReceiveCoilActiveElements": "HC1-7;NC1,2",
  "ReceiveCoilName": "HeadNeck_64",
  "ReconMatrixPE": 80,
  "RefLinesPE": 24,
  "RepetitionTime": 2,
  "SAR": 0.0407044,
  "ScanOptions": "FS",
  "ScanningSequence": "EP",
  "SequenceName": "*epfid2d1_80",
  "SequenceVariant": "SK",
  "SeriesDescription": "func-bold_task-rest_acq-p2",
  "SeriesNumber": 5,
  "ShimSetting": [4243, -7740, -7485, -127, -202, -214, -49, 104],
  "SliceThickness": 3.5,
  "SliceTiming": [0.99, 0, 1.055, 0.065, 1.12, 0.13, 1.1875, 0.1975, 1.2525, 0.2625, 1.32, 0.33, 1.385, 0.395, 1.45, 0.46, 1.5175, 0.5275, 1.5825, 0.5925, 1.65, 0.66, 1.715, 0.725, 1.78, 0.79, 1.8475, 0.8575, 1.9125, 0.9225],
  "SoftwareVersions": "syngo MR E11",
  "SpacingBetweenSlices": 3.99,
  "StationName": "AWP66112",
  "TaskName": "rest",
  "TotalReadoutTime": 0.02054,
  "TxRefAmp": 208.797,
  "dcmmeta_affine": [
    [-2.9807310104370117, 0.31960076093673706, 0.15221039950847626, 105.5295639038086],
    [0.33931899070739746, 2.8354477882385254, 1.2226592302322388, -138.18435668945312],
    [0.010231031104922295, -0.926332414150238, 3.79500150680542, -21.39225196838379],
    [0.0, 0.0, 0.0, 1.0]
],
  "dcmmeta_reorient_transform": [
    [0.0, -1.0, 0.0, 79.0],
    [1.0, 0.0, 0.0, 0.0],
    [0.0, 0.0, 1.0, 0.0],
    [0.0, 0.0, 0.0, 1.0]
],
  "dcmmeta_shape": [80, 80, 30, 200],
  "dcmmeta_slice_dim": 2,
  "dcmmeta_version": 0.6,
  "global": {
    "const": {
      "AccessionNumber": "qa64",
      "AcquisitionMatrix": [80, 0, 0, 80],
      "AngioFlag": "N",
      "BitsAllocated": 16,
      "BitsStored": 12,
      "BodyPartExamined": "BRAIN",
      "Columns": 480,
      "EchoNumbers": 1,
      "EchoTime": 35.0,
      "EchoTrainLength": 39,
      "FlipAngle": 90.0,
      "HighBit": 11,
      "ImageOrientationPatient": [0.99357703621478, -0.1131063334316, 0.00341034372537, 0.10653358833739, 0.94514923261314, 0.30877746460316],
      "ImagePositionPatient": [-790.84439693956, -585.0417440773, -281.88519590401],
      "ImageType": [
        "ORIGINAL",
        "PRIMARY",
        "M",
        "ND",
        "NORM",
        "MOSAIC"
],
      "ImagedNucleus": "1H",
      "ImagingFrequency": 123.261313,
      "InPlanePhaseEncodingDirection": "COL",
      "MRAcquisitionType": "2D",
      "MagneticFieldStrength": 3.0,
      "Manufacturer": "SIEMENS",
      "ManufacturerModelName": "Prisma",
      "Modality": "MR",
      "NumberOfAverages": 1.0,
      "NumberOfPhaseEncodingSteps": 79,
      "PercentPhaseFieldOfView": 100.0,
      "PercentSampling": 100.0,
      "PerformedProcedureStepStartTime": "100031.510000",
      "PhotometricInterpretation": "MONOCHROME2",
      "PixelBandwidth": 2315.0,
      "PixelRepresentation": 0,
      "PixelSpacing": [3.0, 3.0],
      "ProtocolName": "func-bold_task-rest_acq-p2",
      "RepetitionTime": 2000.0,
      "Rows": 480,
      "SAR": 0.04070437350316,
      "SamplesPerPixel": 1,
      "ScanOptions": "FS",
      "ScanningSequence": "EP",
      "SequenceName": "*epfid2d1_80",
      "SequenceVariant": "SK",
      "SeriesDescription": "func-bold_task-rest_acq-p2",
      "SeriesNumber": 5,
      "SeriesTime": "100621.721000",
      "SliceLocation": -58.664991656928,
      "SliceThickness": 3.5,
      "SmallestImagePixelValue": 0,
      "SoftwareVersions": "syngo MR E11",
      "SpacingBetweenSlices": 3.9900000853631,
      "SpecificCharacterSet": "ISO_IR 100",
      "StudyID": "16",
      "StudyTime": "100031.314000",
      "TransmitCoilName": "Body",
      "VariableFlipAngleFlag": "N",
      "WindowCenterWidthExplanation": "Algo1"
    },
    "slices": {}
  },
  "time": {
    "samples": {
      "AcquisitionNumber": [1, 2, 3, 4, 5, 6, 7, 8, 9, 10, 11, 12, 13, 14, 15, 16, 17, 18, 19, 20, 21, 22, 23, 24, 25, 26, 27, 28, 29, 30, 31, 32, 33, 34, 35, 36, 37, 38, 39, 40, 41, 42, 43, 44, 45, 46, 47, 48, 49, 50, 51, 52, 53, 54, 55, 56, 57, 58, 59, 60, 61, 62, 63, 64, 65, 66, 67, 68, 69, 70, 71, 72, 73, 74, 75, 76, 77, 78, 79, 80, 81, 82, 83, 84, 85, 86, 87, 88, 89, 90, 91, 92, 93, 94, 95, 96, 97, 98, 99, 100, 101, 102, 103, 104, 105, 106, 107, 108, 109, 110, 111, 112, 113, 114, 115, 116, 117, 118, 119, 120, 121, 122, 123, 124, 125, 126, 127, 128, 129, 130, 131, 132, 133, 134, 135, 136, 137, 138, 139, 140, 141, 142, 143, 144, 145, 146, 147, 148, 149, 150, 151, 152, 153, 154, 155, 156, 157, 158, 159, 160, 161, 162, 163, 164, 165, 166, 167, 168, 169, 170, 171, 172, 173, 174, 175, 176, 177, 178, 179, 180, 181, 182, 183, 184, 185, 186, 187, 188, 189, 190, 191, 192, 193, 194, 195, 196, 197, 198, 199, 200],
      "AcquisitionTime": ["100531.757500", "100533.757500", "100535.757500", "100537.757500", "100539.757500", "100541.757500", "100543.757500", "100545.757500", "100547.757500", "100549.757500", "100551.757500", "100553.757500", "100555.757500", "100557.757500", "100559.757500", "100601.757500", "100603.757500", "100605.757500", "100607.757500", "100609.757500", "100611.757500", "100613.757500", "100615.757500", "100617.757500", "100619.757500", "100621.757500", "100623.757500", "100625.757500", "100627.757500", "100629.757500", "100631.757500", "100633.757500", "100635.757500", "100637.757500", "100639.757500", "100641.757500", "100643.757500", "100645.757500", "100647.757500", "100649.757500", "100651.757500", "100653.757500", "100655.757500", "100657.757500", "100659.757500", "100701.757500", "100703.757500", "100705.757500", "100707.757500", "100709.757500", "100711.757500", "100713.757500", "100715.757500", "100717.757500", "100719.757500", "100721.757500", "100723.757500", "100725.757500", "100727.757500", "100729.757500", "100731.757500", "100733.757500", "100735.757500", "100737.757500", "100739.757500", "100741.757500", "100743.757500", "100745.757500", "100747.757500", "100749.757500", "100751.757500", "100753.757500", "100755.757500", "100757.757500", "100759.757500", "100801.757500", "100803.757500", "100805.757500", "100807.757500", "100809.757500", "100811.757500", "100813.757500", "100815.757500", "100817.757500", "100819.757500", "100821.757500", "100823.757500", "100825.757500", "100827.757500", "100829.757500", "100831.757500", "100833.757500", "100835.757500", "100837.757500", "100839.757500", "100841.757500", "100843.757500", "100845.757500", "100847.757500", "100849.757500", "100851.757500", "100853.757500", "100855.757500", "100857.757500", "100859.757500", "100901.757500", "100903.757500", "100905.757500", "100907.757500", "100909.757500", "100911.757500", "100913.757500", "100915.757500", "100917.757500", "100919.757500", "100921.757500", "100923.757500", "100925.757500", "100927.757500", "100929.757500", "100931.757500", "100933.757500", "100935.757500", "100937.757500", "100939.757500", "100941.757500", "100943.757500", "100945.757500", "100947.757500", "100949.757500", "100951.757500", "100953.757500", "100955.757500", "100957.757500", "100959.757500", "101001.757500", "101003.757500", "101005.757500", "101007.757500", "101009.757500", "101011.757500", "101013.757500", "101015.757500", "101017.757500", "101019.757500", "101021.757500", "101023.757500", "101025.757500", "101027.757500", "101029.757500", "101031.757500", "101033.757500", "101035.757500", "101037.757500", "101039.757500", "101041.757500", "101043.757500", "101045.757500", "101047.757500", "101049.757500", "101051.757500", "101053.757500", "101055.757500", "101057.757500", "101059.757500", "101101.757500", "101103.757500", "101105.757500", "101107.757500", "101109.757500", "101111.757500", "101113.757500", "101115.757500", "101117.757500", "101119.757500", "101121.757500", "101123.757500", "101125.757500", "101127.757500", "101129.757500", "101131.757500", "101133.757500", "101135.757500", "101137.757500", "101139.757500", "101141.757500", "101143.757500", "101145.757500", "101147.757500", "101149.757500", "101151.757500", "101153.757500", "101155.757500", "101157.757500", "101159.757500", "101201.757500", "101203.757500", "101205.757500", "101207.757500", "101209.757500"],
      "ContentTime": ["100621.725000", "100621.728000", "100621.739000", "100621.742000", "100621.744000", "100621.746000", "100621.749000", "100621.751000", "100621.753000", "100621.760000", "100621.762000", "100621.765000", "100621.767000", "100621.778000", "100621.781000", "100621.783000", "100621.786000", "100621.788000", "100621.790000", "100621.793000", "100621.795000", "100621.797000", "100621.800000", "100621.802000", "100621.805000", "100701.719000", "100701.722000", "100701.724000", "100701.726000", "100701.729000", "100701.731000", "100701.734000", "100701.736000", "100701.739000", "100701.741000", "100701.743000", "100701.746000", "100701.749000", "100701.751000", "100701.753000", "100701.756000", "100701.758000", "100701.761000", "100701.763000", "100701.765000", "100741.720000", "100741.723000", "100741.725000", "100741.727000", "100741.730000", "100741.732000", "100741.734000", "100741.737000", "100741.739000", "100741.742000", "100741.744000", "100741.746000", "100741.749000", "100741.751000", "100741.754000", "100741.756000", "100741.759000", "100741.761000", "100741.763000", "100741.766000", "100821.719000", "100821.722000", "100821.724000", "100821.727000", "100821.729000", "100821.731000", "100821.734000", "100821.736000", "100821.739000", "100821.741000", "100821.743000", "100821.746000", "100821.748000", "100821.750000", "100821.753000", "100821.755000", "100821.757000", "100821.760000", "100821.762000", "100821.764000", "100901.720000", "100901.722000", "100901.725000", "100901.727000", "100901.730000", "100901.732000", "100901.734000", "100901.737000", "100901.739000", "100901.741000", "100901.744000", "100901.746000", "100901.749000", "100901.751000", "100901.753000", "100901.756000", "100901.758000", "100901.761000", "100901.763000", "100901.765000", "100941.720000", "100941.723000", "100941.725000", "100941.727000", "100941.730000", "100941.732000", "100941.735000", "100941.737000", "100941.739000", "100941.742000", "100941.744000", "100941.746000", "100941.749000", "100941.751000", "100941.754000", "100941.756000", "100941.758000", "100941.761000", "100941.763000", "100941.765000", "101021.720000", "101021.723000", "101021.738000", "101021.740000", "101021.743000", "101021.745000", "101021.747000", "101021.750000", "101021.752000", "101021.754000", "101021.757000", "101021.759000", "101021.761000", "101021.764000", "101021.766000", "101021.768000", "101021.771000", "101021.773000", "101021.775000", "101021.778000", "101101.719000", "101101.722000", "101101.724000", "101101.727000", "101101.729000", "101101.731000", "101101.734000", "101101.736000", "101101.739000", "101101.741000", "101101.743000", "101101.746000", "101101.748000", "101101.750000", "101101.753000", "101101.755000", "101101.758000", "101101.760000", "101101.762000", "101101.764000", "101141.719000", "101141.722000", "101141.724000", "101141.727000", "101141.730000", "101141.732000", "101141.734000", "101141.737000", "101141.739000", "101141.742000", "101141.744000", "101141.746000", "101141.749000", "101141.751000", "101141.753000", "101141.756000", "101141.758000", "101141.761000", "101141.763000", "101141.765000", "101211.410000", "101211.413000", "101211.415000", "101211.418000", "101211.420000", "101211.422000", "101211.425000", "101211.427000", "101211.430000", "101211.432000", "101211.435000", "101211.437000", "101211.439000", "101211.442000", "101211.444000"],
      "InstanceCreationTime": ["100621.725000", "100621.728000", "100621.739000", "100621.742000", "100621.744000", "100621.746000", "100621.749000", "100621.751000", "100621.753000", "100621.760000", "100621.762000", "100621.765000", "100621.767000", "100621.778000", "100621.781000", "100621.783000", "100621.786000", "100621.788000", "100621.790000", "100621.793000", "100621.795000", "100621.797000", "100621.800000", "100621.802000", "100621.805000", "100701.719000", "100701.722000", "100701.724000", "100701.726000", "100701.729000", "100701.731000", "100701.734000", "100701.736000", "100701.739000", "100701.741000", "100701.743000", "100701.746000", "100701.749000", "100701.751000", "100701.753000", "100701.756000", "100701.758000", "100701.761000", "100701.763000", "100701.765000", "100741.720000", "100741.723000", "100741.725000", "100741.727000", "100741.730000", "100741.732000", "100741.734000", "100741.737000", "100741.739000", "100741.742000", "100741.744000", "100741.746000", "100741.749000", "100741.751000", "100741.754000", "100741.756000", "100741.759000", "100741.761000", "100741.763000", "100741.766000", "100821.719000", "100821.722000", "100821.724000", "100821.727000", "100821.729000", "100821.731000", "100821.734000", "100821.736000", "100821.739000", "100821.741000", "100821.743000", "100821.746000", "100821.748000", "100821.750000", "100821.753000", "100821.755000", "100821.757000", "100821.760000", "100821.762000", "100821.764000", "100901.720000", "100901.722000", "100901.725000", "100901.727000", "100901.730000", "100901.732000", "100901.734000", "100901.737000", "100901.739000", "100901.741000", "100901.744000", "100901.746000", "100901.749000", "100901.751000", "100901.753000", "100901.756000", "100901.758000", "100901.761000", "100901.763000", "100901.765000", "100941.720000", "100941.723000", "100941.725000", "100941.727000", "100941.730000", "100941.732000", "100941.735000", "100941.737000", "100941.739000", "100941.742000", "100941.744000", "100941.746000", "100941.749000", "100941.751000", "100941.754000", "100941.756000", "100941.758000", "100941.761000", "100941.763000", "100941.765000", "101021.720000", "101021.723000", "101021.738000", "101021.740000", "101021.743000", "101021.745000", "101021.747000", "101021.750000", "101021.752000", "101021.754000", "101021.757000", "101021.759000", "101021.761000", "101021.764000", "101021.766000", "101021.768000", "101021.771000", "101021.773000", "101021.775000", "101021.778000", "101101.719000", "101101.722000", "101101.724000", "101101.727000", "101101.729000", "101101.731000", "101101.734000", "101101.736000", "101101.739000", "101101.741000", "101101.743000", "101101.746000", "101101.748000", "101101.750000", "101101.753000", "101101.755000", "101101.758000", "101101.760000", "101101.762000", "101101.764000", "101141.719000", "101141.722000", "101141.724000", "101141.727000", "101141.730000", "101141.732000", "101141.734000", "101141.737000", "101141.739000", "101141.742000", "101141.744000", "101141.746000", "101141.749000", "101141.751000", "101141.753000", "101141.756000", "101141.758000", "101141.761000", "101141.763000", "101141.765000", "101211.410000", "101211.413000", "101211.415000", "101211.418000", "101211.420000", "101211.422000", "101211.425000", "101211.427000", "101211.430000", "101211.432000", "101211.435000", "101211.437000", "101211.439000", "101211.442000", "101211.444000"],
      "InstanceNumber": [1, 2, 3, 4, 5, 6, 7, 8, 9, 10, 11, 12, 13, 14, 15, 16, 17, 18, 19, 20, 21, 22, 23, 24, 25, 26, 27, 28, 29, 30, 31, 32, 33, 34, 35, 36, 37, 38, 39, 40, 41, 42, 43, 44, 45, 46, 47, 48, 49, 50, 51, 52, 53, 54, 55, 56, 57, 58, 59, 60, 61, 62, 63, 64, 65, 66, 67, 68, 69, 70, 71, 72, 73, 74, 75, 76, 77, 78, 79, 80, 81, 82, 83, 84, 85, 86, 87, 88, 89, 90, 91, 92, 93, 94, 95, 96, 97, 98, 99, 100, 101, 102, 103, 104, 105, 106, 107, 108, 109, 110, 111, 112, 113, 114, 115, 116, 117, 118, 119, 120, 121, 122, 123, 124, 125, 126, 127, 128, 129, 130, 131, 132, 133, 134, 135, 136, 137, 138, 139, 140, 141, 142, 143, 144, 145, 146, 147, 148, 149, 150, 151, 152, 153, 154, 155, 156, 157, 158, 159, 160, 161, 162, 163, 164, 165, 166, 167, 168, 169, 170, 171, 172, 173, 174, 175, 176, 177, 178, 179, 180, 181, 182, 183, 184, 185, 186, 187, 188, 189, 190, 191, 192, 193, 194, 195, 196, 197, 198, 199, 200],
      "LargestImagePixelValue": [3770, 3769, 3757, 3754, 3757, 3768, 3763, 3762, 3758, 3762, 3767, 3756, 3765, 3755, 3754, 3761, 3764, 3758, 3764, 3748, 3771, 3755, 3761, 3747, 3746, 3762, 3759, 3754, 3758, 3758, 3754, 3754, 3751, 3753, 3758, 3757, 3757, 3752, 3746, 3758, 3753, 3765, 3754, 3756, 3758, 3752, 3759, 3748, 3750, 3752, 3762, 3755, 3755, 3752, 3748, 3765, 3752, 3749, 3756, 3749, 3753, 3754, 3753, 3751, 3745, 3753, 3757, 3758, 3752, 3755, 3755, 3752, 3746, 3749, 3756, 3752, 3756, 3753, 3751, 3752, 3764, 3748, 3750, 3752, 3757, 3760, 3747, 3753, 3749, 3755, 3755, 3756, 3752, 3753, 3753, 3748, 3757, 3757, 3757, 3751, 3751, 3758, 3756, 3752, 3756, 3750, 3753, 3759, 3757, 3760, 3751, 3758, 3758, 3758, 3752, 3757, 3757, 3754, 3762, 3758, 3757, 3756, 3758, 3754, 3760, 3756, 3755, 3758, 3762, 3758, 3766, 3765, 3760, 3756, 3755, 3758, 3759, 3763, 3762, 3753, 3764, 3770, 3760, 3762, 3771, 3770, 3761, 3763, 3765, 3760, 3764, 3760, 3765, 3758, 3772, 3765, 3769, 3767, 3766, 3762, 3758, 3761, 3762, 3761, 3758, 3765, 3755, 3763, 3764, 3764, 3760, 3767, 3768, 3757, 3763, 3770, 3756, 3758, 3762, 3771, 3771, 3767, 3768, 3765, 3772, 3767, 3759, 3764, 3769, 3771, 3770, 3770, 3768, 3766, 3763, 3766, 3769, 3767, 3764, 3769],
      "WindowCenter": [1462.0, 1461.0, 1461.0, 1460.0, 1460.0, 1461.0, 1461.0, 1461.0, 1460.0, 1461.0, 1460.0, 1460.0, 1460.0, 1460.0, 1461.0, 1461.0, 1460.0, 1460.0, 1460.0, 1460.0, 1459.0, 1460.0, 1461.0, 1459.0, 1459.0, 1460.0, 1461.0, 1459.0, 1459.0, 1460.0, 1459.0, 1460.0, 1459.0, 1459.0, 1460.0, 1459.0, 1459.0, 1458.0, 1459.0, 1459.0, 1458.0, 1459.0, 1458.0, 1459.0, 1458.0, 1459.0, 1459.0, 1459.0, 1459.0, 1459.0, 1458.0, 1459.0, 1459.0, 1458.0, 1458.0, 1458.0, 1458.0, 1458.0, 1458.0, 1459.0, 1458.0, 1458.0, 1457.0, 1458.0, 1456.0, 1457.0, 1458.0, 1458.0, 1457.0, 1457.0, 1457.0, 1458.0, 1458.0, 1458.0, 1457.0, 1457.0, 1457.0, 1457.0, 1457.0, 1457.0, 1457.0, 1457.0, 1457.0, 1456.0, 1455.0, 1456.0, 1456.0, 1456.0, 1457.0, 1456.0, 1456.0, 1457.0, 1456.0, 1456.0, 1456.0, 1456.0, 1456.0, 1456.0, 1456.0, 1456.0, 1456.0, 1456.0, 1456.0, 1455.0, 1455.0, 1455.0, 1455.0, 1456.0, 1456.0, 1455.0, 1455.0, 1455.0, 1456.0, 1455.0, 1455.0, 1455.0, 1455.0, 1455.0, 1455.0, 1455.0, 1455.0, 1455.0, 1455.0, 1455.0, 1455.0, 1455.0, 1454.0, 1454.0, 1454.0, 1454.0, 1454.0, 1454.0, 1454.0, 1454.0, 1454.0, 1454.0, 1454.0, 1454.0, 1454.0, 1454.0, 1454.0, 1454.0, 1454.0, 1454.0, 1453.0, 1455.0, 1454.0, 1453.0, 1454.0, 1454.0, 1453.0, 1454.0, 1454.0, 1453.0, 1453.0, 1454.0, 1453.0, 1454.0, 1453.0, 1454.0, 1453.0, 1453.0, 1454.0, 1453.0, 1453.0, 1453.0, 1454.0, 1453.0, 1453.0, 1453.0, 1453.0, 1453.0, 1453.0, 1452.0, 1453.0, 1453.0, 1453.0, 1453.0, 1453.0, 1453.0, 1452.0, 1452.0, 1453.0, 1453.0, 1453.0, 1453.0, 1453.0, 1452.0, 1453.0, 1452.0, 1452.0, 1452.0, 1452.0, 1452.0, 1452.0, 1452.0, 1452.0, 1453.0, 1453.0, 1452.0],
      "WindowWidth": [3344.0, 3342.0, 3342.0, 3342.0, 3342.0, 3342.0, 3341.0, 3341.0, 3341.0, 3341.0, 3341.0, 3341.0, 3341.0, 3341.0, 3341.0, 3341.0, 3341.0, 3341.0, 3341.0, 3341.0, 3341.0, 3341.0, 3340.0, 3340.0, 3341.0, 3341.0, 3340.0, 3340.0, 3340.0, 3340.0, 3340.0, 3340.0, 3340.0, 3340.0, 3340.0, 3340.0, 3340.0, 3340.0, 3340.0, 3340.0, 3340.0, 3340.0, 3340.0, 3340.0, 3340.0, 3340.0, 3340.0, 3340.0, 3340.0, 3340.0, 3340.0, 3340.0, 3340.0, 3339.0, 3339.0, 3339.0, 3339.0, 3339.0, 3339.0, 3339.0, 3339.0, 3339.0, 3339.0, 3339.0, 3340.0, 3339.0, 3339.0, 3339.0, 3339.0, 3339.0, 3339.0, 3339.0, 3339.0, 3338.0, 3339.0, 3339.0, 3339.0, 3339.0, 3339.0, 3339.0, 3338.0, 3339.0, 3339.0, 3338.0, 3339.0, 3338.0, 3338.0, 3338.0, 3338.0, 3338.0, 3338.0, 3338.0, 3338.0, 3338.0, 3338.0, 3338.0, 3338.0, 3338.0, 3338.0, 3338.0, 3338.0, 3338.0, 3338.0, 3338.0, 3338.0, 3337.0, 3337.0, 3337.0, 3337.0, 3337.0, 3337.0, 3337.0, 3337.0, 3337.0, 3337.0, 3337.0, 3337.0, 3337.0, 3337.0, 3337.0, 3336.0, 3336.0, 3337.0, 3336.0, 3336.0, 3337.0, 3337.0, 3337.0, 3337.0, 3337.0, 3337.0, 3337.0, 3337.0, 3337.0, 3337.0, 3336.0, 3337.0, 3337.0, 3336.0, 3337.0, 3337.0, 3337.0, 3336.0, 3336.0, 3336.0, 3336.0, 3336.0, 3336.0, 3336.0, 3336.0, 3336.0, 3336.0, 3336.0, 3336.0, 3336.0, 3336.0, 3336.0, 3336.0, 3336.0, 3336.0, 3336.0, 3336.0, 3335.0, 3336.0, 3336.0, 3336.0, 3335.0, 3336.0, 3335.0, 3336.0, 3335.0, 3335.0, 3336.0, 3336.0, 3335.0, 3335.0, 3335.0, 3335.0, 3335.0, 3335.0, 3336.0, 3336.0, 3335.0, 3335.0, 3335.0, 3335.0, 3335.0, 3335.0, 3335.0, 3335.0, 3336.0, 3335.0, 3335.0, 3335.0, 3335.0, 3335.0, 3335.0, 3335.0, 3335.0, 3334.0]
    },
    "slices": {}
  }
}