{
  "AcquisitionMatrixPE": 80,
  "AcquisitionNumber": 1,
  "AcquisitionTime": "09:19:14.135000",
  "BandwidthPerPixelPhaseEncode": 44.643,
  "BaseResolution": 80,
  "BodyPartExamined": "BRAIN",
  "CoilCombinationMethod": "Sum of Squares",
  "ConsistencyInfo": "N4_VE11C_LATEST_20160120",
  "ConversionSoftware": "dcm2niix",
  "ConversionSoftwareVersion": "v1.0.20220720",
  "DerivedVendorReportedEchoSpacing": 0.000559998,
  "DeviceSerialNumber": "66112",
  "DwellTime": 2.7e-06,
  "EchoTime": 0.035,
  "EchoTrainLength": 39,
  "EffectiveEchoSpacing": 0.000279999,
  "FlipAngle": 90,
  "HeudiconvVersion": "0.13.1",
  "ImageOrientationPatientDICOM": [0.98658, 0.16291, 0.0109466, -0.158378, 0.938521, 0.306748],
  "ImageOrientationText": "Tra>Cor(17.7)>Sag(-2.3)",
  "ImageType": [
    "ORIGINAL",
    "PRIMARY",
    "M",
    "ND",
    "NORM",
    "MOSAIC"
],
  "ImagingFrequency": 123.252,
  "InPlanePhaseEncodingDirectionDICOM": "COL",
  "InstitutionAddress": "Maynard 3,Hanover,NH,US,03755",
  "InstitutionName": "Dartmouth College - PBS",
  "InstitutionalDepartmentName": "Department",
  "MRAcquisitionType": "2D",
  "MagneticFieldStrength": 3,
  "Manufacturer": "Siemens",
  "ManufacturersModelName": "Prisma",
  "Modality": "MR",
  "MultibandAccelerationFactor": 4,
  "NonlinearGradientCorrection": false,
  "ParallelReductionFactorInPlane": 2,
  "PartialFourier": 1,
  "PatientPosition": "HFS",
  "PercentPhaseFOV": 100,
  "PercentSampling": 100,
  "PhaseEncodingDirection": "j-",
  "PhaseEncodingSteps": 79,
  "PhaseResolution": 1,
  "PixelBandwidth": 2315,
  "ProcedureStepDescription": "dbic^QA",
  "ProtocolName": "func-bold_task-rest_acq-p2-s4-3.5mm",
  "PulseSequenceDetails": "%SiemensSeq%\\ep2d_bold",
  "ReceiveCoilActiveElements": "HEA;HEP",
  "ReceiveCoilName": "Head_32",
  "ReconMatrixPE": 80,
  "RefLinesPE": 24,
  "RepetitionTime": 2,
  "SAR": 0.0209043,
  "ScanOptions": "FS",
  "ScanningSequence": "EP",
  "SequenceName": "*epfid2d1_80",
  "SequenceVariant": "SK",
  "SeriesDescription": "func-bold_task-rest_acq-p2-s4-3.5mm",
  "SeriesNumber": 7,
  "ShimSetting": [4145, -7696, -7516, 293, -55, -169, -77, 62],
  "SliceThickness": 3.5,
  "SliceTiming": [1.485, 0, 0.99, 0.2475, 1.2375, 0.7425, 1.7325, 0.495, 1.485, 0, 0.99, 0.2475, 1.2375, 0.7425, 1.7325, 0.495, 1.485, 0, 0.99, 0.2475, 1.2375, 0.7425, 1.7325, 0.495, 1.485, 0, 0.99, 0.2475, 1.2375, 0.7425, 1.7325, 0.495],
  "SoftwareVersions": "syngo MR E11",
  "SpacingBetweenSlices": 3.99,
  "StationName": "AWP66112",
  "TaskName": "rest",
  "TotalReadoutTime": 0.0221199,
  "TxRefAmp": 230.168,
  "dcmmeta_affine": [
    [-2.95974063873291, -0.47513315081596375, -0.15839824080467224, 142.6808624267578],
    [-0.4887300133705139, 2.815563440322876, 1.2144185304641724, -104.39152526855469],
    [0.032839659601449966, -0.9202451109886169, 3.797393321990967, -23.969356536865234],
    [0.0, 0.0, 0.0, 1.0]
],
  "dcmmeta_reorient_transform": [
    [0.0, -1.0, 0.0, 79.0],
    [1.0, 0.0, 0.0, 0.0],
    [0.0, 0.0, 1.0, 0.0],
    [0.0, 0.0, 0.0, 1.0]
],
  "dcmmeta_shape": [80, 80, 32, 200],
  "dcmmeta_slice_dim": 2,
  "dcmmeta_version": 0.6,
  "global": {
    "const": {
      "AccessionNumber": "qa",
      "AcquisitionMatrix": [80, 0, 0, 80],
      "AngioFlag": "N",
      "BitsAllocated": 16,
      "BitsStored": 12,
      "BodyPartExamined": "BRAIN",
      "Columns": 480,
      "EchoNumbers": 1,
      "EchoTime": 35.0,
      "EchoTrainLength": 39,
      "FlipAngle": 90.0,
      "HighBit": 11,
      "ImageOrientationPatient": [0.98658020564826, 0.16291000824246, 0.01094655367999, -0.1583777210505, 0.93852114284164, 0.30674836904876],
      "ImagePositionPatient": [-602.0668262601, -778.8966788187, -287.28567441231],
      "ImageType": [
        "ORIGINAL",
        "PRIMARY",
        "M",
        "ND",
        "NORM",
        "MOSAIC"
],
      "ImagedNucleus": "1H",
      "ImagingFrequency": 123.252432,
      "InPlanePhaseEncodingDirection": "COL",
      "MRAcquisitionType": "2D",
      "MagneticFieldStrength": 3.0,
      "Manufacturer": "SIEMENS",
      "ManufacturerModelName": "Prisma",
      "Modality": "MR",
      "NumberOfAverages": 1.0,
      "NumberOfPhaseEncodingSteps": 79,
      "PercentPhaseFieldOfView": 100.0,
      "PercentSampling": 100.0,
      "PerformedProcedureStepStartTime": "091038.711000",
      "PhotometricInterpretation": "MONOCHROME2",
      "PixelBandwidth": 2315.0,
      "PixelRepresentation": 0,
      "PixelSpacing": [3.0, 3.0],
      "ProtocolName": "func-bold_task-rest_acq-p2-s4-3.5mm",
      "RepetitionTime": 2000.0,
      "Rows": 480,
      "SAR": 0.02090432056296,
      "SamplesPerPixel": 1,
      "ScanOptions": "FS",
      "ScanningSequence": "EP",
      "SequenceName": "*epfid2d1_80",
      "SequenceVariant": "SK",
      "SeriesDescription": "func-bold_task-rest_acq-p2-s4-3.5mm",
      "SeriesNumber": 7,
      "SeriesTime": "091957.233000",
      "SliceLocation": -60.249745214745,
      "SliceThickness": 3.5,
      "SmallestImagePixelValue": 0,
      "SoftwareVersions": "syngo MR E11",
      "SpacingBetweenSlices": 3.9899999160764,
      "SpecificCharacterSet": "ISO_IR 100",
      "StudyID": "78",
      "StudyTime": "091038.617000",
      "TransmitCoilName": "Body",
      "VariableFlipAngleFlag": "N",
      "WindowCenterWidthExplanation": "Algo1",
      "dBdt": 0.0},
    "slices": {}
  },
  "time": {
    "samples": {
      "AcquisitionNumber": [1, 2, 3, 4, 5, 6, 7, 8, 9, 10, 11, 12, 13, 14, 15, 16, 17, 18, 19, 20, 21, 22, 23, 24, 25, 26, 27, 28, 29, 30, 31, 32, 33, 34, 35, 36, 37, 38, 39, 40, 41, 42, 43, 44, 45, 46, 47, 48, 49, 50, 51, 52, 53, 54, 55, 56, 57, 58, 59, 60, 61, 62, 63, 64, 65, 66, 67, 68, 69, 70, 71, 72, 73, 74, 75, 76, 77, 78, 79, 80, 81, 82, 83, 84, 85, 86, 87, 88, 89, 90, 91, 92, 93, 94, 95, 96, 97, 98, 99, 100, 101, 102, 103, 104, 105, 106, 107, 108, 109, 110, 111, 112, 113, 114, 115, 116, 117, 118, 119, 120, 121, 122, 123, 124, 125, 126, 127, 128, 129, 130, 131, 132, 133, 134, 135, 136, 137, 138, 139, 140, 141, 142, 143, 144, 145, 146, 147, 148, 149, 150, 151, 152, 153, 154, 155, 156, 157, 158, 159, 160, 161, 162, 163, 164, 165, 166, 167, 168, 169, 170, 171, 172, 173, 174, 175, 176, 177, 178, 179, 180, 181, 182, 183, 184, 185, 186, 187, 188, 189, 190, 191, 192, 193, 194, 195, 196, 197, 198, 199, 200],
      "AcquisitionTime": ["091914.135000", "091916.135000", "091918.135000", "091920.135000", "091922.135000", "091924.135000", "091926.135000", "091928.135000", "091930.135000", "091932.135000", "091934.135000", "091936.135000", "091938.135000", "091940.135000", "091942.135000", "091944.135000", "091946.135000", "091948.135000", "091950.135000", "091952.135000", "091954.135000", "091956.135000", "091958.135000", "092000.135000", "092002.135000", "092004.135000", "092006.135000", "092008.135000", "092010.135000", "092012.135000", "092014.135000", "092016.135000", "092018.135000", "092020.135000", "092022.135000", "092024.135000", "092026.135000", "092028.135000", "092030.135000", "092032.135000", "092034.135000", "092036.135000", "092038.135000", "092040.135000", "092042.135000", "092044.135000", "092046.135000", "092048.135000", "092050.135000", "092052.135000", "092054.135000", "092056.135000", "092058.135000", "092100.135000", "092102.135000", "092104.135000", "092106.135000", "092108.135000", "092110.135000", "092112.135000", "092114.135000", "092116.135000", "092118.135000", "092120.135000", "092122.135000", "092124.135000", "092126.135000", "092128.135000", "092130.135000", "092132.135000", "092134.135000", "092136.135000", "092138.135000", "092140.135000", "092142.135000", "092144.135000", "092146.135000", "092148.135000", "092150.135000", "092152.135000", "092154.135000", "092156.135000", "092158.135000", "092200.135000", "092202.135000", "092204.135000", "092206.135000", "092208.135000", "092210.135000", "092212.135000", "092214.135000", "092216.135000", "092218.135000", "092220.135000", "092222.135000", "092224.135000", "092226.135000", "092228.135000", "092230.135000", "092232.135000", "092234.135000", "092236.135000", "092238.135000", "092240.135000", "092242.135000", "092244.135000", "092246.135000", "092248.135000", "092250.135000", "092252.135000", "092254.135000", "092256.135000", "092258.135000", "092300.135000", "092302.135000", "092304.135000", "092306.135000", "092308.135000", "092310.135000", "092312.135000", "092314.135000", "092316.135000", "092318.135000", "092320.135000", "092322.135000", "092324.135000", "092326.135000", "092328.135000", "092330.135000", "092332.135000", "092334.135000", "092336.135000", "092338.135000", "092340.135000", "092342.135000", "092344.135000", "092346.135000", "092348.135000", "092350.135000", "092352.135000", "092354.135000", "092356.135000", "092358.135000", "092400.135000", "092402.135000", "092404.135000", "092406.135000", "092408.135000", "092410.135000", "092412.135000", "092414.135000", "092416.135000", "092418.135000", "092420.135000", "092422.135000", "092424.135000", "092426.135000", "092428.135000", "092430.135000", "092432.135000", "092434.135000", "092436.135000", "092438.135000", "092440.135000", "092442.135000", "092444.135000", "092446.135000", "092448.135000", "092450.135000", "092452.135000", "092454.135000", "092456.135000", "092458.135000", "092500.135000", "092502.135000", "092504.135000", "092506.135000", "092508.135000", "092510.135000", "092512.135000", "092514.135000", "092516.135000", "092518.135000", "092520.135000", "092522.135000", "092524.135000", "092526.135000", "092528.135000", "092530.135000", "092532.135000", "092534.135000", "092536.135000", "092538.135000", "092540.135000", "092542.135000", "092544.135000", "092546.135000", "092548.135000", "092550.135000", "092552.135000"],
      "ContentTime": ["091957.236000", "091957.240000", "091957.242000", "091957.245000", "091957.248000", "091957.256000", "091957.259000", "091957.262000", "091957.264000", "091957.267000", "091957.269000", "091957.277000", "091957.287000", "091957.289000", "091957.293000", "091957.296000", "091957.298000", "091957.301000", "091957.303000", "091957.306000", "092037.231000", "092037.235000", "092037.237000", "092037.240000", "092037.242000", "092037.245000", "092037.247000", "092037.250000", "092037.252000", "092037.255000", "092037.257000", "092037.260000", "092037.263000", "092037.265000", "092037.268000", "092037.271000", "092037.273000", "092037.276000", "092037.278000", "092037.281000", "092117.231000", "092117.234000", "092117.237000", "092117.239000", "092117.242000", "092117.245000", "092117.247000", "092117.257000", "092117.260000", "092117.262000", "092117.265000", "092117.267000", "092117.270000", "092117.272000", "092117.275000", "092117.277000", "092117.280000", "092117.282000", "092117.285000", "092117.287000", "092157.232000", "092157.235000", "092157.237000", "092157.240000", "092157.243000", "092157.245000", "092157.248000", "092157.251000", "092157.253000", "092157.256000", "092157.258000", "092157.261000", "092157.263000", "092157.266000", "092157.274000", "092157.277000", "092157.280000", "092157.282000", "092157.285000", "092157.287000", "092237.231000", "092237.234000", "092237.237000", "092237.239000", "092237.245000", "092237.247000", "092237.250000", "092237.252000", "092237.255000", "092237.258000", "092237.260000", "092237.263000", "092237.265000", "092237.268000", "092237.270000", "092237.273000", "092237.276000", "092237.278000", "092237.281000", "092237.283000", "092317.231000", "092317.234000", "092317.237000", "092317.239000", "092317.242000", "092317.245000", "092317.247000", "092317.250000", "092317.253000", "092317.255000", "092317.258000", "092317.260000", "092317.263000", "092317.265000", "092317.268000", "092317.271000", "092317.273000", "092317.276000", "092317.278000", "092317.281000", "092357.231000", "092357.234000", "092357.237000", "092357.239000", "092357.242000", "092357.244000", "092357.247000", "092357.250000", "092357.252000", "092357.255000", "092357.257000", "092357.260000", "092357.262000", "092357.265000", "092357.267000", "092357.270000", "092357.272000", "092357.275000", "092357.277000", "092357.280000", "092437.231000", "092437.234000", "092437.237000", "092437.239000", "092437.242000", "092437.244000", "092437.247000", "092437.249000", "092437.252000", "092437.255000", "092437.257000", "092437.260000", "092437.262000", "092437.265000", "092437.267000", "092437.270000", "092437.272000", "092437.275000", "092437.286000", "092437.288000", "092517.232000", "092517.234000", "092517.237000", "092517.240000", "092517.242000", "092517.252000", "092517.254000", "092517.257000", "092517.260000", "092517.262000", "092517.265000", "092517.267000", "092517.270000", "092517.272000", "092517.275000", "092517.278000", "092517.280000", "092517.283000", "092517.285000", "092517.287000", "092555.668000", "092555.671000", "092555.674000", "092555.676000", "092555.679000", "092555.682000", "092555.684000", "092555.687000", "092555.689000", "092555.692000", "092555.694000", "092555.699000", "092555.708000", "092555.711000", "092555.714000", "092555.722000", "092555.726000", "092555.728000", "092555.731000", "092555.734000"],
      "InstanceCreationTime": ["091957.236000", "091957.240000", "091957.242000", "091957.245000", "091957.248000", "091957.256000", "091957.259000", "091957.262000", "091957.264000", "091957.267000", "091957.269000", "091957.277000", "091957.287000", "091957.289000", "091957.293000", "091957.296000", "091957.298000", "091957.301000", "091957.303000", "091957.306000", "092037.231000", "092037.235000", "092037.237000", "092037.240000", "092037.242000", "092037.245000", "092037.247000", "092037.250000", "092037.252000", "092037.255000", "092037.257000", "092037.260000", "092037.263000", "092037.265000", "092037.268000", "092037.271000", "092037.273000", "092037.276000", "092037.278000", "092037.281000", "092117.231000", "092117.234000", "092117.237000", "092117.239000", "092117.242000", "092117.245000", "092117.247000", "092117.257000", "092117.260000", "092117.262000", "092117.265000", "092117.267000", "092117.270000", "092117.272000", "092117.275000", "092117.277000", "092117.280000", "092117.282000", "092117.285000", "092117.287000", "092157.232000", "092157.235000", "092157.237000", "092157.240000", "092157.243000", "092157.245000", "092157.248000", "092157.251000", "092157.253000", "092157.256000", "092157.258000", "092157.261000", "092157.263000", "092157.266000", "092157.274000", "092157.277000", "092157.280000", "092157.282000", "092157.285000", "092157.287000", "092237.231000", "092237.234000", "092237.237000", "092237.239000", "092237.245000", "092237.247000", "092237.250000", "092237.252000", "092237.255000", "092237.258000", "092237.260000", "092237.263000", "092237.265000", "092237.268000", "092237.270000", "092237.273000", "092237.276000", "092237.278000", "092237.281000", "092237.283000", "092317.231000", "092317.234000", "092317.237000", "092317.239000", "092317.242000", "092317.245000", "092317.247000", "092317.250000", "092317.253000", "092317.255000", "092317.258000", "092317.260000", "092317.263000", "092317.265000", "092317.268000", "092317.271000", "092317.273000", "092317.276000", "092317.278000", "092317.281000", "092357.231000", "092357.234000", "092357.237000", "092357.239000", "092357.242000", "092357.244000", "092357.247000", "092357.250000", "092357.252000", "092357.255000", "092357.257000", "092357.260000", "092357.262000", "092357.265000", "092357.267000", "092357.270000", "092357.272000", "092357.275000", "092357.277000", "092357.280000", "092437.231000", "092437.234000", "092437.237000", "092437.239000", "092437.242000", "092437.244000", "092437.247000", "092437.249000", "092437.252000", "092437.255000", "092437.257000", "092437.260000", "092437.262000", "092437.265000", "092437.267000", "092437.270000", "092437.272000", "092437.275000", "092437.286000", "092437.288000", "092517.232000", "092517.234000", "092517.237000", "092517.240000", "092517.242000", "092517.252000", "092517.254000", "092517.257000", "092517.260000", "092517.262000", "092517.265000", "092517.267000", "092517.270000", "092517.272000", "092517.275000", "092517.278000", "092517.280000", "092517.283000", "092517.285000", "092517.287000", "092555.668000", "092555.671000", "092555.674000", "092555.676000", "092555.679000", "092555.682000", "092555.684000", "092555.687000", "092555.689000", "092555.692000", "092555.694000", "092555.699000", "092555.708000", "092555.711000", "092555.714000", "092555.722000", "092555.726000", "092555.728000", "092555.731000", "092555.734000"],
      "InstanceNumber": [1, 2, 3, 4, 5, 6, 7, 8, 9, 10, 11, 12, 13, 14, 15, 16, 17, 18, 19, 20, 21, 22, 23, 24, 25, 26, 27, 28, 29, 30, 31, 32, 33, 34, 35, 36, 37, 38, 39, 40, 41, 42, 43, 44, 45, 46, 47, 48, 49, 50, 51, 52, 53, 54, 55, 56, 57, 58, 59, 60, 61, 62, 63, 64, 65, 66, 67, 68, 69, 70, 71, 72, 73, 74, 75, 76, 77, 78, 79, 80, 81, 82, 83, 84, 85, 86, 87, 88, 89, 90, 91, 92, 93, 94, 95, 96, 97, 98, 99, 100, 101, 102, 103, 104, 105, 106, 107, 108, 109, 110, 111, 112, 113, 114, 115, 116, 117, 118, 119, 120, 121, 122, 123, 124, 125, 126, 127, 128, 129, 130, 131, 132, 133, 134, 135, 136, 137, 138, 139, 140, 141, 142, 143, 144, 145, 146, 147, 148, 149, 150, 151, 152, 153, 154, 155, 156, 157, 158, 159, 160, 161, 162, 163, 164, 165, 166, 167, 168, 169, 170, 171, 172, 173, 174, 175, 176, 177, 178, 179, 180, 181, 182, 183, 184, 185, 186, 187, 188, 189, 190, 191, 192, 193, 194, 195, 196, 197, 198, 199, 200],
      "LargestImagePixelValue": [1999, 2000, 2008, 1999, 2000, 2001, 2000, 2005, 2006, 1998, 2001, 1997, 2002, 2001, 2003, 2000, 1998, 2000, 2001, 2003, 2004, 1999, 2000, 2001, 2005, 2002, 2003, 2000, 1996, 2000, 2004, 2003, 2000, 2004, 1996, 2003, 2004, 1999, 2004, 2001, 2000, 2002, 2003, 2001, 2002, 2002, 1998, 2001, 2002, 2003, 2000, 1998, 2002, 1998, 2004, 1999, 2001, 2002, 2000, 1997, 2004, 2001, 2002, 2000, 2001, 2003, 2003, 2002, 2001, 2001, 2006, 2003, 1999, 2001, 2002, 2000, 1996, 2004, 2002, 2001, 2000, 1999, 1999, 2000, 1998, 2000, 2000, 2001, 2002, 1998, 1999, 2003, 2005, 1998, 2004, 2002, 1998, 2000, 2006, 2000, 2003, 2002, 2006, 1998, 2001, 2003, 2003, 2002, 2002, 2001, 1999, 2001, 2001, 2000, 2001, 2005, 1996, 2003, 2007, 2001, 1999, 2002, 2006, 2001, 2003, 2005, 1999, 2003, 2002, 2000, 2004, 2003, 2003, 2000, 2002, 2002, 1999, 1996, 2000, 2004, 1998, 1999, 2000, 2000, 2003, 1999, 1998, 2004, 2003, 2001, 1999, 2004, 2003, 2004, 2005, 2006, 2001, 2003, 2004, 2006, 2002, 1999, 2000, 2005, 2001, 2004, 2002, 1999, 2000, 2003, 2001, 2000, 1998, 2004, 2004, 2002, 1999, 1997, 1999, 2001, 1999, 2003, 2001, 1998, 1998, 1997, 1998, 2000, 1999, 1998, 1998, 1998, 2003, 2005, 2003, 2004, 2002, 2001, 2008, 1998],
      "WindowCenter": [912.0, 912.0, 912.0, 912.0, 912.0, 912.0, 912.0, 912.0, 912.0, 912.0, 912.0, 912.0, 912.0, 912.0, 912.0, 912.0, 912.0, 912.0, 912.0, 912.0, 912.0, 912.0, 912.0, 911.0, 912.0, 911.0, 911.0, 911.0, 911.0, 911.0, 912.0, 911.0, 911.0, 912.0, 911.0, 911.0, 911.0, 912.0, 911.0, 911.0, 911.0, 911.0, 912.0, 911.0, 911.0, 911.0, 912.0, 911.0, 912.0, 912.0, 912.0, 912.0, 911.0, 912.0, 912.0, 912.0, 912.0, 912.0, 912.0, 912.0, 911.0, 912.0, 912.0, 912.0, 912.0, 911.0, 912.0, 912.0, 912.0, 912.0, 912.0, 912.0, 912.0, 912.0, 912.0, 912.0, 912.0, 912.0, 912.0, 912.0, 912.0, 912.0, 911.0, 912.0, 912.0, 912.0, 912.0, 912.0, 912.0, 912.0, 912.0, 912.0, 912.0, 912.0, 912.0, 912.0, 912.0, 912.0, 912.0, 912.0, 912.0, 912.0, 912.0, 912.0, 912.0, 912.0, 912.0, 912.0, 912.0, 912.0, 912.0, 912.0, 912.0, 912.0, 912.0, 912.0, 912.0, 912.0, 912.0, 912.0, 912.0, 912.0, 912.0, 912.0, 911.0, 912.0, 912.0, 912.0, 912.0, 912.0, 912.0, 912.0, 912.0, 912.0, 912.0, 912.0, 912.0, 912.0, 912.0, 912.0, 912.0, 912.0, 912.0, 912.0, 912.0, 912.0, 912.0, 912.0, 912.0, 912.0, 912.0, 912.0, 912.0, 912.0, 912.0, 912.0, 912.0, 912.0, 912.0, 912.0, 912.0, 911.0, 912.0, 912.0, 912.0, 912.0, 911.0, 911.0, 912.0, 912.0, 912.0, 912.0, 912.0, 912.0, 912.0, 912.0, 911.0, 912.0, 912.0, 912.0, 912.0, 912.0, 912.0, 912.0, 912.0, 912.0, 912.0, 912.0, 912.0, 912.0, 912.0, 912.0, 912.0, 912.0, 912.0, 912.0, 912.0, 912.0, 912.0, 912.0],
      "WindowWidth": [2068.0, 2067.0, 2067.0, 2067.0, 2067.0, 2067.0, 2067.0, 2067.0, 2067.0, 2067.0, 2068.0, 2068.0, 2068.0, 2068.0, 2068.0, 2068.0, 2068.0, 2068.0, 2068.0, 2068.0, 2068.0, 2068.0, 2068.0, 2067.0, 2067.0, 2067.0, 2067.0, 2067.0, 2067.0, 2067.0, 2067.0, 2067.0, 2067.0, 2067.0, 2067.0, 2067.0, 2067.0, 2067.0, 2067.0, 2067.0, 2067.0, 2067.0, 2067.0, 2067.0, 2067.0, 2067.0, 2067.0, 2067.0, 2067.0, 2067.0, 2067.0, 2067.0, 2067.0, 2067.0, 2067.0, 2067.0, 2067.0, 2067.0, 2067.0, 2067.0, 2067.0, 2067.0, 2067.0, 2067.0, 2067.0, 2067.0, 2067.0, 2067.0, 2067.0, 2067.0, 2067.0, 2067.0, 2067.0, 2067.0, 2067.0, 2067.0, 2067.0, 2067.0, 2067.0, 2067.0, 2067.0, 2067.0, 2067.0, 2067.0, 2067.0, 2067.0, 2068.0, 2068.0, 2067.0, 2067.0, 2067.0, 2067.0, 2067.0, 2067.0, 2067.0, 2067.0, 2068.0, 2067.0, 2067.0, 2067.0, 2067.0, 2068.0, 2067.0, 2067.0, 2067.0, 2067.0, 2067.0, 2067.0, 2067.0, 2067.0, 2067.0, 2067.0, 2067.0, 2067.0, 2067.0, 2067.0, 2067.0, 2067.0, 2067.0, 2067.0, 2067.0, 2067.0, 2067.0, 2067.0, 2067.0, 2067.0, 2067.0, 2067.0, 2067.0, 2067.0, 2067.0, 2067.0, 2067.0, 2067.0, 2067.0, 2067.0, 2067.0, 2067.0, 2067.0, 2067.0, 2067.0, 2067.0, 2067.0, 2067.0, 2067.0, 2067.0, 2067.0, 2067.0, 2067.0, 2067.0, 2067.0, 2067.0, 2067.0, 2067.0, 2067.0, 2067.0, 2067.0, 2067.0, 2067.0, 2067.0, 2067.0, 2067.0, 2067.0, 2067.0, 2067.0, 2067.0, 2067.0, 2067.0, 2067.0, 2067.0, 2067.0, 2067.0, 2067.0, 2067.0, 2067.0, 2067.0, 2067.0, 2067.0, 2067.0, 2067.0, 2067.0, 2067.0, 2067.0, 2067.0, 2067.0, 2067.0, 2067.0, 2067.0, 2067.0, 2067.0, 2067.0, 2067.0, 2067.0, 2067.0, 2067.0, 2067.0, 2067.0, 2067.0, 2067.0, 2067.0]
    },
    "slices": {}
  }
}