{
  "AcquisitionMatrixPE": 80,
  "AcquisitionNumber": 1,
  "AcquisitionTime": "09:43:14.385000",
  "BandwidthPerPixelPhaseEncode": 25,
  "BaseResolution": 80,
  "BodyPartExamined": "BRAIN",
  "CoilCombinationMethod": "Sum of Squares",
  "ConsistencyInfo": "N4_VE11E_LATEST_20181129",
  "ConversionSoftware": "dcm2niix",
  "ConversionSoftwareVersion": "v1.0.20220720",
  "DerivedVendorReportedEchoSpacing": 0.0005,
  "DeviceSerialNumber": "66112",
  "DwellTime": 2.7e-06,
  "EchoTime": 0.03,
  "EchoTrainLength": 80,
  "EffectiveEchoSpacing": 0.0005,
  "FlipAngle": 77,
  "HeudiconvVersion": "0.13.1",
  "ImageOrientationPatientDICOM": [0.987997, 0.154054, 0.0114128, -0.150126, 0.940143, 0.305929],
  "ImageOrientationText": "Tra>Cor(17.7)>Sag(-2.1)",
  "ImageType": [
    "ORIGINAL",
    "PRIMARY",
    "M",
    "ND",
    "NORM",
    "MOSAIC"
],
  "ImagingFrequency": 123.259,
  "InPlanePhaseEncodingDirectionDICOM": "COL",
  "InstitutionAddress": "Maynard 3,Hanover,NH,US,03755",
  "InstitutionName": "Dartmouth College - PBS",
  "InstitutionalDepartmentName": "Department",
  "MRAcquisitionType": "2D",
  "MagneticFieldStrength": 3,
  "Manufacturer": "Siemens",
  "ManufacturersModelName": "Prisma",
  "MatrixCoilMode": "SENSE",
  "Modality": "MR",
  "NonlinearGradientCorrection": false,
  "PartialFourier": 1,
  "PatientPosition": "HFS",
  "PercentPhaseFOV": 100,
  "PercentSampling": 100,
  "PhaseEncodingDirection": "j-",
  "PhaseEncodingSteps": 80,
  "PhaseResolution": 1,
  "PixelBandwidth": 2315,
  "ProcedureStepDescription": "dbic^QA",
  "ProtocolName": "func-bold_fa-77",
  "PulseSequenceDetails": "%SiemensSeq%\\ep2d_bold",
  "ReceiveCoilActiveElements": "HEA;HEP",
  "ReceiveCoilName": "Head_32",
  "ReconMatrixPE": 80,
  "RepetitionTime": 2,
  "SAR": 0.0370198,
  "ScanOptions": "FS",
  "ScanningSequence": "EP",
  "SequenceName": "*epfid2d1_80",
  "SequenceVariant": "SK",
  "SeriesDescription": "func-bold_fa-77",
  "SeriesNumber": 8,
  "ShimSetting": [4221, -7736, -7490, -11, -137, -77, -12, 80],
  "SliceThickness": 3.5,
  "SliceTiming": [0.99, 0, 1.0575, 0.0675, 1.1225, 0.1325, 1.1875, 0.1975, 1.255, 0.265, 1.32, 0.33, 1.3875, 0.3975, 1.4525, 0.4625, 1.5175, 0.5275, 1.585, 0.595, 1.65, 0.66, 1.7175, 0.7275, 1.7825, 0.7925, 1.8475, 0.8575, 1.915, 0.925],
  "SoftwareVersions": "syngo MR E11",
  "SpacingBetweenSlices": 3.99,
  "StationName": "AWP66112",
  "TotalReadoutTime": 0.0395,
  "TxRefAmp": 227.61,
  "dcmmeta_affine": [
    [-2.963989734649658, -0.4503781497478485, -0.1452351212501526, 140.49497985839844],
    [-0.4621609151363373, 2.8204305171966553, 1.2128398418426514, -107.24681854248047],
    [0.03423834592103958, -0.917786180973053, 3.798424243927002, -28.617551803588867],
    [0.0, 0.0, 0.0, 1.0]
],
  "dcmmeta_reorient_transform": [
    [0.0, -1.0, 0.0, 79.0],
    [1.0, 0.0, 0.0, 0.0],
    [0.0, 0.0, 1.0, 0.0],
    [0.0, 0.0, 0.0, 1.0]
],
  "dcmmeta_shape": [80, 80, 30, 200],
  "dcmmeta_slice_dim": 2,
  "dcmmeta_version": 0.6,
  "global": {
    "const": {
      "AccessionNumber": "qa",
      "AcquisitionMatrix": [80, 0, 0, 80],
      "AngioFlag": "N",
      "BitsAllocated": 16,
      "BitsStored": 12,
      "BodyPartExamined": "BRAIN",
      "Columns": 480,
      "EchoNumbers": 1,
      "EchoTime": 30.0,
      "EchoTrainLength": 80,
      "FlipAngle": 77.0,
      "HighBit": 11,
      "ImageOrientationPatient": [0.98799657166083, 0.15405363614006, 0.01141278136457, -0.1501260481501, 0.94014349043775, 0.30592872871691],
      "ImagePositionPatient": [-607.63742435812, -772.08546758927, -291.52756664099],
      "ImageType": [
        "ORIGINAL",
        "PRIMARY",
        "M",
        "ND",
        "NORM",
        "MOSAIC"
],
      "ImagedNucleus": "1H",
      "ImagingFrequency": 123.259253,
      "InPlanePhaseEncodingDirection": "COL",
      "MRAcquisitionType": "2D",
      "MagneticFieldStrength": 3.0,
      "Manufacturer": "SIEMENS",
      "ManufacturerModelName": "Prisma",
      "Modality": "MR",
      "NumberOfAverages": 1.0,
      "NumberOfPhaseEncodingSteps": 80,
      "PercentPhaseFieldOfView": 100.0,
      "PercentSampling": 100.0,
      "PerformedProcedureStepStartTime": "092755.226000",
      "PhotometricInterpretation": "MONOCHROME2",
      "PixelBandwidth": 2315.0,
      "PixelRepresentation": 0,
      "PixelSpacing": [3.0, 3.0],
      "ProtocolName": "func-bold_fa-77",
      "RepetitionTime": 2000.0,
      "Rows": 480,
      "SAR": 0.03701982544792,
      "SamplesPerPixel": 1,
      "ScanOptions": "FS",
      "ScanningSequence": "EP",
      "SequenceName": "*epfid2d1_80",
      "SequenceVariant": "SK",
      "SeriesDescription": "func-bold_fa-77",
      "SeriesNumber": 8,
      "SeriesTime": "094408.732000",
      "SliceLocation": -64.957298473699,
      "SliceThickness": 3.5,
      "SmallestImagePixelValue": 0,
      "SoftwareVersions": "syngo MR E11",
      "SpacingBetweenSlices": 3.9899999803067,
      "SpecificCharacterSet": "ISO_IR 100",
      "StudyID": "7",
      "StudyTime": "092755.189000",
      "TransmitCoilName": "Body",
      "VariableFlipAngleFlag": "N",
      "WindowCenterWidthExplanation": "Algo1"
    },
    "slices": {}
  },
  "time": {
    "samples": {
      "AcquisitionNumber": [1, 2, 3, 4, 5, 6, 7, 8, 9, 10, 11, 12, 13, 14, 15, 16, 17, 18, 19, 20, 21, 22, 23, 24, 25, 26, 27, 28, 29, 30, 31, 32, 33, 34, 35, 36, 37, 38, 39, 40, 41, 42, 43, 44, 45, 46, 47, 48, 49, 50, 51, 52, 53, 54, 55, 56, 57, 58, 59, 60, 61, 62, 63, 64, 65, 66, 67, 68, 69, 70, 71, 72, 73, 74, 75, 76, 77, 78, 79, 80, 81, 82, 83, 84, 85, 86, 87, 88, 89, 90, 91, 92, 93, 94, 95, 96, 97, 98, 99, 100, 101, 102, 103, 104, 105, 106, 107, 108, 109, 110, 111, 112, 113, 114, 115, 116, 117, 118, 119, 120, 121, 122, 123, 124, 125, 126, 127, 128, 129, 130, 131, 132, 133, 134, 135, 136, 137, 138, 139, 140, 141, 142, 143, 144, 145, 146, 147, 148, 149, 150, 151, 152, 153, 154, 155, 156, 157, 158, 159, 160, 161, 162, 163, 164, 165, 166, 167, 168, 169, 170, 171, 172, 173, 174, 175, 176, 177, 178, 179, 180, 181, 182, 183, 184, 185, 186, 187, 188, 189, 190, 191, 192, 193, 194, 195, 196, 197, 198, 199, 200],
      "AcquisitionTime": ["094314.385000", "094316.385000", "094318.385000", "094320.385000", "094322.385000", "094324.385000", "094326.385000", "094328.385000", "094330.385000", "094332.385000", "094334.385000", "094336.385000", "094338.385000", "094340.385000", "094342.385000", "094344.385000", "094346.385000", "094348.385000", "094350.385000", "094352.385000", "094354.385000", "094356.385000", "094358.385000", "094400.385000", "094402.385000", "094404.385000", "094406.385000", "094408.385000", "094410.385000", "094412.385000", "094414.385000", "094416.385000", "094418.385000", "094420.385000", "094422.385000", "094424.385000", "094426.385000", "094428.385000", "094430.385000", "094432.385000", "094434.385000", "094436.385000", "094438.385000", "094440.385000", "094442.385000", "094444.385000", "094446.385000", "094448.385000", "094450.385000", "094452.385000", "094454.385000", "094456.385000", "094458.385000", "094500.385000", "094502.385000", "094504.385000", "094506.385000", "094508.385000", "094510.385000", "094512.385000", "094514.385000", "094516.385000", "094518.385000", "094520.385000", "094522.385000", "094524.385000", "094526.385000", "094528.385000", "094530.385000", "094532.385000", "094534.385000", "094536.385000", "094538.385000", "094540.385000", "094542.385000", "094544.385000", "094546.385000", "094548.385000", "094550.385000", "094552.385000", "094554.385000", "094556.385000", "094558.385000", "094600.385000", "094602.385000", "094604.385000", "094606.385000", "094608.385000", "094610.385000", "094612.385000", "094614.385000", "094616.385000", "094618.385000", "094620.385000", "094622.385000", "094624.385000", "094626.385000", "094628.385000", "094630.385000", "094632.385000", "094634.385000", "094636.385000", "094638.385000", "094640.385000", "094642.385000", "094644.385000", "094646.385000", "094648.385000", "094650.385000", "094652.385000", "094654.385000", "094656.385000", "094658.385000", "094700.385000", "094702.385000", "094704.385000", "094706.385000", "094708.385000", "094710.385000", "094712.385000", "094714.385000", "094716.385000", "094718.385000", "094720.385000", "094722.385000", "094724.385000", "094726.385000", "094728.385000", "094730.385000", "094732.385000", "094734.385000", "094736.385000", "094738.385000", "094740.385000", "094742.385000", "094744.385000", "094746.385000", "094748.385000", "094750.385000", "094752.385000", "094754.385000", "094756.385000", "094758.385000", "094800.385000", "094802.385000", "094804.385000", "094806.385000", "094808.385000", "094810.385000", "094812.385000", "094814.385000", "094816.385000", "094818.385000", "094820.385000", "094822.385000", "094824.385000", "094826.385000", "094828.385000", "094830.385000", "094832.385000", "094834.385000", "094836.385000", "094838.385000", "094840.385000", "094842.385000", "094844.385000", "094846.385000", "094848.385000", "094850.385000", "094852.385000", "094854.385000", "094856.385000", "094858.385000", "094900.385000", "094902.385000", "094904.385000", "094906.385000", "094908.385000", "094910.385000", "094912.385000", "094914.385000", "094916.385000", "094918.385000", "094920.385000", "094922.385000", "094924.385000", "094926.385000", "094928.385000", "094930.385000", "094932.385000", "094934.385000", "094936.385000", "094938.385000", "094940.385000", "094942.385000", "094944.385000", "094946.385000", "094948.385000", "094950.385000", "094952.385000"],
      "ContentTime": ["094408.735000", "094408.739000", "094408.741000", "094408.743000", "094408.746000", "094408.748000", "094408.751000", "094408.753000", "094408.755000", "094408.757000", "094408.760000", "094408.762000", "094408.764000", "094408.767000", "094408.769000", "094408.771000", "094408.774000", "094408.783000", "094408.785000", "094408.788000", "094408.790000", "094408.792000", "094408.795000", "094408.797000", "094408.799000", "094408.802000", "094408.804000", "094448.729000", "094448.732000", "094448.734000", "094448.737000", "094448.739000", "094448.741000", "094448.744000", "094448.746000", "094448.748000", "094448.751000", "094448.753000", "094448.755000", "094448.758000", "094448.760000", "094448.767000", "094448.769000", "094448.772000", "094448.774000", "094448.777000", "094448.779000", "094528.729000", "094528.732000", "094528.734000", "094528.737000", "094528.739000", "094528.741000", "094528.744000", "094528.746000", "094528.748000", "094528.751000", "094528.753000", "094528.755000", "094528.758000", "094528.760000", "094528.762000", "094528.765000", "094528.767000", "094528.769000", "094528.772000", "094528.774000", "094608.730000", "094608.733000", "094608.735000", "094608.737000", "094608.740000", "094608.742000", "094608.744000", "094608.747000", "094608.749000", "094608.751000", "094608.754000", "094608.756000", "094608.758000", "094608.760000", "094608.763000", "094608.765000", "094608.768000", "094608.770000", "094608.772000", "094608.775000", "094648.730000", "094648.732000", "094648.734000", "094648.737000", "094648.739000", "094648.741000", "094648.744000", "094648.746000", "094648.748000", "094648.751000", "094648.753000", "094648.755000", "094648.758000", "094648.760000", "094648.762000", "094648.765000", "094648.767000", "094648.769000", "094648.772000", "094648.774000", "094728.729000", "094728.732000", "094728.734000", "094728.736000", "094728.739000", "094728.741000", "094728.743000", "094728.746000", "094728.748000", "094728.751000", "094728.753000", "094728.755000", "094728.758000", "094728.760000", "094728.762000", "094728.765000", "094728.767000", "094728.770000", "094728.772000", "094728.774000", "094808.729000", "094808.732000", "094808.734000", "094808.736000", "094808.739000", "094808.741000", "094808.743000", "094808.746000", "094808.748000", "094808.750000", "094808.753000", "094808.755000", "094808.757000", "094808.760000", "094808.762000", "094808.764000", "094808.767000", "094808.769000", "094808.772000", "094808.774000", "094848.730000", "094848.733000", "094848.735000", "094848.737000", "094848.740000", "094848.742000", "094848.744000", "094848.747000", "094848.749000", "094848.751000", "094848.754000", "094848.756000", "094848.758000", "094848.761000", "094848.763000", "094848.765000", "094848.768000", "094848.770000", "094848.772000", "094848.775000", "094928.729000", "094928.732000", "094928.734000", "094928.736000", "094928.739000", "094928.741000", "094928.743000", "094928.746000", "094928.748000", "094928.750000", "094928.753000", "094928.755000", "094928.757000", "094928.760000", "094928.762000", "094928.764000", "094928.767000", "094928.769000", "094928.771000", "094928.774000", "094953.868000", "094953.871000", "094953.873000", "094953.875000", "094953.878000", "094953.880000", "094953.883000", "094953.885000", "094953.887000", "094953.890000", "094953.892000", "094953.895000", "094953.897000"],
      "InstanceCreationTime": ["094408.735000", "094408.739000", "094408.741000", "094408.743000", "094408.746000", "094408.748000", "094408.751000", "094408.753000", "094408.755000", "094408.757000", "094408.760000", "094408.762000", "094408.764000", "094408.767000", "094408.769000", "094408.771000", "094408.774000", "094408.783000", "094408.785000", "094408.788000", "094408.790000", "094408.792000", "094408.795000", "094408.797000", "094408.799000", "094408.802000", "094408.804000", "094448.729000", "094448.732000", "094448.734000", "094448.737000", "094448.739000", "094448.741000", "094448.744000", "094448.746000", "094448.748000", "094448.751000", "094448.753000", "094448.755000", "094448.758000", "094448.760000", "094448.767000", "094448.769000", "094448.772000", "094448.774000", "094448.777000", "094448.779000", "094528.729000", "094528.732000", "094528.734000", "094528.737000", "094528.739000", "094528.741000", "094528.744000", "094528.746000", "094528.748000", "094528.751000", "094528.753000", "094528.755000", "094528.758000", "094528.760000", "094528.762000", "094528.765000", "094528.767000", "094528.769000", "094528.772000", "094528.774000", "094608.730000", "094608.733000", "094608.735000", "094608.737000", "094608.740000", "094608.742000", "094608.744000", "094608.747000", "094608.749000", "094608.751000", "094608.754000", "094608.756000", "094608.758000", "094608.760000", "094608.763000", "094608.765000", "094608.768000", "094608.770000", "094608.772000", "094608.775000", "094648.730000", "094648.732000", "094648.734000", "094648.737000", "094648.739000", "094648.741000", "094648.744000", "094648.746000", "094648.748000", "094648.751000", "094648.753000", "094648.755000", "094648.758000", "094648.760000", "094648.762000", "094648.765000", "094648.767000", "094648.769000", "094648.772000", "094648.774000", "094728.729000", "094728.732000", "094728.734000", "094728.736000", "094728.739000", "094728.741000", "094728.743000", "094728.746000", "094728.748000", "094728.751000", "094728.753000", "094728.755000", "094728.758000", "094728.760000", "094728.762000", "094728.765000", "094728.767000", "094728.770000", "094728.772000", "094728.774000", "094808.729000", "094808.732000", "094808.734000", "094808.736000", "094808.739000", "094808.741000", "094808.743000", "094808.746000", "094808.748000", "094808.750000", "094808.753000", "094808.755000", "094808.757000", "094808.760000", "094808.762000", "094808.764000", "094808.767000", "094808.769000", "094808.772000", "094808.774000", "094848.730000", "094848.733000", "094848.735000", "094848.737000", "094848.740000", "094848.742000", "094848.744000", "094848.747000", "094848.749000", "094848.751000", "094848.754000", "094848.756000", "094848.758000", "094848.761000", "094848.763000", "094848.765000", "094848.768000", "094848.770000", "094848.772000", "094848.775000", "094928.729000", "094928.732000", "094928.734000", "094928.736000", "094928.739000", "094928.741000", "094928.743000", "094928.746000", "094928.748000", "094928.750000", "094928.753000", "094928.755000", "094928.757000", "094928.760000", "094928.762000", "094928.764000", "094928.767000", "094928.769000", "094928.771000", "094928.774000", "094953.868000", "094953.871000", "094953.873000", "094953.875000", "094953.878000", "094953.880000", "094953.883000", "094953.885000", "094953.887000", "094953.890000", "094953.892000", "094953.895000", "094953.897000"],
      "InstanceNumber": [1, 2, 3, 4, 5, 6, 7, 8, 9, 10, 11, 12, 13, 14, 15, 16, 17, 18, 19, 20, 21, 22, 23, 24, 25, 26, 27, 28, 29, 30, 31, 32, 33, 34, 35, 36, 37, 38, 39, 40, 41, 42, 43, 44, 45, 46, 47, 48, 49, 50, 51, 52, 53, 54, 55, 56, 57, 58, 59, 60, 61, 62, 63, 64, 65, 66, 67, 68, 69, 70, 71, 72, 73, 74, 75, 76, 77, 78, 79, 80, 81, 82, 83, 84, 85, 86, 87, 88, 89, 90, 91, 92, 93, 94, 95, 96, 97, 98, 99, 100, 101, 102, 103, 104, 105, 106, 107, 108, 109, 110, 111, 112, 113, 114, 115, 116, 117, 118, 119, 120, 121, 122, 123, 124, 125, 126, 127, 128, 129, 130, 131, 132, 133, 134, 135, 136, 137, 138, 139, 140, 141, 142, 143, 144, 145, 146, 147, 148, 149, 150, 151, 152, 153, 154, 155, 156, 157, 158, 159, 160, 161, 162, 163, 164, 165, 166, 167, 168, 169, 170, 171, 172, 173, 174, 175, 176, 177, 178, 179, 180, 181, 182, 183, 184, 185, 186, 187, 188, 189, 190, 191, 192, 193, 194, 195, 196, 197, 198, 199, 200],
      "LargestImagePixelValue": [2127, 2129, 2124, 2127, 2124, 2126, 2122, 2124, 2124, 2124, 2126, 2125, 2126, 2127, 2126, 2125, 2127, 2126, 2125, 2126, 2127, 2124, 2125, 2127, 2124, 2126, 2126, 2124, 2123, 2122, 2125, 2125, 2124, 2126, 2128, 2128, 2127, 2128, 2124, 2126, 2127, 2126, 2126, 2128, 2124, 2126, 2125, 2124, 2125, 2123, 2124, 2123, 2124, 2125, 2126, 2124, 2124, 2126, 2122, 2124, 2127, 2127, 2126, 2124, 2123, 2124, 2124, 2127, 2126, 2125, 2126, 2125, 2123, 2127, 2125, 2128, 2127, 2124, 2125, 2124, 2125, 2124, 2122, 2124, 2127, 2122, 2122, 2125, 2124, 2125, 2125, 2124, 2127, 2125, 2127, 2125, 2127, 2125, 2125, 2122, 2126, 2125, 2124, 2129, 2126, 2128, 2123, 2126, 2124, 2123, 2124, 2126, 2125, 2126, 2127, 2127, 2128, 2127, 2125, 2127, 2127, 2125, 2125, 2124, 2123, 2124, 2124, 2125, 2127, 2126, 2126, 2125, 2126, 2126, 2126, 2125, 2124, 2122, 2125, 2127, 2126, 2122, 2124, 2125, 2128, 2124, 2126, 2127, 2126, 2128, 2126, 2126, 2127, 2125, 2123, 2125, 2125, 2125, 2124, 2125, 2125, 2124, 2122, 2122, 2122, 2124, 2123, 2123, 2126, 2122, 2125, 2125, 2125, 2124, 2125, 2124, 2126, 2126, 2127, 2127, 2126, 2125, 2126, 2125, 2124, 2125, 2125, 2123, 2127, 2123, 2124, 2125, 2124, 2123, 2126, 2121, 2125, 2124, 2126, 2122],
      "WindowCenter": [1006.0, 1006.0, 1005.0, 1005.0, 1005.0, 1006.0, 1004.0, 1006.0, 1005.0, 1005.0, 1005.0, 1004.0, 1005.0, 1005.0, 1004.0, 1004.0, 1004.0, 1004.0, 1004.0, 1006.0, 1005.0, 1003.0, 1004.0, 1004.0, 1004.0, 1005.0, 1004.0, 1005.0, 1005.0, 1004.0, 1005.0, 1004.0, 1006.0, 1005.0, 1004.0, 1004.0, 1004.0, 1004.0, 1004.0, 1004.0, 1005.0, 1003.0, 1005.0, 1004.0, 1004.0, 1005.0, 1004.0, 1005.0, 1005.0, 1004.0, 1004.0, 1003.0, 1005.0, 1004.0, 1004.0, 1003.0, 1005.0, 1004.0, 1004.0, 1005.0, 1004.0, 1003.0, 1003.0, 1003.0, 1005.0, 1003.0, 1004.0, 1003.0, 1004.0, 1005.0, 1004.0, 1003.0, 1004.0, 1004.0, 1003.0, 1003.0, 1004.0, 1004.0, 1005.0, 1003.0, 1005.0, 1003.0, 1005.0, 1004.0, 1004.0, 1004.0, 1004.0, 1004.0, 1004.0, 1004.0, 1004.0, 1004.0, 1004.0, 1004.0, 1004.0, 1003.0, 1003.0, 1003.0, 1003.0, 1004.0, 1004.0, 1004.0, 1003.0, 1003.0, 1004.0, 1003.0, 1003.0, 1003.0, 1003.0, 1004.0, 1003.0, 1003.0, 1004.0, 1002.0, 1004.0, 1002.0, 1003.0, 1003.0, 1004.0, 1003.0, 1002.0, 1003.0, 1003.0, 1003.0, 1003.0, 1004.0, 1004.0, 1005.0, 1002.0, 1002.0, 1003.0, 1003.0, 1003.0, 1003.0, 1003.0, 1003.0, 1003.0, 1005.0, 1002.0, 1002.0, 1004.0, 1003.0, 1003.0, 1004.0, 1003.0, 1004.0, 1004.0, 1004.0, 1003.0, 1003.0, 1003.0, 1004.0, 1003.0, 1003.0, 1003.0, 1003.0, 1003.0, 1003.0, 1004.0, 1002.0, 1004.0, 1003.0, 1004.0, 1002.0, 1003.0, 1003.0, 1004.0, 1002.0, 1002.0, 1003.0, 1003.0, 1003.0, 1004.0, 1003.0, 1003.0, 1002.0, 1003.0, 1002.0, 1002.0, 1003.0, 1004.0, 1003.0, 1003.0, 1003.0, 1005.0, 1003.0, 1004.0, 1004.0, 1002.0, 1005.0, 1002.0, 1003.0, 1003.0, 1003.0, 1004.0, 1003.0, 1002.0, 1004.0, 1004.0, 1003.0],
      "WindowWidth": [2236.0, 2236.0, 2235.0, 2235.0, 2235.0, 2235.0, 2235.0, 2236.0, 2235.0, 2235.0, 2235.0, 2234.0, 2235.0, 2235.0, 2235.0, 2235.0, 2235.0, 2235.0, 2235.0, 2236.0, 2235.0, 2234.0, 2234.0, 2234.0, 2234.0, 2235.0, 2234.0, 2235.0, 2235.0, 2234.0, 2235.0, 2234.0, 2235.0, 2235.0, 2234.0, 2234.0, 2234.0, 2234.0, 2234.0, 2234.0, 2234.0, 2233.0, 2234.0, 2234.0, 2234.0, 2234.0, 2234.0, 2234.0, 2235.0, 2234.0, 2234.0, 2233.0, 2234.0, 2233.0, 2233.0, 2233.0, 2234.0, 2234.0, 2233.0, 2234.0, 2233.0, 2233.0, 2233.0, 2233.0, 2234.0, 2233.0, 2233.0, 2233.0, 2233.0, 2234.0, 2233.0, 2232.0, 2233.0, 2233.0, 2232.0, 2232.0, 2233.0, 2233.0, 2234.0, 2232.0, 2234.0, 2232.0, 2234.0, 2233.0, 2233.0, 2234.0, 2234.0, 2234.0, 2233.0, 2233.0, 2233.0, 2234.0, 2233.0, 2232.0, 2234.0, 2233.0, 2232.0, 2232.0, 2233.0, 2233.0, 2233.0, 2234.0, 2232.0, 2232.0, 2233.0, 2232.0, 2232.0, 2233.0, 2233.0, 2233.0, 2232.0, 2232.0, 2233.0, 2231.0, 2233.0, 2231.0, 2232.0, 2232.0, 2233.0, 2232.0, 2231.0, 2232.0, 2232.0, 2232.0, 2232.0, 2233.0, 2233.0, 2233.0, 2231.0, 2231.0, 2232.0, 2232.0, 2232.0, 2232.0, 2232.0, 2232.0, 2232.0, 2233.0, 2231.0, 2232.0, 2233.0, 2232.0, 2232.0, 2233.0, 2232.0, 2233.0, 2233.0, 2233.0, 2232.0, 2232.0, 2232.0, 2232.0, 2232.0, 2232.0, 2232.0, 2232.0, 2232.0, 2232.0, 2232.0, 2231.0, 2232.0, 2232.0, 2232.0, 2231.0, 2232.0, 2232.0, 2232.0, 2231.0, 2231.0, 2232.0, 2232.0, 2232.0, 2232.0, 2232.0, 2232.0, 2230.0, 2231.0, 2231.0, 2231.0, 2231.0, 2232.0, 2231.0, 2231.0, 2231.0, 2232.0, 2231.0, 2232.0, 2232.0, 2230.0, 2232.0, 2230.0, 2231.0, 2231.0, 2231.0, 2232.0, 2231.0, 2230.0, 2232.0, 2232.0, 2231.0]
    },
    "slices": {}
  }
}