{
  "AcquisitionMatrixPE": 80,
  "AcquisitionNumber": 1,
  "AcquisitionTime": "09:29:33.742500",
  "BandwidthPerPixelPhaseEncode": 48.077,
  "BaseResolution": 80,
  "BodyPartExamined": "BRAIN",
  "CoilCombinationMethod": "Sum of Squares",
  "ConsistencyInfo": "N4_VE11E_LATEST_20181129",
  "ConversionSoftware": "dcm2niix",
  "ConversionSoftwareVersion": "v1.0.20220720",
  "DerivedVendorReportedEchoSpacing": 0.000519999,
  "DeviceSerialNumber": "66112",
  "DwellTime": 2.7e-06,
  "EchoTime": 0.035,
  "EchoTrainLength": 39,
  "EffectiveEchoSpacing": 0.00026,
  "FlipAngle": 90,
  "HeudiconvVersion": "0.13.1",
  "ImageOrientationPatientDICOM": [0.987997, 0.154054, 0.0114128, -0.150126, 0.940143, 0.305929],
  "ImageOrientationText": "Tra>Cor(17.7)>Sag(-2.1)",
  "ImageType": [
    "ORIGINAL",
    "PRIMARY",
    "M",
    "ND",
    "NORM",
    "MOSAIC"
],
  "ImagingFrequency": 123.259,
  "InPlanePhaseEncodingDirectionDICOM": "COL",
  "InstitutionAddress": "Maynard 3,Hanover,NH,US,03755",
  "InstitutionName": "Dartmouth College - PBS",
  "InstitutionalDepartmentName": "Department",
  "MRAcquisitionType": "2D",
  "MagneticFieldStrength": 3,
  "Manufacturer": "Siemens",
  "ManufacturersModelName": "Prisma",
  "MatrixCoilMode": "GRAPPA",
  "Modality": "MR",
  "NonlinearGradientCorrection": false,
  "ParallelReductionFactorInPlane": 2,
  "PartialFourier": 1,
  "PatientPosition": "HFS",
  "PercentPhaseFOV": 100,
  "PercentSampling": 100,
  "PhaseEncodingDirection": "j-",
  "PhaseEncodingSteps": 79,
  "PhaseResolution": 1,
  "PixelBandwidth": 2315,
  "ProcedureStepDescription": "dbic^QA",
  "ProtocolName": "func-bold_task-rest_acq-p2",
  "PulseSequenceDetails": "%SiemensSeq%\\ep2d_bold",
  "ReceiveCoilActiveElements": "HEA;HEP",
  "ReceiveCoilName": "Head_32",
  "ReconMatrixPE": 80,
  "RefLinesPE": 24,
  "RepetitionTime": 2,
  "SAR": 0.047108,
  "ScanOptions": "FS",
  "ScanningSequence": "EP",
  "SequenceName": "*epfid2d1_80",
  "SequenceVariant": "SK",
  "SeriesDescription": "func-bold_task-rest_acq-p2",
  "SeriesNumber": 5,
  "ShimSetting": [4221, -7736, -7491, -11, -137, -80, -14, 81],
  "SliceThickness": 3.5,
  "SliceTiming": [0.99, 0, 1.055, 0.065, 1.1225, 0.1325, 1.1875, 0.1975, 1.2525, 0.265, 1.32, 0.33, 1.385, 0.395, 1.4525, 0.4625, 1.5175, 0.5275, 1.5825, 0.595, 1.65, 0.66, 1.715, 0.725, 1.7825, 0.7925, 1.8475, 0.8575, 1.9125, 0.9225],
  "SoftwareVersions": "syngo MR E11",
  "SpacingBetweenSlices": 3.99,
  "StationName": "AWP66112",
  "TaskName": "rest",
  "TotalReadoutTime": 0.02054,
  "TxRefAmp": 227.61,
  "dcmmeta_affine": [
    [-2.963989734649658, -0.4503781497478485, -0.1452351212501526, 141.3339385986328],
    [-0.4621609151363373, 2.8204305171966553, 1.2128398418426514, -112.643798828125],
    [0.03423834592103958, -0.917786180973053, 3.798424243927002, -28.8800106048584],
    [0.0, 0.0, 0.0, 1.0]
],
  "dcmmeta_reorient_transform": [
    [0.0, -1.0, 0.0, 79.0],
    [1.0, 0.0, 0.0, 0.0],
    [0.0, 0.0, 1.0, 0.0],
    [0.0, 0.0, 0.0, 1.0]
],
  "dcmmeta_shape": [80, 80, 30, 200],
  "dcmmeta_slice_dim": 2,
  "dcmmeta_version": 0.6,
  "global": {
    "const": {
      "AccessionNumber": "qa",
      "AcquisitionMatrix": [80, 0, 0, 80],
      "AngioFlag": "N",
      "BitsAllocated": 16,
      "BitsStored": 12,
      "BodyPartExamined": "BRAIN",
      "Columns": 480,
      "EchoNumbers": 1,
      "EchoTime": 35.0,
      "EchoTrainLength": 39,
      "FlipAngle": 90.0,
      "HighBit": 11,
      "ImageOrientationPatient": [0.98799657166083, 0.15405363614006, 0.01141278136457, -0.1501260481501, 0.94014349043775, 0.30592872871691],
      "ImagePositionPatient": [-608.47637594579, -766.68848348893, -291.79002544226],
      "ImageType": [
        "ORIGINAL",
        "PRIMARY",
        "M",
        "ND",
        "NORM",
        "MOSAIC"
],
      "ImagedNucleus": "1H",
      "ImagingFrequency": 123.259254,
      "InPlanePhaseEncodingDirection": "COL",
      "MRAcquisitionType": "2D",
      "MagneticFieldStrength": 3.0,
      "Manufacturer": "SIEMENS",
      "ManufacturerModelName": "Prisma",
      "Modality": "MR",
      "NumberOfAverages": 1.0,
      "NumberOfPhaseEncodingSteps": 79,
      "PercentPhaseFieldOfView": 100.0,
      "PercentSampling": 100.0,
      "PerformedProcedureStepStartTime": "092755.226000",
      "PhotometricInterpretation": "MONOCHROME2",
      "PixelBandwidth": 2315.0,
      "PixelRepresentation": 0,
      "PixelSpacing": [3.0, 3.0],
      "ProtocolName": "func-bold_task-rest_acq-p2",
      "RepetitionTime": 2000.0,
      "Rows": 480,
      "SAR": 0.04710801032491,
      "SamplesPerPixel": 1,
      "ScanOptions": "FS",
      "ScanningSequence": "EP",
      "SequenceName": "*epfid2d1_80",
      "SequenceVariant": "SK",
      "SeriesDescription": "func-bold_task-rest_acq-p2",
      "SeriesNumber": 5,
      "SeriesTime": "093028.560000",
      "SliceLocation": -66.878213902692,
      "SliceThickness": 3.5,
      "SmallestImagePixelValue": 0,
      "SoftwareVersions": "syngo MR E11",
      "SpacingBetweenSlices": 3.9900000000558,
      "SpecificCharacterSet": "ISO_IR 100",
      "StudyID": "7",
      "StudyTime": "092755.189000",
      "TransmitCoilName": "Body",
      "VariableFlipAngleFlag": "N",
      "WindowCenterWidthExplanation": "Algo1"
    },
    "slices": {}
  },
  "time": {
    "samples": {
      "AcquisitionNumber": [1, 2, 3, 4, 5, 6, 7, 8, 9, 10, 11, 12, 13, 14, 15, 16, 17, 18, 19, 20, 21, 22, 23, 24, 25, 26, 27, 28, 29, 30, 31, 32, 33, 34, 35, 36, 37, 38, 39, 40, 41, 42, 43, 44, 45, 46, 47, 48, 49, 50, 51, 52, 53, 54, 55, 56, 57, 58, 59, 60, 61, 62, 63, 64, 65, 66, 67, 68, 69, 70, 71, 72, 73, 74, 75, 76, 77, 78, 79, 80, 81, 82, 83, 84, 85, 86, 87, 88, 89, 90, 91, 92, 93, 94, 95, 96, 97, 98, 99, 100, 101, 102, 103, 104, 105, 106, 107, 108, 109, 110, 111, 112, 113, 114, 115, 116, 117, 118, 119, 120, 121, 122, 123, 124, 125, 126, 127, 128, 129, 130, 131, 132, 133, 134, 135, 136, 137, 138, 139, 140, 141, 142, 143, 144, 145, 146, 147, 148, 149, 150, 151, 152, 153, 154, 155, 156, 157, 158, 159, 160, 161, 162, 163, 164, 165, 166, 167, 168, 169, 170, 171, 172, 173, 174, 175, 176, 177, 178, 179, 180, 181, 182, 183, 184, 185, 186, 187, 188, 189, 190, 191, 192, 193, 194, 195, 196, 197, 198, 199, 200],
      "AcquisitionTime": ["092933.742500", "092935.742500", "092937.742500", "092939.742500", "092941.742500", "092943.742500", "092945.742500", "092947.742500", "092949.742500", "092951.742500", "092953.742500", "092955.742500", "092957.742500", "092959.742500", "093001.742500", "093003.742500", "093005.742500", "093007.742500", "093009.742500", "093011.742500", "093013.742500", "093015.742500", "093017.742500", "093019.742500", "093021.742500", "093023.742500", "093025.742500", "093027.742500", "093029.742500", "093031.742500", "093033.742500", "093035.742500", "093037.742500", "093039.742500", "093041.742500", "093043.742500", "093045.742500", "093047.742500", "093049.742500", "093051.742500", "093053.742500", "093055.742500", "093057.742500", "093059.742500", "093101.742500", "093103.742500", "093105.742500", "093107.742500", "093109.742500", "093111.742500", "093113.742500", "093115.742500", "093117.742500", "093119.742500", "093121.742500", "093123.742500", "093125.742500", "093127.742500", "093129.742500", "093131.742500", "093133.742500", "093135.742500", "093137.742500", "093139.742500", "093141.742500", "093143.742500", "093145.742500", "093147.742500", "093149.742500", "093151.742500", "093153.742500", "093155.742500", "093157.742500", "093159.742500", "093201.742500", "093203.742500", "093205.742500", "093207.742500", "093209.742500", "093211.742500", "093213.742500", "093215.742500", "093217.742500", "093219.742500", "093221.742500", "093223.742500", "093225.742500", "093227.742500", "093229.742500", "093231.742500", "093233.742500", "093235.742500", "093237.742500", "093239.742500", "093241.742500", "093243.742500", "093245.742500", "093247.742500", "093249.742500", "093251.742500", "093253.742500", "093255.742500", "093257.742500", "093259.742500", "093301.742500", "093303.742500", "093305.742500", "093307.742500", "093309.742500", "093311.742500", "093313.742500", "093315.742500", "093317.742500", "093319.742500", "093321.742500", "093323.742500", "093325.742500", "093327.742500", "093329.742500", "093331.742500", "093333.742500", "093335.742500", "093337.742500", "093339.742500", "093341.742500", "093343.742500", "093345.742500", "093347.742500", "093349.742500", "093351.742500", "093353.742500", "093355.742500", "093357.742500", "093359.742500", "093401.742500", "093403.742500", "093405.742500", "093407.742500", "093409.742500", "093411.742500", "093413.742500", "093415.742500", "093417.742500", "093419.742500", "093421.742500", "093423.742500", "093425.742500", "093427.742500", "093429.742500", "093431.742500", "093433.742500", "093435.742500", "093437.742500", "093439.742500", "093441.742500", "093443.742500", "093445.742500", "093447.742500", "093449.742500", "093451.742500", "093453.742500", "093455.742500", "093457.742500", "093459.742500", "093501.742500", "093503.742500", "093505.742500", "093507.742500", "093509.742500", "093511.742500", "093513.742500", "093515.742500", "093517.742500", "093519.742500", "093521.742500", "093523.742500", "093525.742500", "093527.742500", "093529.742500", "093531.742500", "093533.742500", "093535.742500", "093537.742500", "093539.742500", "093541.742500", "093543.742500", "093545.742500", "093547.742500", "093549.742500", "093551.742500", "093553.742500", "093555.742500", "093557.742500", "093559.742500", "093601.742500", "093603.742500", "093605.742500", "093607.742500", "093609.742500", "093611.742500"],
      "ContentTime": ["093028.563000", "093028.566000", "093028.569000", "093028.571000", "093028.574000", "093028.576000", "093028.579000", "093028.581000", "093028.583000", "093028.586000", "093028.588000", "093028.590000", "093028.593000", "093028.595000", "093028.597000", "093028.600000", "093028.602000", "093028.605000", "093028.607000", "093028.609000", "093028.612000", "093028.614000", "093028.617000", "093028.619000", "093028.622000", "093028.624000", "093028.626000", "093108.558000", "093108.561000", "093108.563000", "093108.566000", "093108.568000", "093108.571000", "093108.573000", "093108.575000", "093108.578000", "093108.580000", "093108.582000", "093108.585000", "093108.587000", "093108.590000", "093108.592000", "093108.594000", "093108.597000", "093108.599000", "093108.601000", "093108.604000", "093148.558000", "093148.561000", "093148.563000", "093148.566000", "093148.568000", "093148.571000", "093148.573000", "093148.575000", "093148.578000", "093148.580000", "093148.583000", "093148.585000", "093148.588000", "093148.590000", "093148.592000", "093148.595000", "093148.597000", "093148.600000", "093148.602000", "093148.604000", "093228.559000", "093228.562000", "093228.564000", "093228.567000", "093228.569000", "093228.571000", "093228.574000", "093228.576000", "093228.578000", "093228.581000", "093228.583000", "093228.585000", "093228.588000", "093228.590000", "093228.593000", "093228.595000", "093228.597000", "093228.600000", "093228.602000", "093228.604000", "093308.558000", "093308.561000", "093308.563000", "093308.566000", "093308.568000", "093308.571000", "093308.573000", "093308.575000", "093308.578000", "093308.580000", "093308.583000", "093308.585000", "093308.587000", "093308.590000", "093308.592000", "093308.594000", "093308.597000", "093308.599000", "093308.602000", "093308.604000", "093348.558000", "093348.561000", "093348.563000", "093348.565000", "093348.568000", "093348.570000", "093348.573000", "093348.575000", "093348.577000", "093348.580000", "093348.582000", "093348.585000", "093348.587000", "093348.589000", "093348.592000", "093348.594000", "093348.596000", "093348.599000", "093348.601000", "093348.604000", "093428.569000", "093428.572000", "093428.574000", "093428.577000", "093428.579000", "093428.582000", "093428.584000", "093428.586000", "093428.589000", "093428.591000", "093428.594000", "093428.596000", "093428.598000", "093428.601000", "093428.603000", "093428.605000", "093428.608000", "093428.610000", "093428.612000", "093428.615000", "093508.558000", "093508.561000", "093508.563000", "093508.566000", "093508.568000", "093508.571000", "093508.573000", "093508.575000", "093508.578000", "093508.580000", "093508.583000", "093508.585000", "093508.587000", "093508.590000", "093508.592000", "093508.594000", "093508.597000", "093508.599000", "093508.602000", "093508.604000", "093548.558000", "093548.561000", "093548.563000", "093548.566000", "093548.568000", "093548.570000", "093548.573000", "093548.575000", "093548.577000", "093548.580000", "093548.582000", "093548.584000", "093548.587000", "093548.589000", "093548.591000", "093548.594000", "093548.596000", "093548.598000", "093548.601000", "093548.603000", "093612.881000", "093612.884000", "093612.887000", "093612.889000", "093612.891000", "093612.894000", "093612.896000", "093612.899000", "093612.901000", "093612.903000", "093612.906000", "093612.908000", "093612.911000"],
      "InstanceCreationTime": ["093028.563000", "093028.566000", "093028.569000", "093028.571000", "093028.574000", "093028.576000", "093028.579000", "093028.581000", "093028.583000", "093028.586000", "093028.588000", "093028.590000", "093028.593000", "093028.595000", "093028.597000", "093028.600000", "093028.602000", "093028.605000", "093028.607000", "093028.609000", "093028.612000", "093028.614000", "093028.617000", "093028.619000", "093028.622000", "093028.624000", "093028.626000", "093108.558000", "093108.561000", "093108.563000", "093108.566000", "093108.568000", "093108.571000", "093108.573000", "093108.575000", "093108.578000", "093108.580000", "093108.582000", "093108.585000", "093108.587000", "093108.590000", "093108.592000", "093108.594000", "093108.597000", "093108.599000", "093108.601000", "093108.604000", "093148.558000", "093148.561000", "093148.563000", "093148.566000", "093148.568000", "093148.571000", "093148.573000", "093148.575000", "093148.578000", "093148.580000", "093148.583000", "093148.585000", "093148.588000", "093148.590000", "093148.592000", "093148.595000", "093148.597000", "093148.600000", "093148.602000", "093148.604000", "093228.559000", "093228.562000", "093228.564000", "093228.567000", "093228.569000", "093228.571000", "093228.574000", "093228.576000", "093228.578000", "093228.581000", "093228.583000", "093228.585000", "093228.588000", "093228.590000", "093228.593000", "093228.595000", "093228.597000", "093228.600000", "093228.602000", "093228.604000", "093308.558000", "093308.561000", "093308.563000", "093308.566000", "093308.568000", "093308.571000", "093308.573000", "093308.575000", "093308.578000", "093308.580000", "093308.583000", "093308.585000", "093308.587000", "093308.590000", "093308.592000", "093308.594000", "093308.597000", "093308.599000", "093308.602000", "093308.604000", "093348.558000", "093348.561000", "093348.563000", "093348.565000", "093348.568000", "093348.570000", "093348.573000", "093348.575000", "093348.577000", "093348.580000", "093348.582000", "093348.585000", "093348.587000", "093348.589000", "093348.592000", "093348.594000", "093348.596000", "093348.599000", "093348.601000", "093348.604000", "093428.569000", "093428.572000", "093428.574000", "093428.577000", "093428.579000", "093428.582000", "093428.584000", "093428.586000", "093428.589000", "093428.591000", "093428.594000", "093428.596000", "093428.598000", "093428.601000", "093428.603000", "093428.605000", "093428.608000", "093428.610000", "093428.612000", "093428.615000", "093508.558000", "093508.561000", "093508.563000", "093508.566000", "093508.568000", "093508.571000", "093508.573000", "093508.575000", "093508.578000", "093508.580000", "093508.583000", "093508.585000", "093508.587000", "093508.590000", "093508.592000", "093508.594000", "093508.597000", "093508.599000", "093508.602000", "093508.604000", "093548.558000", "093548.561000", "093548.563000", "093548.566000", "093548.568000", "093548.570000", "093548.573000", "093548.575000", "093548.577000", "093548.580000", "093548.582000", "093548.584000", "093548.587000", "093548.589000", "093548.591000", "093548.594000", "093548.596000", "093548.598000", "093548.601000", "093548.603000", "093612.881000", "093612.884000", "093612.887000", "093612.889000", "093612.891000", "093612.894000", "093612.896000", "093612.899000", "093612.901000", "093612.903000", "093612.906000", "093612.908000", "093612.911000"],
      "InstanceNumber": [1, 2, 3, 4, 5, 6, 7, 8, 9, 10, 11, 12, 13, 14, 15, 16, 17, 18, 19, 20, 21, 22, 23, 24, 25, 26, 27, 28, 29, 30, 31, 32, 33, 34, 35, 36, 37, 38, 39, 40, 41, 42, 43, 44, 45, 46, 47, 48, 49, 50, 51, 52, 53, 54, 55, 56, 57, 58, 59, 60, 61, 62, 63, 64, 65, 66, 67, 68, 69, 70, 71, 72, 73, 74, 75, 76, 77, 78, 79, 80, 81, 82, 83, 84, 85, 86, 87, 88, 89, 90, 91, 92, 93, 94, 95, 96, 97, 98, 99, 100, 101, 102, 103, 104, 105, 106, 107, 108, 109, 110, 111, 112, 113, 114, 115, 116, 117, 118, 119, 120, 121, 122, 123, 124, 125, 126, 127, 128, 129, 130, 131, 132, 133, 134, 135, 136, 137, 138, 139, 140, 141, 142, 143, 144, 145, 146, 147, 148, 149, 150, 151, 152, 153, 154, 155, 156, 157, 158, 159, 160, 161, 162, 163, 164, 165, 166, 167, 168, 169, 170, 171, 172, 173, 174, 175, 176, 177, 178, 179, 180, 181, 182, 183, 184, 185, 186, 187, 188, 189, 190, 191, 192, 193, 194, 195, 196, 197, 198, 199, 200],
      "LargestImagePixelValue": [2214, 2223, 2219, 2224, 2223, 2219, 2217, 2221, 2223, 2220, 2220, 2216, 2217, 2213, 2217, 2220, 2219, 2221, 2213, 2217, 2208, 2215, 2215, 2213, 2206, 2211, 2212, 2213, 2210, 2219, 2209, 2216, 2214, 2213, 2211, 2219, 2214, 2214, 2208, 2216, 2214, 2211, 2213, 2212, 2209, 2208, 2215, 2207, 2215, 2212, 2213, 2213, 2210, 2213, 2207, 2205, 2206, 2212, 2213, 2210, 2204, 2198, 2214, 2213, 2221, 2203, 2222, 2202, 2212, 2207, 2208, 2212, 2215, 2209, 2214, 2214, 2203, 2213, 2204, 2207, 2207, 2210, 2211, 2198, 2212, 2210, 2206, 2202, 2213, 2210, 2204, 2201, 2206, 2209, 2205, 2206, 2204, 2211, 2212, 2202, 2193, 2207, 2196, 2197, 2208, 2206, 2212, 2209, 2210, 2207, 2208, 2197, 2201, 2206, 2214, 2208, 2215, 2204, 2211, 2208, 2207, 2206, 2210, 2217, 2205, 2211, 2199, 2211, 2206, 2212, 2209, 2203, 2206, 2204, 2202, 2201, 2204, 2200, 2205, 2221, 2208, 2201, 2204, 2209, 2207, 2208, 2201, 2203, 2205, 2202, 2215, 2208, 2209, 2211, 2205, 2203, 2199, 2200, 2197, 2201, 2201, 2193, 2201, 2213, 2202, 2199, 2203, 2202, 2202, 2195, 2204, 2204, 2197, 2206, 2196, 2201, 2200, 2206, 2201, 2206, 2201, 2204, 2202, 2202, 2199, 2199, 2209, 2201, 2200, 2198, 2206, 2205, 2209, 2210, 2201, 2202, 2203, 2210, 2193, 2199],
      "WindowCenter": [1019.0, 1019.0, 1019.0, 1019.0, 1019.0, 1019.0, 1019.0, 1020.0, 1019.0, 1019.0, 1019.0, 1019.0, 1019.0, 1019.0, 1019.0, 1019.0, 1019.0, 1019.0, 1019.0, 1019.0, 1019.0, 1019.0, 1019.0, 1019.0, 1019.0, 1019.0, 1019.0, 1019.0, 1019.0, 1019.0, 1019.0, 1019.0, 1019.0, 1019.0, 1019.0, 1019.0, 1019.0, 1019.0, 1018.0, 1019.0, 1019.0, 1019.0, 1019.0, 1019.0, 1019.0, 1018.0, 1018.0, 1018.0, 1018.0, 1018.0, 1018.0, 1018.0, 1018.0, 1018.0, 1018.0, 1018.0, 1018.0, 1018.0, 1018.0, 1018.0, 1018.0, 1018.0, 1018.0, 1018.0, 1018.0, 1018.0, 1019.0, 1018.0, 1018.0, 1018.0, 1018.0, 1018.0, 1018.0, 1018.0, 1018.0, 1018.0, 1018.0, 1018.0, 1018.0, 1018.0, 1018.0, 1018.0, 1018.0, 1018.0, 1018.0, 1018.0, 1018.0, 1018.0, 1018.0, 1018.0, 1018.0, 1018.0, 1019.0, 1018.0, 1018.0, 1018.0, 1018.0, 1018.0, 1018.0, 1018.0, 1018.0, 1018.0, 1018.0, 1018.0, 1018.0, 1018.0, 1018.0, 1018.0, 1018.0, 1018.0, 1018.0, 1018.0, 1018.0, 1018.0, 1018.0, 1019.0, 1018.0, 1019.0, 1018.0, 1018.0, 1018.0, 1018.0, 1018.0, 1018.0, 1018.0, 1018.0, 1018.0, 1018.0, 1018.0, 1018.0, 1018.0, 1018.0, 1018.0, 1018.0, 1018.0, 1018.0, 1018.0, 1018.0, 1018.0, 1018.0, 1018.0, 1018.0, 1018.0, 1018.0, 1018.0, 1018.0, 1018.0, 1018.0, 1018.0, 1018.0, 1018.0, 1018.0, 1018.0, 1018.0, 1018.0, 1018.0, 1018.0, 1017.0, 1018.0, 1018.0, 1018.0, 1018.0, 1018.0, 1018.0, 1018.0, 1018.0, 1018.0, 1018.0, 1018.0, 1018.0, 1018.0, 1018.0, 1018.0, 1019.0, 1018.0, 1018.0, 1017.0, 1018.0, 1018.0, 1018.0, 1018.0, 1018.0, 1017.0, 1017.0, 1018.0, 1018.0, 1018.0, 1017.0, 1018.0, 1018.0, 1018.0, 1018.0, 1017.0, 1017.0, 1017.0, 1018.0, 1017.0, 1017.0, 1017.0, 1017.0],
      "WindowWidth": [2266.0, 2265.0, 2265.0, 2265.0, 2266.0, 2265.0, 2265.0, 2266.0, 2265.0, 2265.0, 2265.0, 2265.0, 2265.0, 2265.0, 2265.0, 2265.0, 2265.0, 2265.0, 2265.0, 2265.0, 2265.0, 2265.0, 2265.0, 2265.0, 2265.0, 2265.0, 2265.0, 2265.0, 2264.0, 2265.0, 2265.0, 2264.0, 2264.0, 2265.0, 2264.0, 2265.0, 2265.0, 2265.0, 2265.0, 2264.0, 2264.0, 2264.0, 2264.0, 2264.0, 2264.0, 2264.0, 2264.0, 2264.0, 2264.0, 2264.0, 2264.0, 2264.0, 2264.0, 2264.0, 2263.0, 2264.0, 2264.0, 2264.0, 2264.0, 2264.0, 2263.0, 2263.0, 2264.0, 2263.0, 2264.0, 2263.0, 2264.0, 2264.0, 2263.0, 2263.0, 2263.0, 2264.0, 2263.0, 2263.0, 2263.0, 2263.0, 2264.0, 2263.0, 2263.0, 2263.0, 2263.0, 2263.0, 2263.0, 2263.0, 2263.0, 2263.0, 2263.0, 2263.0, 2264.0, 2263.0, 2263.0, 2263.0, 2264.0, 2263.0, 2263.0, 2263.0, 2263.0, 2263.0, 2263.0, 2263.0, 2263.0, 2262.0, 2263.0, 2263.0, 2263.0, 2263.0, 2263.0, 2262.0, 2263.0, 2262.0, 2263.0, 2262.0, 2262.0, 2262.0, 2263.0, 2263.0, 2262.0, 2263.0, 2263.0, 2263.0, 2262.0, 2262.0, 2263.0, 2262.0, 2262.0, 2263.0, 2262.0, 2262.0, 2262.0, 2262.0, 2262.0, 2262.0, 2262.0, 2262.0, 2262.0, 2262.0, 2262.0, 2262.0, 2262.0, 2262.0, 2262.0, 2262.0, 2262.0, 2262.0, 2262.0, 2262.0, 2262.0, 2262.0, 2262.0, 2262.0, 2262.0, 2262.0, 2262.0, 2262.0, 2262.0, 2262.0, 2262.0, 2262.0, 2261.0, 2262.0, 2262.0, 2262.0, 2261.0, 2262.0, 2262.0, 2262.0, 2262.0, 2261.0, 2262.0, 2262.0, 2262.0, 2261.0, 2261.0, 2262.0, 2261.0, 2262.0, 2262.0, 2261.0, 2261.0, 2261.0, 2261.0, 2261.0, 2262.0, 2262.0, 2261.0, 2261.0, 2261.0, 2261.0, 2261.0, 2262.0, 2261.0, 2261.0, 2262.0, 2261.0, 2261.0, 2261.0, 2261.0, 2261.0, 2261.0, 2261.0]
    },
    "slices": {}
  }
}