{
  "AcquisitionMatrixPE": 80,
  "AcquisitionNumber": 1,
  "AcquisitionTime": "09:50:0.452500",
  "BandwidthPerPixelPhaseEncode": 25,
  "BaseResolution": 80,
  "BodyPartExamined": "BRAIN",
  "CoilCombinationMethod": "Sum of Squares",
  "ConsistencyInfo": "N4_VE11E_LATEST_20181129",
  "ConversionSoftware": "dcm2niix",
  "ConversionSoftwareVersion": "v1.0.20220720",
  "DerivedVendorReportedEchoSpacing": 0.0005,
  "DeviceSerialNumber": "66112",
  "DwellTime": 2.7e-06,
  "EchoTime": 0.03,
  "EchoTrainLength": 80,
  "EffectiveEchoSpacing": 0.0005,
  "FlipAngle": 10,
  "HeudiconvVersion": "0.13.1",
  "ImageOrientationPatientDICOM": [0.987997, 0.154054, 0.0114128, -0.150126, 0.940143, 0.305929],
  "ImageOrientationText": "Tra>Cor(17.7)>Sag(-2.1)",
  "ImageType": [
    "ORIGINAL",
    "PRIMARY",
    "M",
    "ND",
    "NORM",
    "MOSAIC"
],
  "ImagingFrequency": 123.259,
  "InPlanePhaseEncodingDirectionDICOM": "COL",
  "InstitutionAddress": "Maynard 3,Hanover,NH,US,03755",
  "InstitutionName": "Dartmouth College - PBS",
  "InstitutionalDepartmentName": "Department",
  "MRAcquisitionType": "2D",
  "MagneticFieldStrength": 3,
  "Manufacturer": "Siemens",
  "ManufacturersModelName": "Prisma",
  "MatrixCoilMode": "SENSE",
  "Modality": "MR",
  "NonlinearGradientCorrection": false,
  "PartialFourier": 1,
  "PatientPosition": "HFS",
  "PercentPhaseFOV": 100,
  "PercentSampling": 100,
  "PhaseEncodingDirection": "j-",
  "PhaseEncodingSteps": 80,
  "PhaseResolution": 1,
  "PixelBandwidth": 2315,
  "ProcedureStepDescription": "dbic^QA",
  "ProtocolName": "func-bold_fa-10",
  "PulseSequenceDetails": "%SiemensSeq%\\ep2d_bold",
  "ReceiveCoilActiveElements": "HEA;HEP",
  "ReceiveCoilName": "Head_32",
  "ReconMatrixPE": 80,
  "RepetitionTime": 2,
  "SAR": 0.00993054,
  "ScanOptions": "FS",
  "ScanningSequence": "EP",
  "SequenceName": "*epfid2d1_80",
  "SequenceVariant": "SK",
  "SeriesDescription": "func-bold_fa-10",
  "SeriesNumber": 10,
  "ShimSetting": [4221, -7736, -7490, -11, -137, -77, -12, 80],
  "SliceThickness": 3.5,
  "SliceTiming": [0.99, 0, 1.0575, 0.0675, 1.1225, 0.1325, 1.1875, 0.1975, 1.255, 0.265, 1.32, 0.33, 1.3875, 0.3975, 1.4525, 0.4625, 1.5175, 0.5275, 1.585, 0.595, 1.65, 0.66, 1.7175, 0.7275, 1.7825, 0.7925, 1.8475, 0.8575, 1.915, 0.925],
  "SoftwareVersions": "syngo MR E11",
  "SpacingBetweenSlices": 3.99,
  "StationName": "AWP66112",
  "TotalReadoutTime": 0.0395,
  "TxRefAmp": 227.61,
  "dcmmeta_affine": [
    [-2.963989734649658, -0.4503781497478485, -0.1452351212501526, 140.49497985839844],
    [-0.4621609151363373, 2.8204305171966553, 1.2128398418426514, -107.24681854248047],
    [0.03423834592103958, -0.917786180973053, 3.798424243927002, -28.617551803588867],
    [0.0, 0.0, 0.0, 1.0]
],
  "dcmmeta_reorient_transform": [
    [0.0, -1.0, 0.0, 79.0],
    [1.0, 0.0, 0.0, 0.0],
    [0.0, 0.0, 1.0, 0.0],
    [0.0, 0.0, 0.0, 1.0]
],
  "dcmmeta_shape": [80, 80, 30, 200],
  "dcmmeta_slice_dim": 2,
  "dcmmeta_version": 0.6,
  "global": {
    "const": {
      "AccessionNumber": "qa",
      "AcquisitionMatrix": [80, 0, 0, 80],
      "AngioFlag": "N",
      "BitsAllocated": 16,
      "BitsStored": 12,
      "BodyPartExamined": "BRAIN",
      "Columns": 480,
      "EchoNumbers": 1,
      "EchoTime": 30.0,
      "EchoTrainLength": 80,
      "FlipAngle": 10.0,
      "HighBit": 11,
      "ImageOrientationPatient": [0.98799657166083, 0.15405363614006, 0.01141278136457, -0.1501260481501, 0.94014349043775, 0.30592872871691],
      "ImagePositionPatient": [-607.63742435812, -772.08546758927, -291.52756664099],
      "ImageType": [
        "ORIGINAL",
        "PRIMARY",
        "M",
        "ND",
        "NORM",
        "MOSAIC"
],
      "ImagedNucleus": "1H",
      "ImagingFrequency": 123.259254,
      "InPlanePhaseEncodingDirection": "COL",
      "MRAcquisitionType": "2D",
      "MagneticFieldStrength": 3.0,
      "Manufacturer": "SIEMENS",
      "ManufacturerModelName": "Prisma",
      "Modality": "MR",
      "NumberOfAverages": 1.0,
      "NumberOfPhaseEncodingSteps": 80,
      "PercentPhaseFieldOfView": 100.0,
      "PercentSampling": 100.0,
      "PerformedProcedureStepStartTime": "092755.226000",
      "PhotometricInterpretation": "MONOCHROME2",
      "PixelBandwidth": 2315.0,
      "PixelRepresentation": 0,
      "PixelSpacing": [3.0, 3.0],
      "ProtocolName": "func-bold_fa-10",
      "RepetitionTime": 2000.0,
      "Rows": 480,
      "SAR": 0.00993053534204,
      "SamplesPerPixel": 1,
      "ScanOptions": "FS",
      "ScanningSequence": "EP",
      "SequenceName": "*epfid2d1_80",
      "SequenceVariant": "SK",
      "SeriesDescription": "func-bold_fa-10",
      "SeriesNumber": 10,
      "SeriesTime": "095048.561000",
      "SliceLocation": -64.957298473699,
      "SliceThickness": 3.5,
      "SmallestImagePixelValue": 0,
      "SoftwareVersions": "syngo MR E11",
      "SpacingBetweenSlices": 3.9899999803067,
      "SpecificCharacterSet": "ISO_IR 100",
      "StudyID": "7",
      "StudyTime": "092755.189000",
      "TransmitCoilName": "Body",
      "VariableFlipAngleFlag": "N",
      "WindowCenterWidthExplanation": "Algo1"
    },
    "slices": {}
  },
  "time": {
    "samples": {
      "AcquisitionNumber": [1, 2, 3, 4, 5, 6, 7, 8, 9, 10, 11, 12, 13, 14, 15, 16, 17, 18, 19, 20, 21, 22, 23, 24, 25, 26, 27, 28, 29, 30, 31, 32, 33, 34, 35, 36, 37, 38, 39, 40, 41, 42, 43, 44, 45, 46, 47, 48, 49, 50, 51, 52, 53, 54, 55, 56, 57, 58, 59, 60, 61, 62, 63, 64, 65, 66, 67, 68, 69, 70, 71, 72, 73, 74, 75, 76, 77, 78, 79, 80, 81, 82, 83, 84, 85, 86, 87, 88, 89, 90, 91, 92, 93, 94, 95, 96, 97, 98, 99, 100, 101, 102, 103, 104, 105, 106, 107, 108, 109, 110, 111, 112, 113, 114, 115, 116, 117, 118, 119, 120, 121, 122, 123, 124, 125, 126, 127, 128, 129, 130, 131, 132, 133, 134, 135, 136, 137, 138, 139, 140, 141, 142, 143, 144, 145, 146, 147, 148, 149, 150, 151, 152, 153, 154, 155, 156, 157, 158, 159, 160, 161, 162, 163, 164, 165, 166, 167, 168, 169, 170, 171, 172, 173, 174, 175, 176, 177, 178, 179, 180, 181, 182, 183, 184, 185, 186, 187, 188, 189, 190, 191, 192, 193, 194, 195, 196, 197, 198, 199, 200],
      "AcquisitionTime": ["095000.452500", "095002.452500", "095004.452500", "095006.452500", "095008.452500", "095010.452500", "095012.452500", "095014.452500", "095016.452500", "095018.452500", "095020.452500", "095022.452500", "095024.452500", "095026.452500", "095028.452500", "095030.452500", "095032.452500", "095034.452500", "095036.452500", "095038.452500", "095040.452500", "095042.452500", "095044.452500", "095046.452500", "095048.452500", "095050.452500", "095052.452500", "095054.452500", "095056.452500", "095058.452500", "095100.452500", "095102.452500", "095104.452500", "095106.452500", "095108.452500", "095110.452500", "095112.452500", "095114.452500", "095116.452500", "095118.452500", "095120.452500", "095122.452500", "095124.452500", "095126.452500", "095128.452500", "095130.452500", "095132.452500", "095134.452500", "095136.452500", "095138.452500", "095140.452500", "095142.452500", "095144.452500", "095146.452500", "095148.452500", "095150.452500", "095152.452500", "095154.452500", "095156.452500", "095158.452500", "095200.452500", "095202.452500", "095204.452500", "095206.452500", "095208.452500", "095210.452500", "095212.452500", "095214.452500", "095216.452500", "095218.452500", "095220.452500", "095222.452500", "095224.452500", "095226.452500", "095228.452500", "095230.452500", "095232.452500", "095234.452500", "095236.452500", "095238.452500", "095240.452500", "095242.452500", "095244.452500", "095246.452500", "095248.452500", "095250.452500", "095252.452500", "095254.452500", "095256.452500", "095258.452500", "095300.452500", "095302.452500", "095304.452500", "095306.452500", "095308.452500", "095310.452500", "095312.452500", "095314.452500", "095316.452500", "095318.452500", "095320.452500", "095322.452500", "095324.452500", "095326.452500", "095328.452500", "095330.452500", "095332.452500", "095334.452500", "095336.452500", "095338.452500", "095340.452500", "095342.452500", "095344.452500", "095346.452500", "095348.452500", "095350.452500", "095352.452500", "095354.452500", "095356.452500", "095358.452500", "095400.452500", "095402.452500", "095404.452500", "095406.452500", "095408.452500", "095410.452500", "095412.452500", "095414.452500", "095416.452500", "095418.452500", "095420.452500", "095422.452500", "095424.452500", "095426.452500", "095428.452500", "095430.452500", "095432.452500", "095434.452500", "095436.452500", "095438.452500", "095440.452500", "095442.452500", "095444.452500", "095446.452500", "095448.452500", "095450.452500", "095452.452500", "095454.452500", "095456.452500", "095458.452500", "095500.452500", "095502.452500", "095504.452500", "095506.452500", "095508.452500", "095510.452500", "095512.452500", "095514.452500", "095516.452500", "095518.452500", "095520.452500", "095522.452500", "095524.452500", "095526.452500", "095528.452500", "095530.452500", "095532.452500", "095534.452500", "095536.452500", "095538.452500", "095540.452500", "095542.452500", "095544.452500", "095546.452500", "095548.452500", "095550.452500", "095552.452500", "095554.452500", "095556.452500", "095558.452500", "095600.452500", "095602.452500", "095604.452500", "095606.452500", "095608.452500", "095610.452500", "095612.452500", "095614.452500", "095616.452500", "095618.452500", "095620.452500", "095622.452500", "095624.452500", "095626.452500", "095628.452500", "095630.452500", "095632.452500", "095634.452500", "095636.452500", "095638.452500"],
      "ContentTime": ["095048.564000", "095048.567000", "095048.570000", "095048.572000", "095048.574000", "095048.577000", "095048.579000", "095048.581000", "095048.583000", "095048.590000", "095048.592000", "095048.595000", "095048.597000", "095048.599000", "095048.602000", "095048.604000", "095048.606000", "095048.609000", "095048.611000", "095048.613000", "095048.616000", "095048.618000", "095048.620000", "095048.623000", "095128.558000", "095128.561000", "095128.563000", "095128.565000", "095128.568000", "095128.570000", "095128.572000", "095128.575000", "095128.577000", "095128.579000", "095128.582000", "095128.584000", "095128.586000", "095128.589000", "095128.591000", "095128.593000", "095128.595000", "095128.598000", "095128.613000", "095128.616000", "095148.558000", "095148.561000", "095148.563000", "095148.565000", "095148.568000", "095148.570000", "095148.572000", "095148.575000", "095148.577000", "095148.579000", "095228.558000", "095228.561000", "095228.563000", "095228.566000", "095228.568000", "095228.570000", "095228.573000", "095228.575000", "095228.577000", "095228.579000", "095228.582000", "095228.584000", "095228.586000", "095228.589000", "095228.591000", "095228.593000", "095228.595000", "095228.598000", "095228.600000", "095228.602000", "095328.559000", "095329.915000", "095329.935000", "095329.975000", "095329.992000", "095330.021000", "095330.043000", "095330.061000", "095330.078000", "095330.095000", "095330.112000", "095330.129000", "095330.146000", "095330.169000", "095330.198000", "095330.226000", "095330.255000", "095330.272000", "095330.295000", "095330.312000", "095330.329000", "095330.346000", "095330.363000", "095330.380000", "095330.415000", "095330.489000", "095330.512000", "095330.540000", "095330.564000", "095408.558000", "095408.561000", "095408.563000", "095408.565000", "095408.568000", "095408.570000", "095408.572000", "095408.574000", "095408.577000", "095408.579000", "095408.581000", "095408.584000", "095408.586000", "095408.588000", "095408.590000", "095408.593000", "095408.595000", "095408.598000", "095408.600000", "095408.602000", "095408.604000", "095448.558000", "095448.561000", "095448.563000", "095448.565000", "095448.568000", "095448.570000", "095448.572000", "095448.575000", "095448.577000", "095448.579000", "095448.582000", "095448.584000", "095448.586000", "095448.589000", "095448.591000", "095448.593000", "095448.596000", "095448.598000", "095448.600000", "095448.603000", "095528.559000", "095528.562000", "095528.564000", "095528.567000", "095528.569000", "095528.571000", "095528.573000", "095528.576000", "095528.578000", "095528.580000", "095528.583000", "095528.585000", "095528.587000", "095528.589000", "095528.592000", "095528.594000", "095528.596000", "095528.599000", "095528.601000", "095528.603000", "095608.558000", "095608.561000", "095608.563000", "095608.566000", "095608.568000", "095608.570000", "095608.573000", "095608.575000", "095608.578000", "095608.580000", "095608.582000", "095608.585000", "095608.587000", "095608.589000", "095608.592000", "095608.594000", "095608.596000", "095608.599000", "095608.601000", "095608.603000", "095640.527000", "095640.529000", "095640.532000", "095640.534000", "095640.537000", "095640.539000", "095640.541000", "095640.543000", "095640.565000", "095640.568000", "095640.570000", "095640.573000", "095640.575000", "095640.578000", "095640.580000", "095640.583000"],
      "InstanceCreationTime": ["095048.564000", "095048.567000", "095048.570000", "095048.572000", "095048.574000", "095048.577000", "095048.579000", "095048.581000", "095048.583000", "095048.590000", "095048.592000", "095048.595000", "095048.597000", "095048.599000", "095048.602000", "095048.604000", "095048.606000", "095048.609000", "095048.611000", "095048.613000", "095048.616000", "095048.618000", "095048.620000", "095048.623000", "095128.558000", "095128.561000", "095128.563000", "095128.565000", "095128.568000", "095128.570000", "095128.572000", "095128.575000", "095128.577000", "095128.579000", "095128.582000", "095128.584000", "095128.586000", "095128.589000", "095128.591000", "095128.593000", "095128.595000", "095128.598000", "095128.613000", "095128.616000", "095148.558000", "095148.561000", "095148.563000", "095148.565000", "095148.568000", "095148.570000", "095148.572000", "095148.575000", "095148.577000", "095148.579000", "095228.558000", "095228.561000", "095228.563000", "095228.566000", "095228.568000", "095228.570000", "095228.573000", "095228.575000", "095228.577000", "095228.579000", "095228.582000", "095228.584000", "095228.586000", "095228.589000", "095228.591000", "095228.593000", "095228.595000", "095228.598000", "095228.600000", "095228.602000", "095328.559000", "095329.915000", "095329.935000", "095329.975000", "095329.992000", "095330.021000", "095330.043000", "095330.061000", "095330.078000", "095330.095000", "095330.112000", "095330.129000", "095330.146000", "095330.169000", "095330.198000", "095330.226000", "095330.255000", "095330.272000", "095330.295000", "095330.312000", "095330.329000", "095330.346000", "095330.363000", "095330.380000", "095330.415000", "095330.489000", "095330.512000", "095330.540000", "095330.564000", "095408.558000", "095408.561000", "095408.563000", "095408.565000", "095408.568000", "095408.570000", "095408.572000", "095408.574000", "095408.577000", "095408.579000", "095408.581000", "095408.584000", "095408.586000", "095408.588000", "095408.590000", "095408.593000", "095408.595000", "095408.598000", "095408.600000", "095408.602000", "095408.604000", "095448.558000", "095448.561000", "095448.563000", "095448.565000", "095448.568000", "095448.570000", "095448.572000", "095448.575000", "095448.577000", "095448.579000", "095448.582000", "095448.584000", "095448.586000", "095448.589000", "095448.591000", "095448.593000", "095448.596000", "095448.598000", "095448.600000", "095448.603000", "095528.559000", "095528.562000", "095528.564000", "095528.567000", "095528.569000", "095528.571000", "095528.573000", "095528.576000", "095528.578000", "095528.580000", "095528.583000", "095528.585000", "095528.587000", "095528.589000", "095528.592000", "095528.594000", "095528.596000", "095528.599000", "095528.601000", "095528.603000", "095608.558000", "095608.561000", "095608.563000", "095608.566000", "095608.568000", "095608.570000", "095608.573000", "095608.575000", "095608.578000", "095608.580000", "095608.582000", "095608.585000", "095608.587000", "095608.589000", "095608.592000", "095608.594000", "095608.596000", "095608.599000", "095608.601000", "095608.603000", "095640.527000", "095640.529000", "095640.532000", "095640.534000", "095640.537000", "095640.539000", "095640.541000", "095640.543000", "095640.565000", "095640.568000", "095640.570000", "095640.573000", "095640.575000", "095640.578000", "095640.580000", "095640.583000"],
      "InstanceNumber": [1, 2, 3, 4, 5, 6, 7, 8, 9, 10, 11, 12, 13, 14, 15, 16, 17, 18, 19, 20, 21, 22, 23, 24, 25, 26, 27, 28, 29, 30, 31, 32, 33, 34, 35, 36, 37, 38, 39, 40, 41, 42, 43, 44, 45, 46, 47, 48, 49, 50, 51, 52, 53, 54, 55, 56, 57, 58, 59, 60, 61, 62, 63, 64, 65, 66, 67, 68, 69, 70, 71, 72, 73, 74, 75, 76, 77, 78, 79, 80, 81, 82, 83, 84, 85, 86, 87, 88, 89, 90, 91, 92, 93, 94, 95, 96, 97, 98, 99, 100, 101, 102, 103, 104, 105, 106, 107, 108, 109, 110, 111, 112, 113, 114, 115, 116, 117, 118, 119, 120, 121, 122, 123, 124, 125, 126, 127, 128, 129, 130, 131, 132, 133, 134, 135, 136, 137, 138, 139, 140, 141, 142, 143, 144, 145, 146, 147, 148, 149, 150, 151, 152, 153, 154, 155, 156, 157, 158, 159, 160, 161, 162, 163, 164, 165, 166, 167, 168, 169, 170, 171, 172, 173, 174, 175, 176, 177, 178, 179, 180, 181, 182, 183, 184, 185, 186, 187, 188, 189, 190, 191, 192, 193, 194, 195, 196, 197, 198, 199, 200],
      "LargestImagePixelValue": [363, 363, 363, 363, 360, 362, 363, 363, 361, 361, 362, 364, 361, 361, 360, 362, 362, 362, 361, 362, 363, 362, 362, 361, 361, 362, 362, 363, 361, 363, 362, 362, 362, 362, 363, 362, 362, 361, 362, 363, 362, 361, 361, 363, 363, 362, 360, 362, 363, 362, 361, 363, 362, 364, 362, 361, 362, 363, 363, 362, 362, 362, 362, 362, 362, 361, 361, 361, 362, 361, 361, 363, 362, 362, 361, 361, 361, 361, 361, 360, 361, 363, 363, 360, 360, 362, 363, 363, 362, 360, 363, 363, 362, 360, 362, 362, 362, 359, 362, 362, 362, 362, 361, 361, 362, 361, 361, 361, 361, 361, 364, 362, 362, 361, 361, 361, 361, 361, 361, 361, 362, 361, 360, 363, 361, 362, 360, 360, 362, 362, 361, 361, 361, 362, 362, 361, 360, 362, 362, 362, 362, 361, 362, 362, 361, 361, 361, 361, 360, 360, 360, 360, 362, 362, 360, 362, 362, 362, 362, 360, 362, 362, 362, 361, 360, 362, 363, 362, 362, 360, 361, 362, 361, 361, 361, 362, 362, 361, 360, 361, 362, 362, 359, 359, 362, 362, 362, 361, 362, 363, 363, 362, 360, 362, 362, 362, 361, 360, 363, 362],
      "WindowCenter": [293.0, 293.0, 293.0, 294.0, 293.0, 293.0, 293.0, 293.0, 293.0, 293.0, 293.0, 293.0, 293.0, 293.0, 293.0, 293.0, 294.0, 293.0, 293.0, 293.0, 293.0, 293.0, 293.0, 293.0, 293.0, 293.0, 293.0, 293.0, 293.0, 293.0, 293.0, 293.0, 293.0, 293.0, 293.0, 293.0, 294.0, 293.0, 293.0, 293.0, 294.0, 293.0, 293.0, 293.0, 293.0, 294.0, 294.0, 293.0, 293.0, 293.0, 293.0, 293.0, 293.0, 293.0, 293.0, 293.0, 293.0, 293.0, 294.0, 293.0, 293.0, 293.0, 293.0, 293.0, 293.0, 293.0, 293.0, 293.0, 293.0, 293.0, 293.0, 293.0, 293.0, 293.0, 293.0, 293.0, 293.0, 293.0, 293.0, 293.0, 293.0, 293.0, 293.0, 293.0, 293.0, 293.0, 293.0, 293.0, 293.0, 293.0, 293.0, 293.0, 293.0, 293.0, 293.0, 293.0, 293.0, 293.0, 293.0, 293.0, 293.0, 293.0, 293.0, 293.0, 293.0, 293.0, 293.0, 293.0, 293.0, 293.0, 293.0, 293.0, 293.0, 293.0, 293.0, 294.0, 293.0, 293.0, 293.0, 293.0, 293.0, 293.0, 293.0, 293.0, 293.0, 293.0, 293.0, 293.0, 293.0, 293.0, 293.0, 293.0, 293.0, 293.0, 293.0, 293.0, 293.0, 293.0, 293.0, 293.0, 293.0, 292.0, 293.0, 293.0, 293.0, 292.0, 293.0, 293.0, 293.0, 292.0, 293.0, 293.0, 292.0, 293.0, 293.0, 293.0, 292.0, 292.0, 293.0, 293.0, 293.0, 293.0, 293.0, 292.0, 293.0, 293.0, 292.0, 293.0, 292.0, 293.0, 293.0, 293.0, 293.0, 293.0, 293.0, 293.0, 293.0, 293.0, 293.0, 293.0, 292.0, 293.0, 293.0, 293.0, 293.0, 293.0, 293.0, 292.0, 293.0, 292.0, 292.0, 293.0, 293.0, 292.0, 293.0, 292.0, 292.0, 292.0, 292.0, 292.0],
      "WindowWidth": [637.0, 638.0, 638.0, 638.0, 638.0, 638.0, 638.0, 638.0, 638.0, 638.0, 638.0, 638.0, 638.0, 638.0, 638.0, 638.0, 638.0, 638.0, 638.0, 638.0, 638.0, 638.0, 638.0, 638.0, 638.0, 638.0, 638.0, 638.0, 638.0, 638.0, 638.0, 638.0, 638.0, 638.0, 638.0, 638.0, 638.0, 638.0, 638.0, 638.0, 638.0, 638.0, 638.0, 638.0, 638.0, 638.0, 638.0, 638.0, 638.0, 638.0, 638.0, 638.0, 638.0, 638.0, 637.0, 638.0, 638.0, 638.0, 638.0, 638.0, 637.0, 638.0, 637.0, 638.0, 638.0, 638.0, 638.0, 638.0, 638.0, 638.0, 638.0, 637.0, 638.0, 638.0, 637.0, 637.0, 638.0, 638.0, 638.0, 638.0, 638.0, 637.0, 638.0, 638.0, 637.0, 638.0, 637.0, 638.0, 637.0, 637.0, 638.0, 638.0, 637.0, 637.0, 637.0, 638.0, 638.0, 638.0, 638.0, 638.0, 638.0, 638.0, 638.0, 637.0, 637.0, 637.0, 638.0, 637.0, 637.0, 637.0, 637.0, 638.0, 638.0, 637.0, 638.0, 638.0, 637.0, 637.0, 637.0, 638.0, 637.0, 637.0, 637.0, 637.0, 637.0, 637.0, 637.0, 637.0, 637.0, 637.0, 638.0, 637.0, 637.0, 637.0, 637.0, 637.0, 637.0, 637.0, 637.0, 637.0, 637.0, 636.0, 637.0, 636.0, 637.0, 636.0, 637.0, 637.0, 637.0, 636.0, 637.0, 637.0, 636.0, 637.0, 637.0, 636.0, 636.0, 636.0, 637.0, 636.0, 636.0, 637.0, 638.0, 636.0, 636.0, 636.0, 636.0, 637.0, 636.0, 637.0, 636.0, 636.0, 637.0, 637.0, 636.0, 637.0, 637.0, 637.0, 636.0, 636.0, 636.0, 637.0, 637.0, 636.0, 636.0, 637.0, 637.0, 636.0, 636.0, 636.0, 636.0, 636.0, 636.0, 636.0, 636.0, 636.0, 636.0, 636.0, 636.0, 636.0]
    },
    "slices": {}
  }
}