{
  "AcquisitionMatrixPE": 122,
  "AcquisitionNumber": 1,
  "AcquisitionTime": "09:51:58.195000",
  "BandwidthPerPixelPhaseEncode": 28.76,
  "BaseResolution": 122,
  "BodyPartExamined": "BRAIN",
  "CoilCombinationMethod": "Adaptive Combine",
  "ConsistencyInfo": "N4_VE11C_LATEST_20160120",
  "ConversionSoftware": "dcm2niix",
  "ConversionSoftwareVersion": "v1.0.20220720",
  "DerivedVendorReportedEchoSpacing": 0.000570008,
  "DeviceSerialNumber": "66112",
  "DiffusionScheme": "Monopolar",
  "DwellTime": 2e-06,
  "EchoTime": 0.075,
  "EchoTrainLength": 61,
  "EffectiveEchoSpacing": 0.000285004,
  "FlipAngle": 90,
  "HeudiconvVersion": "0.13.1",
  "ImageOrientationPatientDICOM": [0.983843, -0.179031, 0.00113234, 0.17047, 0.938691, 0.299664],
  "ImageOrientationText": "Tra>Cor(17.2)>Sag(3.1)",
  "ImageType": [
    "ORIGINAL",
    "PRIMARY",
    "DIFFUSION",
    "NONE",
    "ND",
    "NORM"
],
  "ImagingFrequency": 123.252,
  "InPlanePhaseEncodingDirectionDICOM": "COL",
  "InstitutionAddress": "Maynard 3,Hanover,NH,US,03755",
  "InstitutionName": "Dartmouth College - PBS",
  "InstitutionalDepartmentName": "Department",
  "MRAcquisitionType": "2D",
  "MagneticFieldStrength": 3,
  "Manufacturer": "Siemens",
  "ManufacturersModelName": "Prisma",
  "MatrixCoilMode": "GRAPPA",
  "Modality": "MR",
  "NonlinearGradientCorrection": false,
  "ParallelReductionFactorInPlane": 2,
  "PartialFourier": 1,
  "PatientPosition": "HFS",
  "PercentPhaseFOV": 100,
  "PercentSampling": 100,
  "PhaseEncodingDirection": "j-",
  "PhaseEncodingSteps": 122,
  "PhaseResolution": 1,
  "PixelBandwidth": 2050,
  "ProcedureStepDescription": "dbic^QA",
  "ProtocolName": "dwi_acq-DTI-30-p2",
  "PulseSequenceDetails": "%SiemensSeq%\\ep2d_diff",
  "ReceiveCoilActiveElements": "HEA;HEP",
  "ReceiveCoilName": "Head_32",
  "ReconMatrixPE": 122,
  "RefLinesPE": 38,
  "RepetitionTime": 7.7,
  "SAR": 0.102235,
  "ScanOptions": "FS",
  "ScanningSequence": "EP",
  "SequenceName": "*ep_b0",
  "SequenceVariant": "SK\\SP",
  "SeriesDescription": "dwi_acq-DTI-30-p2",
  "SeriesNumber": 8,
  "ShimSetting": [4145, -7701, -7526, 265, -76, -183, 11, 89],
  "SliceThickness": 2,
  "SliceTiming": [3.84375, 0, 3.95312, 0.11719, 4.0625, 0.22656, 4.17188, 0.33594, 4.28125, 0.44531, 4.39062, 0.55469, 4.5, 0.66406, 4.60938, 0.77344, 4.71875, 0.88281, 4.82812, 0.99219, 4.9375, 1.10156, 5.05469, 1.21094, 5.16406, 1.32031, 5.27344, 1.42969, 5.38281, 1.53906, 5.49219, 1.64844, 5.60156, 1.75781, 5.71094, 1.86719, 5.82031, 1.97656, 5.92969, 2.08594, 6.03906, 2.19531, 6.14844, 2.30469, 6.25781, 2.42188, 6.36719, 2.53125, 6.47656, 2.63281, 6.58594, 2.74219, 6.69531, 2.85938, 6.80469, 2.96875, 6.91406, 3.07812, 7.02344, 3.1875, 7.13281, 3.29688, 7.24219, 3.40625, 7.35156, 3.51562, 7.46094, 3.625, 7.57031, 3.73438],
  "SoftwareVersions": "syngo MR E11",
  "SpacingBetweenSlices": 2,
  "SpoilingState": true,
  "StationName": "AWP66112",
  "TotalReadoutTime": 0.0344855,
  "TxRefAmp": 227.849,
  "dcmmeta_affine": [
    [-1.935428500175476, 0.3353502154350281, 0.10942405462265015, 91.47960662841797],
    [0.35219183564186096, 1.8466060161590576, 0.5892581939697266, -151.6348876953125],
    [0.0022275580558925867, -0.5895033478736877, 1.9080886840820312, -25.975296020507812],
    [0.0, 0.0, 0.0, 1.0]
],
  "dcmmeta_reorient_transform": [
    [0.0, -1.0, 0.0, 121.0],
    [1.0, 0.0, 0.0, 0.0],
    [0.0, 0.0, -1.0, 69.0],
    [0.0, 0.0, 0.0, 1.0]
],
  "dcmmeta_shape": [122, 122, 70, 31],
  "dcmmeta_slice_dim": 2,
  "dcmmeta_version": 0.6,
  "global": {
    "const": {
      "AccessionNumber": "qa",
      "AcquisitionMatrix": [122, 0, 0, 122],
      "AngioFlag": "N",
      "BitsAllocated": 16,
      "BitsStored": 12,
      "BodyPartExamined": "BRAIN",
      "Columns": 122,
      "EchoNumbers": 1,
      "EchoTime": 75.0,
      "EchoTrainLength": 61,
      "FlipAngle": 90.0,
      "HighBit": 11,
      "ImageOrientationPatient": [0.98384280969695, -0.179030845413, 0.00113234196014, 0.17046969460657, 0.93869134827445, 0.29966420522885],
      "ImageType": [
        "ORIGINAL",
        "PRIMARY",
        "DIFFUSION",
        "NONE",
        "ND",
        "NORM"
],
      "ImagedNucleus": "1H",
      "ImagingFrequency": 123.252461,
      "InPlanePhaseEncodingDirection": "COL",
      "MRAcquisitionType": "2D",
      "MagneticFieldStrength": 3.0,
      "Manufacturer": "SIEMENS",
      "ManufacturerModelName": "Prisma",
      "Modality": "MR",
      "NumberOfAverages": 1.0,
      "NumberOfPhaseEncodingSteps": 122,
      "PercentPhaseFieldOfView": 100.0,
      "PercentSampling": 100.0,
      "PerformedProcedureStepStartTime": "093138.709000",
      "PhotometricInterpretation": "MONOCHROME2",
      "PixelBandwidth": 2050.0,
      "PixelRepresentation": 0,
      "PixelSpacing": [1.9672131538391, 1.9672131538391],
      "ProtocolName": "dwi_acq-DTI-30-p2",
      "RepetitionTime": 7700.0,
      "Rows": 122,
      "SAR": 0.10223547344731,
      "SamplesPerPixel": 1,
      "ScanOptions": "FS",
      "ScanningSequence": "EP",
      "SequenceVariant": [
        "SK",
        "SP"
],
      "SeriesDescription": "dwi_acq-DTI-30-p2",
      "SeriesNumber": 8,
      "SeriesTime": "095208.694000",
      "SliceThickness": 2.0,
      "SmallestImagePixelValue": 0,
      "SoftwareVersions": "syngo MR E11",
      "SpacingBetweenSlices": 2.0,
      "SpecificCharacterSet": "ISO_IR 100",
      "StudyID": "36",
      "StudyTime": "093138.585000",
      "TransmitCoilName": "Body",
      "VariableFlipAngleFlag": "N",
      "WindowCenterWidthExplanation": "Algo1",
      "dBdt": 0.0},
    "slices": {
      "AcquisitionTime": ["095158.195000", "095154.355000", "095158.305000", "095154.465000", "095158.415000", "095154.575000", "095158.525000", "095154.685000", "095158.635000", "095154.795000", "095158.745000", "095154.905000", "095158.855000", "095155.015000", "095158.962500", "095155.122500", "095159.072500", "095155.232500", "095159.182500", "095155.342500", "095159.292500", "095155.452500", "095159.402500", "095155.562500", "095159.512500", "095155.672500", "095159.622500", "095155.782500", "095159.732500", "095155.892500", "095159.840000", "095156.002500", "095159.950000", "095156.110000", "095200.060000", "095156.220000", "095200.170000", "095156.330000", "095200.280000", "095156.440000", "095200.390000", "095156.550000", "095200.500000", "095156.660000", "095200.610000", "095156.770000", "095200.720000", "095156.880000", "095200.827500", "095156.987500", "095200.937500", "095157.097500", "095201.047500", "095157.207500", "095201.157500", "095157.317500", "095201.267500", "095157.427500", "095201.377500", "095157.537500", "095201.487500", "095157.647500", "095201.597500", "095157.757500", "095201.705000", "095157.867500", "095201.815000", "095157.975000", "095201.925000", "095158.085000", "095205.895000", "095202.055000", "095206.005000", "095202.165000", "095206.115000", "095202.275000", "095206.225000", "095202.385000", "095206.335000", "095202.495000", "095206.445000", "095202.605000", "095206.555000", "095202.715000", "095206.662500", "095202.822500", "095206.772500", "095202.932500", "095206.882500", "095203.042500", "095206.992500", "095203.152500", "095207.102500", "095203.262500", "095207.212500", "095203.372500", "095207.322500", "095203.482500", "095207.432500", "095203.592500", "095207.540000", "095203.702500", "095207.650000", "095203.810000", "095207.760000", "095203.920000", "095207.870000", "095204.030000", "095207.980000", "095204.140000", "095208.090000", "095204.250000", "095208.200000", "095204.360000", "095208.310000", "095204.470000", "095208.420000", "095204.580000", "095208.527500", "095204.687500", "095208.637500", "095204.797500", "095208.747500", "095204.907500", "095208.857500", "095205.017500", "095208.967500", "095205.127500", "095209.077500", "095205.237500", "095209.187500", "095205.347500", "095209.297500", "095205.457500", "095209.405000", "095205.567500", "095209.515000", "095205.675000", "095209.625000", "095205.785000", "095213.595000", "095209.755000", "095213.705000", "095209.865000", "095213.815000", "095209.975000", "095213.925000", "095210.085000", "095214.035000", "095210.195000", "095214.145000", "095210.305000", "095214.255000", "095210.415000", "095214.362500", "095210.522500", "095214.472500", "095210.632500", "095214.582500", "095210.742500", "095214.692500", "095210.852500", "095214.802500", "095210.962500", "095214.912500", "095211.072500", "095215.022500", "095211.182500", "095215.132500", "095211.292500", "095215.240000", "095211.402500", "095215.350000", "095211.510000", "095215.460000", "095211.620000", "095215.570000", "095211.730000", "095215.680000", "095211.840000", "095215.790000", "095211.950000", "095215.900000", "095212.060000", "095216.010000", "095212.170000", "095216.120000", "095212.280000", "095216.227500", "095212.387500", "095216.337500", "095212.497500", "095216.447500", "095212.607500", "095216.557500", "095212.717500", "095216.667500", "095212.827500", "095216.777500", "095212.937500", "095216.887500", "095213.047500", "095216.997500", "095213.157500", "095217.105000", "095213.267500", "095217.215000", "095213.375000", "095217.325000", "095213.485000", "095221.295000", "095217.455000", "095221.405000", "095217.565000", "095221.515000", "095217.675000", "095221.625000", "095217.785000", "095221.735000", "095217.895000", "095221.845000", "095218.005000", "095221.955000", "095218.115000", "095222.062500", "095218.222500", "095222.172500", "095218.332500", "095222.282500", "095218.442500", "095222.392500", "095218.552500", "095222.502500", "095218.662500", "095222.612500", "095218.772500", "095222.722500", "095218.882500", "095222.832500", "095218.992500", "095222.940000", "095219.102500", "095223.050000", "095219.210000", "095223.160000", "095219.320000", "095223.270000", "095219.430000", "095223.380000", "095219.540000", "095223.490000", "095219.650000", "095223.600000", "095219.760000", "095223.710000", "095219.870000", "095223.820000", "095219.980000", "095223.927500", "095220.087500", "095224.037500", "095220.197500", "095224.147500", "095220.307500", "095224.257500", "095220.417500", "095224.367500", "095220.527500", "095224.477500", "095220.637500", "095224.587500", "095220.747500", "095224.697500", "095220.857500", "095224.805000", "095220.967500", "095224.915000", "095221.075000", "095225.025000", "095221.185000", "095228.995000", "095225.155000", "095229.105000", "095225.265000", "095229.215000", "095225.375000", "095229.325000", "095225.485000", "095229.435000", "095225.595000", "095229.545000", "095225.705000", "095229.655000", "095225.815000", "095229.762500", "095225.922500", "095229.872500", "095226.032500", "095229.982500", "095226.142500", "095230.092500", "095226.252500", "095230.202500", "095226.362500", "095230.312500", "095226.472500", "095230.422500", "095226.582500", "095230.532500", "095226.692500", "095230.640000", "095226.802500", "095230.750000", "095226.910000", "095230.860000", "095227.020000", "095230.970000", "095227.130000", "095231.080000", "095227.240000", "095231.190000", "095227.350000", "095231.300000", "095227.460000", "095231.410000", "095227.570000", "095231.520000", "095227.680000", "095231.627500", "095227.787500", "095231.737500", "095227.897500", "095231.847500", "095228.007500", "095231.957500", "095228.117500", "095232.067500", "095228.227500", "095232.177500", "095228.337500", "095232.287500", "095228.447500", "095232.397500", "095228.557500", "095232.505000", "095228.667500", "095232.615000", "095228.775000", "095232.725000", "095228.885000", "095236.695000", "095232.855000", "095236.805000", "095232.965000", "095236.915000", "095233.075000", "095237.025000", "095233.185000", "095237.135000", "095233.295000", "095237.245000", "095233.405000", "095237.355000", "095233.515000", "095237.462500", "095233.622500", "095237.572500", "095233.732500", "095237.682500", "095233.842500", "095237.792500", "095233.952500", "095237.902500", "095234.062500", "095238.012500", "095234.172500", "095238.122500", "095234.282500", "095238.232500", "095234.392500", "095238.340000", "095234.502500", "095238.450000", "095234.610000", "095238.560000", "095234.720000", "095238.670000", "095234.830000", "095238.780000", "095234.940000", "095238.890000", "095235.050000", "095239.000000", "095235.160000", "095239.110000", "095235.270000", "095239.220000", "095235.380000", "095239.327500", "095235.487500", "095239.437500", "095235.597500", "095239.547500", "095235.707500", "095239.657500", "095235.817500", "095239.767500", "095235.927500", "095239.877500", "095236.037500", "095239.987500", "095236.147500", "095240.097500", "095236.257500", "095240.205000", "095236.367500", "095240.315000", "095236.475000", "095240.425000", "095236.585000", "095244.395000", "095240.555000", "095244.505000", "095240.665000", "095244.615000", "095240.775000", "095244.725000", "095240.885000", "095244.835000", "095240.995000", "095244.945000", "095241.105000", "095245.055000", "095241.215000", "095245.162500", "095241.322500", "095245.272500", "095241.432500", "095245.382500", "095241.542500", "095245.492500", "095241.652500", "095245.602500", "095241.762500", "095245.712500", "095241.872500", "095245.822500", "095241.982500", "095245.932500", "095242.092500", "095246.040000", "095242.202500", "095246.150000", "095242.310000", "095246.260000", "095242.420000", "095246.370000", "095242.530000", "095246.480000", "095242.640000", "095246.590000", "095242.750000", "095246.700000", "095242.860000", "095246.810000", "095242.970000", "095246.920000", "095243.080000", "095247.027500", "095243.187500", "095247.137500", "095243.297500", "095247.247500", "095243.407500", "095247.357500", "095243.517500", "095247.467500", "095243.627500", "095247.577500", "095243.737500", "095247.687500", "095243.847500", "095247.797500", "095243.957500", "095247.905000", "095244.067500", "095248.015000", "095244.175000", "095248.125000", "095244.285000", "095252.095000", "095248.255000", "095252.205000", "095248.365000", "095252.315000", "095248.475000", "095252.425000", "095248.585000", "095252.535000", "095248.695000", "095252.645000", "095248.805000", "095252.755000", "095248.915000", "095252.862500", "095249.022500", "095252.972500", "095249.132500", "095253.082500", "095249.242500", "095253.192500", "095249.352500", "095253.302500", "095249.462500", "095253.412500", "095249.572500", "095253.522500", "095249.682500", "095253.632500", "095249.792500", "095253.740000", "095249.902500", "095253.850000", "095250.010000", "095253.960000", "095250.120000", "095254.070000", "095250.230000", "095254.180000", "095250.340000", "095254.290000", "095250.450000", "095254.400000", "095250.560000", "095254.510000", "095250.670000", "095254.620000", "095250.780000", "095254.727500", "095250.887500", "095254.837500", "095250.997500", "095254.947500", "095251.107500", "095255.057500", "095251.217500", "095255.167500", "095251.327500", "095255.277500", "095251.437500", "095255.387500", "095251.547500", "095255.497500", "095251.657500", "095255.605000", "095251.767500", "095255.715000", "095251.875000", "095255.825000", "095251.985000", "095259.795000", "095255.955000", "095259.905000", "095256.065000", "095300.015000", "095256.175000", "095300.125000", "095256.285000", "095300.235000", "095256.395000", "095300.345000", "095256.505000", "095300.455000", "095256.615000", "095300.562500", "095256.722500", "095300.672500", "095256.832500", "095300.782500", "095256.942500", "095300.892500", "095257.052500", "095301.002500", "095257.162500", "095301.112500", "095257.272500", "095301.222500", "095257.382500", "095301.332500", "095257.492500", "095301.440000", "095257.602500", "095301.550000", "095257.710000", "095301.660000", "095257.820000", "095301.770000", "095257.930000", "095301.880000", "095258.040000", "095301.990000", "095258.150000", "095302.100000", "095258.260000", "095302.210000", "095258.370000", "095302.320000", "095258.480000", "095302.427500", "095258.587500", "095302.537500", "095258.697500", "095302.647500", "095258.807500", "095302.757500", "095258.917500", "095302.867500", "095259.027500", "095302.977500", "095259.137500", "095303.087500", "095259.247500", "095303.197500", "095259.357500", "095303.305000", "095259.467500", "095303.415000", "095259.575000", "095303.525000", "095259.685000", "095307.495000", "095303.655000", "095307.605000", "095303.765000", "095307.715000", "095303.875000", "095307.825000", "095303.985000", "095307.935000", "095304.095000", "095308.045000", "095304.205000", "095308.155000", "095304.315000", "095308.262500", "095304.422500", "095308.372500", "095304.532500", "095308.482500", "095304.642500", "095308.592500", "095304.752500", "095308.702500", "095304.862500", "095308.812500", "095304.972500", "095308.922500", "095305.082500", "095309.032500", "095305.192500", "095309.140000", "095305.302500", "095309.250000", "095305.410000", "095309.360000", "095305.520000", "095309.470000", "095305.630000", "095309.580000", "095305.740000", "095309.690000", "095305.850000", "095309.800000", "095305.960000", "095309.910000", "095306.070000", "095310.020000", "095306.180000", "095310.127500", "095306.287500", "095310.237500", "095306.397500", "095310.347500", "095306.507500", "095310.457500", "095306.617500", "095310.567500", "095306.727500", "095310.677500", "095306.837500", "095310.787500", "095306.947500", "095310.897500", "095307.057500", "095311.005000", "095307.167500", "095311.115000", "095307.275000", "095311.225000", "095307.385000", "095315.195000", "095311.355000", "095315.305000", "095311.465000", "095315.415000", "095311.575000", "095315.525000", "095311.685000", "095315.635000", "095311.795000", "095315.745000", "095311.905000", "095315.855000", "095312.015000", "095315.962500", "095312.122500", "095316.072500", "095312.232500", "095316.182500", "095312.342500", "095316.292500", "095312.452500", "095316.402500", "095312.562500", "095316.512500", "095312.672500", "095316.622500", "095312.782500", "095316.732500", "095312.892500", "095316.840000", "095313.002500", "095316.950000", "095313.110000", "095317.060000", "095313.220000", "095317.170000", "095313.330000", "095317.280000", "095313.440000", "095317.390000", "095313.550000", "095317.500000", "095313.660000", "095317.610000", "095313.770000", "095317.720000", "095313.880000", "095317.827500", "095313.987500", "095317.937500", "095314.097500", "095318.047500", "095314.207500", "095318.157500", "095314.317500", "095318.267500", "095314.427500", "095318.377500", "095314.537500", "095318.487500", "095314.647500", "095318.597500", "095314.757500", "095318.705000", "095314.867500", "095318.815000", "095314.975000", "095318.925000", "095315.085000", "095322.895000", "095319.055000", "095323.005000", "095319.165000", "095323.115000", "095319.275000", "095323.225000", "095319.385000", "095323.335000", "095319.495000", "095323.445000", "095319.605000", "095323.555000", "095319.715000", "095323.662500", "095319.822500", "095323.772500", "095319.932500", "095323.882500", "095320.042500", "095323.992500", "095320.152500", "095324.102500", "095320.262500", "095324.212500", "095320.372500", "095324.322500", "095320.482500", "095324.432500", "095320.592500", "095324.540000", "095320.702500", "095324.650000", "095320.810000", "095324.760000", "095320.920000", "095324.870000", "095321.030000", "095324.980000", "095321.140000", "095325.090000", "095321.250000", "095325.200000", "095321.360000", "095325.310000", "095321.470000", "095325.420000", "095321.580000", "095325.527500", "095321.687500", "095325.637500", "095321.797500", "095325.747500", "095321.907500", "095325.857500", "095322.017500", "095325.967500", "095322.127500", "095326.077500", "095322.237500", "095326.187500", "095322.347500", "095326.297500", "095322.457500", "095326.405000", "095322.567500", "095326.515000", "095322.675000", "095326.625000", "095322.785000", "095330.595000", "095326.755000", "095330.705000", "095326.865000", "095330.815000", "095326.975000", "095330.925000", "095327.085000", "095331.035000", "095327.195000", "095331.145000", "095327.305000", "095331.255000", "095327.415000", "095331.362500", "095327.522500", "095331.472500", "095327.632500", "095331.582500", "095327.742500", "095331.692500", "095327.852500", "095331.802500", "095327.962500", "095331.912500", "095328.072500", "095332.022500", "095328.182500", "095332.132500", "095328.292500", "095332.240000", "095328.402500", "095332.350000", "095328.510000", "095332.460000", "095328.620000", "095332.570000", "095328.730000", "095332.680000", "095328.840000", "095332.790000", "095328.950000", "095332.900000", "095329.060000", "095333.010000", "095329.170000", "095333.120000", "095329.280000", "095333.227500", "095329.387500", "095333.337500", "095329.497500", "095333.447500", "095329.607500", "095333.557500", "095329.717500", "095333.667500", "095329.827500", "095333.777500", "095329.937500", "095333.887500", "095330.047500", "095333.997500", "095330.157500", "095334.105000", "095330.267500", "095334.215000", "095330.375000", "095334.325000", "095330.485000", "095338.295000", "095334.455000", "095338.405000", "095334.565000", "095338.515000", "095334.675000", "095338.625000", "095334.785000", "095338.735000", "095334.895000", "095338.845000", "095335.005000", "095338.955000", "095335.115000", "095339.062500", "095335.222500", "095339.172500", "095335.332500", "095339.282500", "095335.442500", "095339.392500", "095335.552500", "095339.502500", "095335.662500", "095339.612500", "095335.772500", "095339.722500", "095335.882500", "095339.832500", "095335.992500", "095339.940000", "095336.102500", "095340.050000", "095336.210000", "095340.160000", "095336.320000", "095340.270000", "095336.430000", "095340.380000", "095336.540000", "095340.490000", "095336.650000", "095340.600000", "095336.760000", "095340.710000", "095336.870000", "095340.820000", "095336.980000", "095340.927500", "095337.087500", "095341.037500", "095337.197500", "095341.147500", "095337.307500", "095341.257500", "095337.417500", "095341.367500", "095337.527500", "095341.477500", "095337.637500", "095341.587500", "095337.747500", "095341.697500", "095337.857500", "095341.805000", "095337.967500", "095341.915000", "095338.075000", "095342.025000", "095338.185000", "095345.995000", "095342.155000", "095346.105000", "095342.265000", "095346.215000", "095342.375000", "095346.325000", "095342.485000", "095346.435000", "095342.595000", "095346.545000", "095342.705000", "095346.655000", "095342.815000", "095346.762500", "095342.922500", "095346.872500", "095343.032500", "095346.982500", "095343.142500", "095347.092500", "095343.252500", "095347.202500", "095343.362500", "095347.312500", "095343.472500", "095347.422500", "095343.582500", "095347.532500", "095343.692500", "095347.640000", "095343.802500", "095347.750000", "095343.910000", "095347.860000", "095344.020000", "095347.970000", "095344.130000", "095348.080000", "095344.240000", "095348.190000", "095344.350000", "095348.300000", "095344.460000", "095348.410000", "095344.570000", "095348.520000", "095344.680000", "095348.627500", "095344.787500", "095348.737500", "095344.897500", "095348.847500", "095345.007500", "095348.957500", "095345.117500", "095349.067500", "095345.227500", "095349.177500", "095345.337500", "095349.287500", "095345.447500", "095349.397500", "095345.557500", "095349.505000", "095345.667500", "095349.615000", "095345.775000", "095349.725000", "095345.885000", "095353.695000", "095349.855000", "095353.805000", "095349.965000", "095353.915000", "095350.075000", "095354.025000", "095350.185000", "095354.135000", "095350.295000", "095354.245000", "095350.405000", "095354.355000", "095350.515000", "095354.462500", "095350.622500", "095354.572500", "095350.732500", "095354.682500", "095350.842500", "095354.792500", "095350.952500", "095354.902500", "095351.062500", "095355.012500", "095351.172500", "095355.122500", "095351.282500", "095355.232500", "095351.392500", "095355.340000", "095351.502500", "095355.450000", "095351.610000", "095355.560000", "095351.720000", "095355.670000", "095351.830000", "095355.780000", "095351.940000", "095355.890000", "095352.050000", "095356.000000", "095352.160000", "095356.110000", "095352.270000", "095356.220000", "095352.380000", "095356.327500", "095352.487500", "095356.437500", "095352.597500", "095356.547500", "095352.707500", "095356.657500", "095352.817500", "095356.767500", "095352.927500", "095356.877500", "095353.037500", "095356.987500", "095353.147500", "095357.097500", "095353.257500", "095357.205000", "095353.367500", "095357.315000", "095353.475000", "095357.425000", "095353.585000", "095401.395000", "095357.555000", "095401.505000", "095357.665000", "095401.615000", "095357.775000", "095401.725000", "095357.885000", "095401.835000", "095357.995000", "095401.945000", "095358.105000", "095402.055000", "095358.215000", "095402.162500", "095358.322500", "095402.272500", "095358.432500", "095402.382500", "095358.542500", "095402.492500", "095358.652500", "095402.602500", "095358.762500", "095402.712500", "095358.872500", "095402.822500", "095358.982500", "095402.932500", "095359.092500", "095403.040000", "095359.202500", "095403.150000", "095359.310000", "095403.260000", "095359.420000", "095403.370000", "095359.530000", "095403.480000", "095359.640000", "095403.590000", "095359.750000", "095403.700000", "095359.860000", "095403.810000", "095359.970000", "095403.920000", "095400.080000", "095404.027500", "095400.187500", "095404.137500", "095400.297500", "095404.247500", "095400.407500", "095404.357500", "095400.517500", "095404.467500", "095400.627500", "095404.577500", "095400.737500", "095404.687500", "095400.847500", "095404.797500", "095400.957500", "095404.905000", "095401.067500", "095405.015000", "095401.175000", "095405.125000", "095401.285000", "095409.095000", "095405.255000", "095409.205000", "095405.365000", "095409.315000", "095405.475000", "095409.425000", "095405.585000", "095409.535000", "095405.695000", "095409.645000", "095405.805000", "095409.755000", "095405.915000", "095409.862500", "095406.022500", "095409.972500", "095406.132500", "095410.082500", "095406.242500", "095410.192500", "095406.352500", "095410.302500", "095406.462500", "095410.412500", "095406.572500", "095410.522500", "095406.682500", "095410.632500", "095406.792500", "095410.740000", "095406.902500", "095410.850000", "095407.010000", "095410.960000", "095407.120000", "095411.070000", "095407.230000", "095411.180000", "095407.340000", "095411.290000", "095407.450000", "095411.400000", "095407.560000", "095411.510000", "095407.670000", "095411.620000", "095407.780000", "095411.727500", "095407.887500", "095411.837500", "095407.997500", "095411.947500", "095408.107500", "095412.057500", "095408.217500", "095412.167500", "095408.327500", "095412.277500", "095408.437500", "095412.387500", "095408.547500", "095412.497500", "095408.657500", "095412.605000", "095408.767500", "095412.715000", "095408.875000", "095412.825000", "095408.985000", "095416.795000", "095412.955000", "095416.905000", "095413.065000", "095417.015000", "095413.175000", "095417.125000", "095413.285000", "095417.235000", "095413.395000", "095417.345000", "095413.505000", "095417.455000", "095413.615000", "095417.562500", "095413.722500", "095417.672500", "095413.832500", "095417.782500", "095413.942500", "095417.892500", "095414.052500", "095418.002500", "095414.162500", "095418.112500", "095414.272500", "095418.222500", "095414.382500", "095418.332500", "095414.492500", "095418.440000", "095414.602500", "095418.550000", "095414.710000", "095418.660000", "095414.820000", "095418.770000", "095414.930000", "095418.880000", "095415.040000", "095418.990000", "095415.150000", "095419.100000", "095415.260000", "095419.210000", "095415.370000", "095419.320000", "095415.480000", "095419.427500", "095415.587500", "095419.537500", "095415.697500", "095419.647500", "095415.807500", "095419.757500", "095415.917500", "095419.867500", "095416.027500", "095419.977500", "095416.137500", "095420.087500", "095416.247500", "095420.197500", "095416.357500", "095420.305000", "095416.467500", "095420.415000", "095416.575000", "095420.525000", "095416.685000", "095424.495000", "095420.655000", "095424.605000", "095420.765000", "095424.715000", "095420.875000", "095424.825000", "095420.985000", "095424.935000", "095421.095000", "095425.045000", "095421.205000", "095425.155000", "095421.315000", "095425.262500", "095421.422500", "095425.372500", "095421.532500", "095425.482500", "095421.642500", "095425.592500", "095421.752500", "095425.702500", "095421.862500", "095425.812500", "095421.972500", "095425.922500", "095422.082500", "095426.032500", "095422.192500", "095426.140000", "095422.302500", "095426.250000", "095422.410000", "095426.360000", "095422.520000", "095426.470000", "095422.630000", "095426.580000", "095422.740000", "095426.690000", "095422.850000", "095426.800000", "095422.960000", "095426.910000", "095423.070000", "095427.020000", "095423.180000", "095427.127500", "095423.287500", "095427.237500", "095423.397500", "095427.347500", "095423.507500", "095427.457500", "095423.617500", "095427.567500", "095423.727500", "095427.677500", "095423.837500", "095427.787500", "095423.947500", "095427.897500", "095424.057500", "095428.005000", "095424.167500", "095428.115000", "095424.275000", "095428.225000", "095424.385000", "095432.195000", "095428.355000", "095432.305000", "095428.465000", "095432.415000", "095428.575000", "095432.525000", "095428.685000", "095432.635000", "095428.795000", "095432.745000", "095428.905000", "095432.855000", "095429.015000", "095432.962500", "095429.122500", "095433.072500", "095429.232500", "095433.182500", "095429.342500", "095433.292500", "095429.452500", "095433.402500", "095429.562500", "095433.512500", "095429.672500", "095433.622500", "095429.782500", "095433.732500", "095429.892500", "095433.840000", "095430.002500", "095433.950000", "095430.110000", "095434.060000