{
  "AcquisitionMatrixPE": 80,
  "AcquisitionNumber": 1,
  "AcquisitionTime": "09:34:26.400000",
  "BandwidthPerPixelPhaseEncode": 25,
  "BaseResolution": 80,
  "BodyPartExamined": "BRAIN",
  "CoilCombinationMethod": "Sum of Squares",
  "ConsistencyInfo": "N4_VE11E_LATEST_20181129",
  "ConversionSoftware": "dcm2niix",
  "ConversionSoftwareVersion": "v1.0.20220720",
  "DerivedVendorReportedEchoSpacing": 0.0005,
  "DeviceSerialNumber": "66112",
  "DwellTime": 2.7e-06,
  "EchoTime": 0.03,
  "EchoTrainLength": 80,
  "EffectiveEchoSpacing": 0.0005,
  "FlipAngle": 77,
  "HeudiconvVersion": "0.13.1",
  "ImageOrientationPatientDICOM": [0.986346, 0.16448, 0.00820841, -0.159223, 0.939724, 0.302599],
  "ImageOrientationText": "Tra>Cor(17.5)>Sag(-2.4)",
  "ImageType": [
    "ORIGINAL",
    "PRIMARY",
    "M",
    "ND",
    "NORM",
    "MOSAIC"
],
  "ImagingFrequency": 123.259,
  "InPlanePhaseEncodingDirectionDICOM": "COL",
  "InstitutionAddress": "Maynard 3,Hanover,NH,US,03755",
  "InstitutionName": "Dartmouth College - PBS",
  "InstitutionalDepartmentName": "Department",
  "MRAcquisitionType": "2D",
  "MagneticFieldStrength": 3,
  "Manufacturer": "Siemens",
  "ManufacturersModelName": "Prisma",
  "MatrixCoilMode": "SENSE",
  "Modality": "MR",
  "NonlinearGradientCorrection": false,
  "PartialFourier": 1,
  "PatientPosition": "HFS",
  "PercentPhaseFOV": 100,
  "PercentSampling": 100,
  "PhaseEncodingDirection": "j-",
  "PhaseEncodingSteps": 80,
  "PhaseResolution": 1,
  "PixelBandwidth": 2315,
  "ProcedureStepDescription": "dbic^QA",
  "ProtocolName": "func-bold_fa-77",
  "PulseSequenceDetails": "%SiemensSeq%\\ep2d_bold",
  "ReceiveCoilActiveElements": "HEA;HEP",
  "ReceiveCoilName": "Head_32",
  "ReconMatrixPE": 80,
  "RepetitionTime": 2,
  "SAR": 0.0369117,
  "ScanOptions": "FS",
  "ScanningSequence": "EP",
  "SequenceName": "*epfid2d1_80",
  "SequenceVariant": "SK",
  "SeriesDescription": "func-bold_fa-77",
  "SeriesNumber": 7,
  "ShimSetting": [4220, -7734, -7501, -59, -130, -40, -25, 76],
  "SliceThickness": 3.5,
  "SliceTiming": [0.99, 0, 1.055, 0.065, 1.1225, 0.1325, 1.1875, 0.1975, 1.255, 0.265, 1.32, 0.33, 1.385, 0.395, 1.4525, 0.4625, 1.5175, 0.5275, 1.585, 0.595, 1.65, 0.66, 1.715, 0.725, 1.7825, 0.7925, 1.8475, 0.8575, 1.915, 0.925],
  "SoftwareVersions": "syngo MR E11",
  "SpacingBetweenSlices": 3.99,
  "StationName": "AWP66112",
  "TotalReadoutTime": 0.0395,
  "TxRefAmp": 224.892,
  "dcmmeta_affine": [
    [-2.9590389728546143, -0.477669894695282, -0.16781002283096313, 141.37843322753906],
    [-0.4934386909008026, 2.8191733360290527, 1.1960984468460083, -105.60029602050781],
    [0.02462523803114891, -0.9077959656715393, 3.802800178527832, -26.238964080810547],
    [0.0, 0.0, 0.0, 1.0]
],
  "dcmmeta_reorient_transform": [
    [0.0, -1.0, 0.0, 79.0],
    [1.0, 0.0, 0.0, 0.0],
    [0.0, 0.0, 1.0, 0.0],
    [0.0, 0.0, 0.0, 1.0]
],
  "dcmmeta_shape": [80, 80, 30, 200],
  "dcmmeta_slice_dim": 2,
  "dcmmeta_version": 0.6,
  "global": {
    "const": {
      "AccessionNumber": "qa",
      "AcquisitionMatrix": [80, 0, 0, 80],
      "AngioFlag": "N",
      "BitsAllocated": 16,
      "BitsStored": 12,
      "BodyPartExamined": "BRAIN",
      "Columns": 480,
      "EchoNumbers": 1,
      "EchoTime": 30.0,
      "EchoTrainLength": 80,
      "FlipAngle": 77.0,
      "HighBit": 11,
      "ImageOrientationPatient": [0.98634633677804, 0.16447956069339, 0.0082084126755, -0.1592232964085, 0.9397244242627, 0.3025986588287],
      "ImagePositionPatient": [-599.91633253909, -779.63678299437, -284.43908861437],
      "ImageType": [
        "ORIGINAL",
        "PRIMARY",
        "M",
        "ND",
        "NORM",
        "MOSAIC"
],
      "ImagedNucleus": "1H",
      "ImagingFrequency": 123.259118,
      "InPlanePhaseEncodingDirection": "COL",
      "MRAcquisitionType": "2D",
      "MagneticFieldStrength": 3.0,
      "Manufacturer": "SIEMENS",
      "ManufacturerModelName": "Prisma",
      "Modality": "MR",
      "NumberOfAverages": 1.0,
      "NumberOfPhaseEncodingSteps": 80,
      "PercentPhaseFieldOfView": 100.0,
      "PercentSampling": 100.0,
      "PerformedProcedureStepStartTime": "091453.758000",
      "PhotometricInterpretation": "MONOCHROME2",
      "PixelBandwidth": 2315.0,
      "PixelRepresentation": 0,
      "PixelSpacing": [3.0, 3.0],
      "ProtocolName": "func-bold_fa-77",
      "RepetitionTime": 2000.0,
      "Rows": 480,
      "SAR": 0.03691171044947,
      "SamplesPerPixel": 1,
      "ScanOptions": "FS",
      "ScanningSequence": "EP",
      "SequenceName": "*epfid2d1_80",
      "SequenceVariant": "SK",
      "SeriesDescription": "func-bold_fa-77",
      "SeriesNumber": 7,
      "SeriesTime": "093513.830000",
      "SliceLocation": -62.610175597055,
      "SliceThickness": 3.5,
      "SmallestImagePixelValue": 0,
      "SoftwareVersions": "syngo MR E11",
      "SpacingBetweenSlices": 3.9900000728039,
      "SpecificCharacterSet": "ISO_IR 100",
      "StudyID": "24",
      "StudyTime": "091453.706000",
      "TransmitCoilName": "Body",
      "VariableFlipAngleFlag": "N",
      "WindowCenterWidthExplanation": "Algo1"
    },
    "slices": {}
  },
  "time": {
    "samples": {
      "AcquisitionNumber": [1, 2, 3, 4, 5, 6, 7, 8, 9, 10, 11, 12, 13, 14, 15, 16, 17, 18, 19, 20, 21, 22, 23, 24, 25, 26, 27, 28, 29, 30, 31, 32, 33, 34, 35, 36, 37, 38, 39, 40, 41, 42, 43, 44, 45, 46, 47, 48, 49, 50, 51, 52, 53, 54, 55, 56, 57, 58, 59, 60, 61, 62, 63, 64, 65, 66, 67, 68, 69, 70, 71, 72, 73, 74, 75, 76, 77, 78, 79, 80, 81, 82, 83, 84, 85, 86, 87, 88, 89, 90, 91, 92, 93, 94, 95, 96, 97, 98, 99, 100, 101, 102, 103, 104, 105, 106, 107, 108, 109, 110, 111, 112, 113, 114, 115, 116, 117, 118, 119, 120, 121, 122, 123, 124, 125, 126, 127, 128, 129, 130, 131, 132, 133, 134, 135, 136, 137, 138, 139, 140, 141, 142, 143, 144, 145, 146, 147, 148, 149, 150, 151, 152, 153, 154, 155, 156, 157, 158, 159, 160, 161, 162, 163, 164, 165, 166, 167, 168, 169, 170, 171, 172, 173, 174, 175, 176, 177, 178, 179, 180, 181, 182, 183, 184, 185, 186, 187, 188, 189, 190, 191, 192, 193, 194, 195, 196, 197, 198, 199, 200],
      "AcquisitionTime": ["093426.400000", "093428.400000", "093430.400000", "093432.400000", "093434.400000", "093436.400000", "093438.400000", "093440.400000", "093442.400000", "093444.400000", "093446.400000", "093448.400000", "093450.400000", "093452.400000", "093454.400000", "093456.400000", "093458.400000", "093500.400000", "093502.400000", "093504.400000", "093506.400000", "093508.400000", "093510.400000", "093512.400000", "093514.400000", "093516.400000", "093518.400000", "093520.400000", "093522.400000", "093524.400000", "093526.400000", "093528.400000", "093530.400000", "093532.400000", "093534.400000", "093536.400000", "093538.400000", "093540.400000", "093542.400000", "093544.400000", "093546.400000", "093548.400000", "093550.400000", "093552.400000", "093554.400000", "093556.400000", "093558.400000", "093600.400000", "093602.400000", "093604.400000", "093606.400000", "093608.400000", "093610.400000", "093612.400000", "093614.400000", "093616.400000", "093618.400000", "093620.400000", "093622.400000", "093624.400000", "093626.400000", "093628.400000", "093630.400000", "093632.400000", "093634.400000", "093636.400000", "093638.400000", "093640.400000", "093642.400000", "093644.400000", "093646.400000", "093648.400000", "093650.400000", "093652.400000", "093654.400000", "093656.400000", "093658.400000", "093700.400000", "093702.400000", "093704.400000", "093706.400000", "093708.400000", "093710.400000", "093712.400000", "093714.400000", "093716.400000", "093718.400000", "093720.400000", "093722.400000", "093724.400000", "093726.400000", "093728.400000", "093730.400000", "093732.400000", "093734.400000", "093736.400000", "093738.400000", "093740.400000", "093742.400000", "093744.400000", "093746.400000", "093748.400000", "093750.400000", "093752.400000", "093754.400000", "093756.400000", "093758.400000", "093800.400000", "093802.400000", "093804.400000", "093806.400000", "093808.400000", "093810.400000", "093812.400000", "093814.400000", "093816.400000", "093818.400000", "093820.400000", "093822.400000", "093824.400000", "093826.400000", "093828.400000", "093830.400000", "093832.400000", "093834.400000", "093836.400000", "093838.400000", "093840.400000", "093842.400000", "093844.400000", "093846.400000", "093848.400000", "093850.400000", "093852.400000", "093854.400000", "093856.400000", "093858.400000", "093900.400000", "093902.400000", "093904.400000", "093906.400000", "093908.400000", "093910.400000", "093912.400000", "093914.400000", "093916.400000", "093918.400000", "093920.400000", "093922.400000", "093924.400000", "093926.400000", "093928.400000", "093930.400000", "093932.400000", "093934.400000", "093936.400000", "093938.400000", "093940.400000", "093942.400000", "093944.400000", "093946.400000", "093948.400000", "093950.400000", "093952.400000", "093954.400000", "093956.400000", "093958.400000", "094000.400000", "094002.400000", "094004.400000", "094006.400000", "094008.400000", "094010.400000", "094012.400000", "094014.400000", "094016.400000", "094018.400000", "094020.400000", "094022.400000", "094024.400000", "094026.400000", "094028.400000", "094030.400000", "094032.400000", "094034.400000", "094036.400000", "094038.400000", "094040.400000", "094042.400000", "094044.400000", "094046.400000", "094048.400000", "094050.400000", "094052.400000", "094054.400000", "094056.400000", "094058.400000", "094100.400000", "094102.400000", "094104.400000"],
      "ContentTime": ["093513.833000", "093513.836000", "093513.838000", "093513.841000", "093513.843000", "093513.853000", "093513.856000", "093513.865000", "093513.868000", "093513.870000", "093513.873000", "093513.875000", "093513.877000", "093513.890000", "093513.893000", "093513.895000", "093513.897000", "093513.900000", "093513.902000", "093513.904000", "093513.907000", "093513.909000", "093513.911000", "093513.914000", "093533.828000", "093533.831000", "093533.833000", "093533.841000", "093533.843000", "093533.845000", "093533.848000", "093533.850000", "093533.852000", "093613.828000", "093613.831000", "093613.833000", "093613.835000", "093613.838000", "093613.840000", "093613.842000", "093613.851000", "093613.853000", "093613.855000", "093613.858000", "093613.861000", "093613.863000", "093613.866000", "093613.868000", "093613.870000", "093613.873000", "093613.875000", "093613.877000", "093613.884000", "093653.828000", "093653.831000", "093653.833000", "093653.835000", "093653.838000", "093653.840000", "093653.842000", "093653.845000", "093653.847000", "093653.849000", "093653.852000", "093653.854000", "093653.856000", "093653.859000", "093653.861000", "093653.864000", "093653.867000", "093653.869000", "093653.872000", "093653.874000", "093733.828000", "093733.831000", "093733.833000", "093733.835000", "093733.838000", "093733.840000", "093733.842000", "093733.845000", "093733.847000", "093733.849000", "093733.852000", "093733.854000", "093733.857000", "093733.859000", "093733.861000", "093733.864000", "093733.866000", "093733.869000", "093733.871000", "093733.873000", "093813.828000", "093813.831000", "093813.833000", "093813.835000", "093813.838000", "093813.840000", "093813.842000", "093813.845000", "093813.847000", "093813.849000", "093813.852000", "093813.854000", "093813.856000", "093813.858000", "093813.861000", "093813.875000", "093813.877000", "093813.880000", "093813.882000", "093813.884000", "093853.829000", "093853.832000", "093853.834000", "093853.836000", "093853.839000", "093853.841000", "093853.843000", "093853.845000", "093853.848000", "093853.850000", "093853.852000", "093853.855000", "093853.857000", "093853.859000", "093853.862000", "093853.864000", "093853.884000", "093853.886000", "093853.888000", "093853.890000", "093933.828000", "093933.831000", "093933.833000", "093933.835000", "093933.838000", "093933.840000", "093933.842000", "093933.844000", "093933.847000", "093933.849000", "093933.851000", "093933.854000", "093933.856000", "093933.858000", "093933.861000", "093933.864000", "093933.866000", "093933.869000", "093933.871000", "093933.873000", "094013.828000", "094013.831000", "094013.833000", "094013.835000", "094013.838000", "094013.840000", "094013.842000", "094013.844000", "094013.847000", "094013.849000", "094013.851000", "094013.854000", "094013.856000", "094013.859000", "094013.862000", "094013.864000", "094013.866000", "094013.869000", "094013.871000", "094013.873000", "094053.828000", "094053.877000", "094053.880000", "094053.882000", "094053.884000", "094053.887000", "094053.889000", "094053.891000", "094053.893000", "094053.896000", "094053.898000", "094053.900000", "094053.903000", "094053.905000", "094053.907000", "094053.910000", "094053.912000", "094053.914000", "094053.917000", "094053.919000", "094105.850000", "094105.853000", "094105.855000", "094105.858000", "094105.860000", "094105.862000", "094105.865000"],
      "InstanceCreationTime": ["093513.833000", "093513.836000", "093513.838000", "093513.841000", "093513.843000", "093513.853000", "093513.856000", "093513.865000", "093513.868000", "093513.870000", "093513.873000", "093513.875000", "093513.877000", "093513.890000", "093513.893000", "093513.895000", "093513.897000", "093513.900000", "093513.902000", "093513.904000", "093513.907000", "093513.909000", "093513.911000", "093513.914000", "093533.828000", "093533.831000", "093533.833000", "093533.841000", "093533.843000", "093533.845000", "093533.848000", "093533.850000", "093533.852000", "093613.828000", "093613.831000", "093613.833000", "093613.835000", "093613.838000", "093613.840000", "093613.842000", "093613.851000", "093613.853000", "093613.855000", "093613.858000", "093613.861000", "093613.863000", "093613.866000", "093613.868000", "093613.870000", "093613.873000", "093613.875000", "093613.877000", "093613.884000", "093653.828000", "093653.831000", "093653.833000", "093653.835000", "093653.838000", "093653.840000", "093653.842000", "093653.845000", "093653.847000", "093653.849000", "093653.852000", "093653.854000", "093653.856000", "093653.859000", "093653.861000", "093653.864000", "093653.867000", "093653.869000", "093653.872000", "093653.874000", "093733.828000", "093733.831000", "093733.833000", "093733.835000", "093733.838000", "093733.840000", "093733.842000", "093733.845000", "093733.847000", "093733.849000", "093733.852000", "093733.854000", "093733.857000", "093733.859000", "093733.861000", "093733.864000", "093733.866000", "093733.869000", "093733.871000", "093733.873000", "093813.828000", "093813.831000", "093813.833000", "093813.835000", "093813.838000", "093813.840000", "093813.842000", "093813.845000", "093813.847000", "093813.849000", "093813.852000", "093813.854000", "093813.856000", "093813.858000", "093813.861000", "093813.875000", "093813.877000", "093813.880000", "093813.882000", "093813.884000", "093853.829000", "093853.832000", "093853.834000", "093853.836000", "093853.839000", "093853.841000", "093853.843000", "093853.845000", "093853.848000", "093853.850000", "093853.852000", "093853.855000", "093853.857000", "093853.859000", "093853.862000", "093853.864000", "093853.884000", "093853.886000", "093853.888000", "093853.890000", "093933.828000", "093933.831000", "093933.833000", "093933.835000", "093933.838000", "093933.840000", "093933.842000", "093933.844000", "093933.847000", "093933.849000", "093933.851000", "093933.854000", "093933.856000", "093933.858000", "093933.861000", "093933.864000", "093933.866000", "093933.869000", "093933.871000", "093933.873000", "094013.828000", "094013.831000", "094013.833000", "094013.835000", "094013.838000", "094013.840000", "094013.842000", "094013.844000", "094013.847000", "094013.849000", "094013.851000", "094013.854000", "094013.856000", "094013.859000", "094013.862000", "094013.864000", "094013.866000", "094013.869000", "094013.871000", "094013.873000", "094053.828000", "094053.877000", "094053.880000", "094053.882000", "094053.884000", "094053.887000", "094053.889000", "094053.891000", "094053.893000", "094053.896000", "094053.898000", "094053.900000", "094053.903000", "094053.905000", "094053.907000", "094053.910000", "094053.912000", "094053.914000", "094053.917000", "094053.919000", "094105.850000", "094105.853000", "094105.855000", "094105.858000", "094105.860000", "094105.862000", "094105.865000"],
      "InstanceNumber": [1, 2, 3, 4, 5, 6, 7, 8, 9, 10, 11, 12, 13, 14, 15, 16, 17, 18, 19, 20, 21, 22, 23, 24, 25, 26, 27, 28, 29, 30, 31, 32, 33, 34, 35, 36, 37, 38, 39, 40, 41, 42, 43, 44, 45, 46, 47, 48, 49, 50, 51, 52, 53, 54, 55, 56, 57, 58, 59, 60, 61, 62, 63, 64, 65, 66, 67, 68, 69, 70, 71, 72, 73, 74, 75, 76, 77, 78, 79, 80, 81, 82, 83, 84, 85, 86, 87, 88, 89, 90, 91, 92, 93, 94, 95, 96, 97, 98, 99, 100, 101, 102, 103, 104, 105, 106, 107, 108, 109, 110, 111, 112, 113, 114, 115, 116, 117, 118, 119, 120, 121, 122, 123, 124, 125, 126, 127, 128, 129, 130, 131, 132, 133, 134, 135, 136, 137, 138, 139, 140, 141, 142, 143, 144, 145, 146, 147, 148, 149, 150, 151, 152, 153, 154, 155, 156, 157, 158, 159, 160, 161, 162, 163, 164, 165, 166, 167, 168, 169, 170, 171, 172, 173, 174, 175, 176, 177, 178, 179, 180, 181, 182, 183, 184, 185, 186, 187, 188, 189, 190, 191, 192, 193, 194, 195, 196, 197, 198, 199, 200],
      "LargestImagePixelValue": [2199, 2199, 2199, 2198, 2199, 2196, 2196, 2196, 2196, 2199, 2198, 2198, 2197, 2196, 2197, 2198, 2197, 2196, 2197, 2198, 2198, 2197, 2197, 2197, 2200, 2197, 2197, 2200, 2200, 2196, 2199, 2198, 2197, 2200, 2199, 2200, 2200, 2199, 2198, 2198, 2201, 2199, 2198, 2198, 2197, 2198, 2196, 2197, 2195, 2198, 2197, 2196, 2196, 2195, 2197, 2197, 2199, 2198, 2198, 2198, 2197, 2198, 2198, 2198, 2196, 2196, 2196, 2199, 2198, 2198, 2195, 2198, 2197, 2197, 2198, 2196, 2197, 2193, 2196, 2194, 2196, 2196, 2195, 2197, 2193, 2195, 2197, 2193, 2198, 2196, 2197, 2193, 2197, 2197, 2196, 2197, 2197, 2197, 2196, 2195, 2195, 2199, 2194, 2196, 2195, 2195, 2196, 2195, 2194, 2193, 2195, 2194, 2194, 2194, 2194, 2193, 2194, 2195, 2196, 2193, 2196, 2197, 2197, 2198, 2198, 2197, 2195, 2196, 2195, 2196, 2197, 2195, 2196, 2197, 2198, 2195, 2195, 2194, 2198, 2196, 2196, 2197, 2195, 2197, 2197, 2195, 2195, 2198, 2196, 2196, 2194, 2196, 2194, 2195, 2195, 2196, 2197, 2195, 2196, 2193, 2194, 2193, 2194, 2193, 2194, 2195, 2193, 2194, 2195, 2193, 2195, 2196, 2194, 2195, 2195, 2195, 2195, 2194, 2196, 2195, 2195, 2195, 2195, 2194, 2193, 2194, 2194, 2192, 2195, 2191, 2194, 2193, 2192, 2192, 2193, 2194, 2195, 2194, 2192, 2193],
      "WindowCenter": [1020.0, 1020.0, 1021.0, 1020.0, 1021.0, 1022.0, 1022.0, 1021.0, 1021.0, 1019.0, 1020.0, 1021.0, 1019.0, 1021.0, 1021.0, 1019.0, 1022.0, 1020.0, 1021.0, 1020.0, 1021.0, 1022.0, 1022.0, 1021.0, 1019.0, 1019.0, 1020.0, 1020.0, 1021.0, 1020.0, 1019.0, 1020.0, 1021.0, 1020.0, 1020.0, 1020.0, 1020.0, 1020.0, 1020.0, 1020.0, 1020.0, 1021.0, 1021.0, 1020.0, 1022.0, 1019.0, 1021.0, 1022.0, 1020.0, 1022.0, 1020.0, 1020.0, 1021.0, 1020.0, 1020.0, 1020.0, 1020.0, 1021.0, 1021.0, 1021.0, 1020.0, 1021.0, 1020.0, 1021.0, 1019.0, 1021.0, 1020.0, 1020.0, 1020.0, 1019.0, 1021.0, 1020.0, 1021.0, 1020.0, 1019.0, 1019.0, 1019.0, 1020.0, 1021.0, 1019.0, 1019.0, 1020.0, 1020.0, 1020.0, 1021.0, 1019.0, 1019.0, 1019.0, 1019.0, 1020.0, 1019.0, 1018.0, 1019.0, 1020.0, 1019.0, 1019.0, 1020.0, 1019.0, 1020.0, 1018.0, 1020.0, 1018.0, 1019.0, 1021.0, 1019.0, 1021.0, 1020.0, 1021.0, 1020.0, 1020.0, 1019.0, 1019.0, 1020.0, 1019.0, 1019.0, 1020.0, 1019.0, 1020.0, 1018.0, 1020.0, 1020.0, 1019.0, 1020.0, 1019.0, 1021.0, 1018.0, 1020.0, 1021.0, 1019.0, 1019.0, 1020.0, 1020.0, 1019.0, 1020.0, 1020.0, 1021.0, 1019.0, 1021.0, 1019.0, 1019.0, 1018.0, 1020.0, 1019.0, 1019.0, 1020.0, 1020.0, 1020.0, 1020.0, 1018.0, 1019.0, 1019.0, 1020.0, 1019.0, 1021.0, 1019.0, 1018.0, 1018.0, 1020.0, 1020.0, 1020.0, 1018.0, 1020.0, 1020.0, 1019.0, 1019.0, 1019.0, 1020.0, 1020.0, 1019.0, 1019.0, 1019.0, 1019.0, 1020.0, 1020.0, 1018.0, 1019.0, 1019.0, 1020.0, 1018.0, 1018.0, 1018.0, 1018.0, 1019.0, 1019.0, 1019.0, 1019.0, 1019.0, 1019.0, 1019.0, 1019.0, 1019.0, 1020.0, 1018.0, 1019.0, 1019.0, 1019.0, 1018.0, 1018.0, 1018.0, 1019.0],
      "WindowWidth": [2286.0, 2286.0, 2287.0, 2287.0, 2287.0, 2288.0, 2288.0, 2287.0, 2287.0, 2286.0, 2286.0, 2287.0, 2285.0, 2287.0, 2287.0, 2285.0, 2288.0, 2286.0, 2287.0, 2286.0, 2287.0, 2287.0, 2287.0, 2287.0, 2285.0, 2285.0, 2286.0, 2286.0, 2287.0, 2286.0, 2285.0, 2286.0, 2287.0, 2286.0, 2286.0, 2286.0, 2286.0, 2286.0, 2286.0, 2286.0, 2286.0, 2286.0, 2286.0, 2286.0, 2287.0, 2285.0, 2286.0, 2287.0, 2285.0, 2286.0, 2285.0, 2285.0, 2286.0, 2285.0, 2285.0, 2285.0, 2285.0, 2287.0, 2286.0, 2286.0, 2285.0, 2286.0, 2285.0, 2286.0, 2285.0, 2286.0, 2286.0, 2285.0, 2285.0, 2285.0, 2286.0, 2285.0, 2286.0, 2285.0, 2285.0, 2285.0, 2285.0, 2285.0, 2286.0, 2285.0, 2285.0, 2285.0, 2285.0, 2285.0, 2286.0, 2284.0, 2284.0, 2284.0, 2284.0, 2285.0, 2284.0, 2284.0, 2284.0, 2285.0, 2284.0, 2284.0, 2285.0, 2284.0, 2285.0, 2284.0, 2285.0, 2284.0, 2284.0, 2286.0, 2284.0, 2286.0, 2285.0, 2286.0, 2285.0, 2285.0, 2284.0, 2284.0, 2285.0, 2284.0, 2284.0, 2285.0, 2284.0, 2285.0, 2283.0, 2285.0, 2285.0, 2284.0, 2284.0, 2284.0, 2285.0, 2283.0, 2284.0, 2285.0, 2283.0, 2283.0, 2284.0, 2284.0, 2283.0, 2284.0, 2284.0, 2285.0, 2283.0, 2285.0, 2283.0, 2283.0, 2283.0, 2284.0, 2283.0, 2283.0, 2284.0, 2284.0, 2284.0, 2284.0, 2283.0, 2283.0, 2283.0, 2284.0, 2283.0, 2285.0, 2283.0, 2283.0, 2283.0, 2284.0, 2284.0, 2284.0, 2282.0, 2284.0, 2284.0, 2283.0, 2283.0, 2283.0, 2284.0, 2284.0, 2284.0, 2284.0, 2284.0, 2284.0, 2284.0, 2284.0, 2283.0, 2284.0, 2284.0, 2284.0, 2283.0, 2283.0, 2283.0, 2283.0, 2284.0, 2284.0, 2283.0, 2284.0, 2284.0, 2283.0, 2284.0, 2284.0, 2284.0, 2284.0, 2283.0, 2284.0, 2282.0, 2284.0, 2283.0, 2283.0, 2283.0, 2284.0]
    },
    "slices": {}
  }
}