{
  "AcquisitionMatrixPE": 80,
  "AcquisitionNumber": 1,
  "AcquisitionTime": "09:27:37.117500",
  "BandwidthPerPixelPhaseEncode": 46.296,
  "BaseResolution": 80,
  "BodyPartExamined": "BRAIN",
  "CoilCombinationMethod": "Sum of Squares",
  "ConsistencyInfo": "N4_VE11E_LATEST_20181129",
  "ConversionSoftware": "dcm2niix",
  "ConversionSoftwareVersion": "v1.0.20220720",
  "DerivedVendorReportedEchoSpacing": 0.000540003,
  "DeviceSerialNumber": "66112",
  "DwellTime": 2.7e-06,
  "EchoTime": 0.035,
  "EchoTrainLength": 39,
  "EffectiveEchoSpacing": 0.000270002,
  "FlipAngle": 90,
  "HeudiconvVersion": "0.13.1",
  "ImageOrientationPatientDICOM": [0.986346, 0.16448, 0.00820841, -0.159223, 0.939724, 0.302599],
  "ImageOrientationText": "Tra>Cor(17.5)>Sag(-2.4)",
  "ImageType": [
    "ORIGINAL",
    "PRIMARY",
    "M",
    "ND",
    "NORM",
    "MOSAIC"
],
  "ImagingFrequency": 123.259,
  "InPlanePhaseEncodingDirectionDICOM": "COL",
  "InstitutionAddress": "Maynard 3,Hanover,NH,US,03755",
  "InstitutionName": "Dartmouth College - PBS",
  "InstitutionalDepartmentName": "Department",
  "MRAcquisitionType": "2D",
  "MagneticFieldStrength": 3,
  "Manufacturer": "Siemens",
  "ManufacturersModelName": "Prisma",
  "Modality": "MR",
  "MultibandAccelerationFactor": 4,
  "NonlinearGradientCorrection": false,
  "ParallelReductionFactorInPlane": 2,
  "PartialFourier": 1,
  "PatientPosition": "HFS",
  "PercentPhaseFOV": 100,
  "PercentSampling": 100,
  "PhaseEncodingDirection": "j-",
  "PhaseEncodingSteps": 79,
  "PhaseResolution": 1,
  "PixelBandwidth": 2315,
  "ProcedureStepDescription": "dbic^QA",
  "ProtocolName": "func-bold_task-rest_acq-p2-s4-3.5mm",
  "PulseSequenceDetails": "%SiemensSeq%\\ep2d_bold",
  "ReceiveCoilActiveElements": "HEA;HEP",
  "ReceiveCoilName": "Head_32",
  "ReconMatrixPE": 80,
  "RefLinesPE": 24,
  "RepetitionTime": 2,
  "SAR": 0.0176634,
  "ScanOptions": "FS",
  "ScanningSequence": "EP",
  "SequenceName": "*epfid2d1_80",
  "SequenceVariant": "SK",
  "SeriesDescription": "func-bold_task-rest_acq-p2-s4-3.5mm",
  "SeriesNumber": 6,
  "ShimSetting": [4220, -7734, -7501, -55, -130, -42, -25, 76],
  "SliceThickness": 3.5,
  "SliceTiming": [1.485, 0, 0.99, 0.2475, 1.2375, 0.7425, 1.7325, 0.495, 1.485, 0, 0.99, 0.2475, 1.2375, 0.7425, 1.7325, 0.495, 1.485, 0, 0.99, 0.2475, 1.2375, 0.7425, 1.7325, 0.495, 1.485, 0, 0.99, 0.2475, 1.2375, 0.7425, 1.7325, 0.495],
  "SoftwareVersions": "syngo MR E11",
  "SpacingBetweenSlices": 3.99,
  "StationName": "AWP66112",
  "TaskName": "rest",
  "TotalReadoutTime": 0.0213301,
  "TxRefAmp": 224.892,
  "dcmmeta_affine": [
    [-2.9590389728546143, -0.477669894695282, -0.16781000792980194, 141.75572204589844],
    [-0.4934386909008026, 2.8191733360290527, 1.1960984468460083, -108.16495513916016],
    [0.02462523803114891, -0.9077959656715393, 3.802799940109253, -32.29061508178711],
    [0.0, 0.0, 0.0, 1.0]
],
  "dcmmeta_reorient_transform": [
    [0.0, -1.0, 0.0, 79.0],
    [1.0, 0.0, 0.0, 0.0],
    [0.0, 0.0, 1.0, 0.0],
    [0.0, 0.0, 0.0, 1.0]
],
  "dcmmeta_shape": [80, 80, 32, 200],
  "dcmmeta_slice_dim": 2,
  "dcmmeta_version": 0.6,
  "global": {
    "const": {
      "AccessionNumber": "qa",
      "AcquisitionMatrix": [80, 0, 0, 80],
      "AngioFlag": "N",
      "BitsAllocated": 16,
      "BitsStored": 12,
      "BodyPartExamined": "BRAIN",
      "Columns": 480,
      "EchoNumbers": 1,
      "EchoTime": 35.0,
      "EchoTrainLength": 39,
      "FlipAngle": 90.0,
      "HighBit": 11,
      "ImageOrientationPatient": [0.98634633677804, 0.16447956069339, 0.0082084126755, -0.1592232964085, 0.9397244242627, 0.3025986588287],
      "ImagePositionPatient": [-600.29362851001, -777.0721210147, -290.49073961534],
      "ImageType": [
        "ORIGINAL",
        "PRIMARY",
        "M",
        "ND",
        "NORM",
        "MOSAIC"
],
      "ImagedNucleus": "1H",
      "ImagingFrequency": 123.25912,
      "InPlanePhaseEncodingDirection": "COL",
      "MRAcquisitionType": "2D",
      "MagneticFieldStrength": 3.0,
      "Manufacturer": "SIEMENS",
      "ManufacturerModelName": "Prisma",
      "Modality": "MR",
      "NumberOfAverages": 1.0,
      "NumberOfPhaseEncodingSteps": 79,
      "PercentPhaseFieldOfView": 100.0,
      "PercentSampling": 100.0,
      "PerformedProcedureStepStartTime": "091453.758000",
      "PhotometricInterpretation": "MONOCHROME2",
      "PixelBandwidth": 2315.0,
      "PixelRepresentation": 0,
      "PixelSpacing": [3.0, 3.0],
      "ProtocolName": "func-bold_task-rest_acq-p2-s4-3.5mm",
      "RepetitionTime": 2000.0,
      "Rows": 480,
      "SAR": 0.01766338749875,
      "SamplesPerPixel": 1,
      "ScanOptions": "FS",
      "ScanningSequence": "EP",
      "SequenceName": "*epfid2d1_80",
      "SequenceVariant": "SK",
      "SeriesDescription": "func-bold_task-rest_acq-p2-s4-3.5mm",
      "SeriesNumber": 6,
      "SeriesTime": "092833.744000",
      "SliceLocation": -69.162586889182,
      "SliceThickness": 3.5,
      "SmallestImagePixelValue": 0,
      "SoftwareVersions": "syngo MR E11",
      "SpacingBetweenSlices": 3.9899999065081,
      "SpecificCharacterSet": "ISO_IR 100",
      "StudyID": "24",
      "StudyTime": "091453.706000",
      "TransmitCoilName": "Body",
      "VariableFlipAngleFlag": "N",
      "WindowCenterWidthExplanation": "Algo1"
    },
    "slices": {}
  },
  "time": {
    "samples": {
      "AcquisitionNumber": [1, 2, 3, 4, 5, 6, 7, 8, 9, 10, 11, 12, 13, 14, 15, 16, 17, 18, 19, 20, 21, 22, 23, 24, 25, 26, 27, 28, 29, 30, 31, 32, 33, 34, 35, 36, 37, 38, 39, 40, 41, 42, 43, 44, 45, 46, 47, 48, 49, 50, 51, 52, 53, 54, 55, 56, 57, 58, 59, 60, 61, 62, 63, 64, 65, 66, 67, 68, 69, 70, 71, 72, 73, 74, 75, 76, 77, 78, 79, 80, 81, 82, 83, 84, 85, 86, 87, 88, 89, 90, 91, 92, 93, 94, 95, 96, 97, 98, 99, 100, 101, 102, 103, 104, 105, 106, 107, 108, 109, 110, 111, 112, 113, 114, 115, 116, 117, 118, 119, 120, 121, 122, 123, 124, 125, 126, 127, 128, 129, 130, 131, 132, 133, 134, 135, 136, 137, 138, 139, 140, 141, 142, 143, 144, 145, 146, 147, 148, 149, 150, 151, 152, 153, 154, 155, 156, 157, 158, 159, 160, 161, 162, 163, 164, 165, 166, 167, 168, 169, 170, 171, 172, 173, 174, 175, 176, 177, 178, 179, 180, 181, 182, 183, 184, 185, 186, 187, 188, 189, 190, 191, 192, 193, 194, 195, 196, 197, 198, 199, 200],
      "AcquisitionTime": ["092737.117500", "092739.117500", "092741.117500", "092743.117500", "092745.117500", "092747.117500", "092749.117500", "092751.117500", "092753.117500", "092755.117500", "092757.117500", "092759.117500", "092801.117500", "092803.117500", "092805.117500", "092807.117500", "092809.117500", "092811.117500", "092813.117500", "092815.117500", "092817.117500", "092819.117500", "092821.117500", "092823.117500", "092825.117500", "092827.117500", "092829.117500", "092831.117500", "092833.117500", "092835.117500", "092837.117500", "092839.117500", "092841.117500", "092843.117500", "092845.117500", "092847.117500", "092849.117500", "092851.117500", "092853.117500", "092855.117500", "092857.117500", "092859.117500", "092901.117500", "092903.117500", "092905.117500", "092907.117500", "092909.117500", "092911.117500", "092913.117500", "092915.117500", "092917.117500", "092919.117500", "092921.117500", "092923.117500", "092925.117500", "092927.117500", "092929.117500", "092931.117500", "092933.117500", "092935.117500", "092937.117500", "092939.117500", "092941.117500", "092943.117500", "092945.117500", "092947.117500", "092949.117500", "092951.117500", "092953.117500", "092955.117500", "092957.117500", "092959.117500", "093001.117500", "093003.117500", "093005.117500", "093007.117500", "093009.117500", "093011.117500", "093013.117500", "093015.117500", "093017.117500", "093019.117500", "093021.117500", "093023.117500", "093025.117500", "093027.117500", "093029.117500", "093031.117500", "093033.117500", "093035.117500", "093037.117500", "093039.117500", "093041.117500", "093043.117500", "093045.117500", "093047.117500", "093049.117500", "093051.117500", "093053.117500", "093055.117500", "093057.117500", "093059.117500", "093101.117500", "093103.117500", "093105.117500", "093107.117500", "093109.117500", "093111.117500", "093113.117500", "093115.117500", "093117.117500", "093119.117500", "093121.117500", "093123.117500", "093125.117500", "093127.117500", "093129.117500", "093131.117500", "093133.117500", "093135.117500", "093137.117500", "093139.117500", "093141.117500", "093143.117500", "093145.117500", "093147.117500", "093149.117500", "093151.117500", "093153.117500", "093155.117500", "093157.117500", "093159.117500", "093201.117500", "093203.117500", "093205.117500", "093207.117500", "093209.117500", "093211.117500", "093213.117500", "093215.117500", "093217.117500", "093219.117500", "093221.117500", "093223.117500", "093225.117500", "093227.117500", "093229.117500", "093231.117500", "093233.117500", "093235.117500", "093237.117500", "093239.117500", "093241.117500", "093243.117500", "093245.117500", "093247.117500", "093249.117500", "093251.117500", "093253.117500", "093255.117500", "093257.117500", "093259.117500", "093301.117500", "093303.117500", "093305.117500", "093307.117500", "093309.117500", "093311.117500", "093313.117500", "093315.117500", "093317.117500", "093319.117500", "093321.117500", "093323.117500", "093325.117500", "093327.117500", "093329.117500", "093331.117500", "093333.117500", "093335.117500", "093337.117500", "093339.117500", "093341.117500", "093343.117500", "093345.117500", "093347.117500", "093349.117500", "093351.117500", "093353.117500", "093355.117500", "093357.117500", "093359.117500", "093401.117500", "093403.117500", "093405.117500", "093407.117500", "093409.117500", "093411.117500", "093413.117500", "093415.117500"],
      "ContentTime": ["092833.747000", "092833.750000", "092833.759000", "092833.761000", "092833.763000", "092833.766000", "092833.768000", "092833.771000", "092833.773000", "092833.777000", "092833.780000", "092833.782000", "092833.785000", "092833.787000", "092833.789000", "092833.792000", "092833.794000", "092833.796000", "092833.799000", "092833.801000", "092833.804000", "092833.806000", "092833.809000", "092833.811000", "092833.814000", "092833.816000", "092833.818000", "092833.821000", "092913.742000", "092913.745000", "092913.747000", "092913.755000", "092913.757000", "092913.760000", "092913.762000", "092913.765000", "092913.767000", "092913.769000", "092913.772000", "092913.774000", "092913.776000", "092913.779000", "092913.781000", "092913.783000", "092913.785000", "092913.788000", "092913.790000", "092913.792000", "092953.742000", "092953.745000", "092953.747000", "092953.749000", "092953.752000", "092953.754000", "092953.756000", "092953.759000", "092953.761000", "092953.764000", "092953.766000", "092953.768000", "092953.771000", "092953.773000", "092953.775000", "092953.778000", "092953.780000", "092953.783000", "092953.785000", "092953.787000", "093033.742000", "093033.745000", "093033.747000", "093033.750000", "093033.752000", "093033.754000", "093033.757000", "093033.759000", "093033.761000", "093033.764000", "093033.766000", "093033.768000", "093033.771000", "093033.773000", "093033.776000", "093033.778000", "093033.780000", "093033.783000", "093033.785000", "093033.787000", "093113.742000", "093113.745000", "093113.747000", "093113.750000", "093113.752000", "093113.754000", "093113.757000", "093113.759000", "093113.761000", "093113.764000", "093113.766000", "093113.768000", "093113.771000", "093113.773000", "093113.775000", "093113.777000", "093113.780000", "093113.782000", "093113.784000", "093113.787000", "093153.743000", "093153.747000", "093153.749000", "093153.752000", "093153.754000", "093153.757000", "093153.759000", "093153.761000", "093153.764000", "093153.766000", "093153.768000", "093153.771000", "093153.773000", "093153.776000", "093153.778000", "093153.780000", "093153.783000", "093153.785000", "093153.787000", "093153.790000", "093233.742000", "093233.745000", "093233.747000", "093233.749000", "093233.752000", "093233.754000", "093233.757000", "093233.759000", "093233.761000", "093233.764000", "093233.766000", "093233.768000", "093233.771000", "093233.773000", "093233.776000", "093233.778000", "093233.780000", "093233.783000", "093233.785000", "093233.787000", "093313.742000", "093313.745000", "093313.748000", "093313.750000", "093313.752000", "093313.755000", "093313.757000", "093313.759000", "093313.762000", "093313.764000", "093313.766000", "093313.769000", "093313.771000", "093313.773000", "093313.776000", "093313.778000", "093313.780000", "093313.783000", "093313.785000", "093313.788000", "093353.742000", "093353.745000", "093353.747000", "093353.750000", "093353.752000", "093353.754000", "093353.757000", "093353.759000", "093353.761000", "093353.764000", "093353.766000", "093353.775000", "093353.777000", "093353.779000", "093353.782000", "093353.784000", "093353.786000", "093353.789000", "093353.791000", "093353.793000", "093415.994000", "093415.998000", "093416.002000", "093416.005000", "093416.007000", "093416.010000", "093416.013000", "093416.016000", "093416.019000", "093416.021000", "093416.023000", "093416.026000"],
      "InstanceCreationTime": ["092833.747000", "092833.750000", "092833.759000", "092833.761000", "092833.763000", "092833.766000", "092833.768000", "092833.771000", "092833.773000", "092833.777000", "092833.780000", "092833.782000", "092833.785000", "092833.787000", "092833.789000", "092833.792000", "092833.794000", "092833.796000", "092833.799000", "092833.801000", "092833.804000", "092833.806000", "092833.809000", "092833.811000", "092833.814000", "092833.816000", "092833.818000", "092833.821000", "092913.742000", "092913.745000", "092913.747000", "092913.755000", "092913.757000", "092913.760000", "092913.762000", "092913.765000", "092913.767000", "092913.769000", "092913.772000", "092913.774000", "092913.776000", "092913.779000", "092913.781000", "092913.783000", "092913.785000", "092913.788000", "092913.790000", "092913.792000", "092953.742000", "092953.745000", "092953.747000", "092953.749000", "092953.752000", "092953.754000", "092953.756000", "092953.759000", "092953.761000", "092953.764000", "092953.766000", "092953.768000", "092953.771000", "092953.773000", "092953.775000", "092953.778000", "092953.780000", "092953.783000", "092953.785000", "092953.787000", "093033.742000", "093033.745000", "093033.747000", "093033.750000", "093033.752000", "093033.754000", "093033.757000", "093033.759000", "093033.761000", "093033.764000", "093033.766000", "093033.768000", "093033.771000", "093033.773000", "093033.776000", "093033.778000", "093033.780000", "093033.783000", "093033.785000", "093033.787000", "093113.742000", "093113.745000", "093113.747000", "093113.750000", "093113.752000", "093113.754000", "093113.757000", "093113.759000", "093113.761000", "093113.764000", "093113.766000", "093113.768000", "093113.771000", "093113.773000", "093113.775000", "093113.777000", "093113.780000", "093113.782000", "093113.784000", "093113.787000", "093153.743000", "093153.747000", "093153.749000", "093153.752000", "093153.754000", "093153.757000", "093153.759000", "093153.761000", "093153.764000", "093153.766000", "093153.768000", "093153.771000", "093153.773000", "093153.776000", "093153.778000", "093153.780000", "093153.783000", "093153.785000", "093153.787000", "093153.790000", "093233.742000", "093233.745000", "093233.747000", "093233.749000", "093233.752000", "093233.754000", "093233.757000", "093233.759000", "093233.761000", "093233.764000", "093233.766000", "093233.768000", "093233.771000", "093233.773000", "093233.776000", "093233.778000", "093233.780000", "093233.783000", "093233.785000", "093233.787000", "093313.742000", "093313.745000", "093313.748000", "093313.750000", "093313.752000", "093313.755000", "093313.757000", "093313.759000", "093313.762000", "093313.764000", "093313.766000", "093313.769000", "093313.771000", "093313.773000", "093313.776000", "093313.778000", "093313.780000", "093313.783000", "093313.785000", "093313.788000", "093353.742000", "093353.745000", "093353.747000", "093353.750000", "093353.752000", "093353.754000", "093353.757000", "093353.759000", "093353.761000", "093353.764000", "093353.766000", "093353.775000", "093353.777000", "093353.779000", "093353.782000", "093353.784000", "093353.786000", "093353.789000", "093353.791000", "093353.793000", "093415.994000", "093415.998000", "093416.002000", "093416.005000", "093416.007000", "093416.010000", "093416.013000", "093416.016000", "093416.019000", "093416.021000", "093416.023000", "093416.026000"],
      "InstanceNumber": [1, 2, 3, 4, 5, 6, 7, 8, 9, 10, 11, 12, 13, 14, 15, 16, 17, 18, 19, 20, 21, 22, 23, 24, 25, 26, 27, 28, 29, 30, 31, 32, 33, 34, 35, 36, 37, 38, 39, 40, 41, 42, 43, 44, 45, 46, 47, 48, 49, 50, 51, 52, 53, 54, 55, 56, 57, 58, 59, 60, 61, 62, 63, 64, 65, 66, 67, 68, 69, 70, 71, 72, 73, 74, 75, 76, 77, 78, 79, 80, 81, 82, 83, 84, 85, 86, 87, 88, 89, 90, 91, 92, 93, 94, 95, 96, 97, 98, 99, 100, 101, 102, 103, 104, 105, 106, 107, 108, 109, 110, 111, 112, 113, 114, 115, 116, 117, 118, 119, 120, 121, 122, 123, 124, 125, 126, 127, 128, 129, 130, 131, 132, 133, 134, 135, 136, 137, 138, 139, 140, 141, 142, 143, 144, 145, 146, 147, 148, 149, 150, 151, 152, 153, 154, 155, 156, 157, 158, 159, 160, 161, 162, 163, 164, 165, 166, 167, 168, 169, 170, 171, 172, 173, 174, 175, 176, 177, 178, 179, 180, 181, 182, 183, 184, 185, 186, 187, 188, 189, 190, 191, 192, 193, 194, 195, 196, 197, 198, 199, 200],
      "LargestImagePixelValue": [2289, 2285, 2285, 2284, 2283, 2290, 2284, 2283, 2290, 2282, 2283, 2286, 2276, 2279, 2281, 2279, 2282, 2277, 2279, 2282, 2277, 2279, 2282, 2281, 2283, 2284, 2282, 2289, 2280, 2280, 2285, 2281, 2281, 2286, 2288, 2286, 2284, 2280, 2287, 2282, 2280, 2287, 2281, 2283, 2285, 2284, 2284, 2284, 2282, 2289, 2281, 2283, 2287, 2286, 2282, 2285, 2285, 2288, 2286, 2283, 2290, 2287, 2287, 2288, 2288, 2285, 2285, 2286, 2290, 2285, 2288, 2292, 2288, 2284, 2289, 2285, 2283, 2286, 2282, 2284, 2280, 2285, 2288, 2289, 2287, 2289, 2283, 2288, 2289, 2282, 2285, 2287, 2280, 2285, 2281, 2283, 2285, 2282, 2284, 2281, 2286, 2290, 2280, 2285, 2283, 2278, 2282, 2287, 2282, 2288, 2283, 2285, 2286, 2282, 2282, 2287, 2286, 2286, 2288, 2285, 2283, 2289, 2286, 2289, 2286, 2284, 2289, 2281, 2283, 2287, 2286, 2285, 2284, 2284, 2287, 2284, 2282, 2284, 2283, 2283, 2286, 2285, 2286, 2288, 2284, 2286, 2284, 2282, 2286, 2285, 2283, 2284, 2283, 2286, 2285, 2287, 2283, 2284, 2288, 2287, 2284, 2284, 2287, 2280, 2282, 2285, 2283, 2283, 2283, 2281, 2289, 2279, 2286, 2287, 2282, 2287, 2285, 2279, 2283, 2283, 2286, 2285, 2286, 2283, 2283, 2282, 2284, 2284, 2285, 2287, 2284, 2283, 2284, 2284, 2286, 2283, 2290, 2285, 2288, 2284],
      "WindowCenter": [965.0, 966.0, 966.0, 966.0, 966.0, 966.0, 966.0, 966.0, 966.0, 966.0, 966.0, 966.0, 966.0, 966.0, 966.0, 966.0, 965.0, 966.0, 966.0, 966.0, 966.0, 966.0, 965.0, 966.0, 966.0, 966.0, 966.0, 966.0, 966.0, 966.0, 966.0, 966.0, 966.0, 966.0, 966.0, 966.0, 966.0, 966.0, 966.0, 966.0, 966.0, 966.0, 966.0, 965.0, 966.0, 966.0, 966.0, 966.0, 966.0, 966.0, 966.0, 966.0, 966.0, 966.0, 966.0, 966.0, 966.0, 966.0, 966.0, 966.0, 966.0, 966.0, 966.0, 965.0, 966.0, 966.0, 966.0, 966.0, 966.0, 966.0, 966.0, 967.0, 966.0, 966.0, 966.0, 966.0, 966.0, 966.0, 966.0, 966.0, 966.0, 966.0, 966.0, 966.0, 966.0, 966.0, 966.0, 966.0, 966.0, 966.0, 965.0, 965.0, 966.0, 966.0, 965.0, 966.0, 965.0, 966.0, 966.0, 966.0, 966.0, 966.0, 966.0, 966.0, 966.0, 966.0, 966.0, 966.0, 966.0, 966.0, 966.0, 966.0, 966.0, 966.0, 966.0, 966.0, 966.0, 966.0, 966.0, 965.0, 966.0, 966.0, 966.0, 965.0, 966.0, 966.0, 966.0, 966.0, 965.0, 966.0, 967.0, 966.0, 966.0, 966.0, 966.0, 966.0, 966.0, 966.0, 966.0, 966.0, 966.0, 966.0, 966.0, 966.0, 966.0, 966.0, 966.0, 966.0, 966.0, 966.0, 966.0, 966.0, 966.0, 966.0, 966.0, 966.0, 966.0, 966.0, 966.0, 965.0, 966.0, 966.0, 966.0, 966.0, 966.0, 966.0, 966.0, 966.0, 966.0, 966.0, 966.0, 965.0, 966.0, 966.0, 965.0, 966.0, 966.0, 966.0, 966.0, 966.0, 966.0, 966.0, 966.0, 966.0, 965.0, 967.0, 966.0, 966.0, 965.0, 965.0, 965.0, 966.0, 966.0, 966.0, 966.0, 966.0, 966.0, 966.0, 966.0, 966.0],
      "WindowWidth": [2289.0, 2289.0, 2290.0, 2290.0, 2289.0, 2290.0, 2289.0, 2289.0, 2290.0, 2289.0, 2290.0, 2290.0, 2289.0, 2289.0, 2289.0, 2289.0, 2288.0, 2289.0, 2290.0, 2290.0, 2289.0, 2289.0, 2289.0, 2289.0, 2290.0, 2289.0, 2289.0, 2290.0, 2289.0, 2289.0, 2289.0, 2289.0, 2290.0, 2290.0, 2289.0, 2290.0, 2289.0, 2289.0, 2290.0, 2289.0, 2289.0, 2290.0, 2288.0, 2288.0, 2289.0, 2289.0, 2290.0, 2289.0, 2289.0, 2290.0, 2289.0, 2289.0, 2290.0, 2289.0, 2289.0, 2289.0, 2289.0, 2290.0, 2289.0, 2289.0, 2290.0, 2289.0, 2289.0, 2289.0, 2289.0, 2289.0, 2289.0, 2289.0, 2290.0, 2289.0, 2289.0, 2290.0, 2289.0, 2289.0, 2289.0, 2289.0, 2289.0, 2289.0, 2289.0, 2290.0, 2289.0, 2289.0, 2290.0, 2289.0, 2289.0, 2289.0, 2289.0, 2290.0, 2290.0, 2289.0, 2288.0, 2288.0, 2289.0, 2289.0, 2287.0, 2289.0, 2288.0, 2288.0, 2289.0, 2289.0, 2289.0, 2289.0, 2289.0, 2289.0, 2289.0, 2289.0, 2289.0, 2289.0, 2289.0, 2289.0, 2289.0, 2289.0, 2289.0, 2289.0, 2289.0, 2289.0, 2288.0, 2289.0, 2289.0, 2288.0, 2289.0, 2289.0, 2289.0, 2288.0, 2288.0, 2289.0, 2289.0, 2289.0, 2288.0, 2289.0, 2289.0, 2289.0, 2289.0, 2289.0, 2289.0, 2289.0, 2289.0, 2289.0, 2288.0, 2288.0, 2289.0, 2288.0, 2289.0, 2288.0, 2288.0, 2289.0, 2288.0, 2289.0, 2289.0, 2288.0, 2289.0, 2289.0, 2288.0, 2289.0, 2288.0, 2288.0, 2289.0, 2288.0, 2289.0, 2288.0, 2288.0, 2289.0, 2289.0, 2288.0, 2289.0, 2288.0, 2289.0, 2289.0, 2288.0, 2289.0, 2289.0, 2287.0, 2289.0, 2288.0, 2287.0, 2289.0, 2288.0, 2288.0, 2289.0, 2288.0, 2289.0, 2289.0, 2288.0, 2288.0, 2288.0, 2289.0, 2289.0, 2288.0, 2287.0, 2288.0, 2287.0, 2288.0, 2288.0, 2288.0, 2289.0, 2288.0, 2288.0, 2289.0, 2288.0, 2288.0]
    },
    "slices": {}
  }
}