{
  "AcquisitionMatrixPE": 80,
  "AcquisitionNumber": 1,
  "AcquisitionTime": "09:20:42.815000",
  "BandwidthPerPixelPhaseEncode": 48.077,
  "BaseResolution": 80,
  "BodyPartExamined": "BRAIN",
  "CoilCombinationMethod": "Sum of Squares",
  "ConsistencyInfo": "N4_VE11E_LATEST_20181129",
  "ConversionSoftware": "dcm2niix",
  "ConversionSoftwareVersion": "v1.0.20220720",
  "DerivedVendorReportedEchoSpacing": 0.000519999,
  "DeviceSerialNumber": "66112",
  "DwellTime": 2.7e-06,
  "EchoTime": 0.035,
  "EchoTrainLength": 39,
  "EffectiveEchoSpacing": 0.00026,
  "FlipAngle": 90,
  "HeudiconvVersion": "0.13.1",
  "ImageOrientationPatientDICOM": [0.986346, 0.16448, 0.00820841, -0.159223, 0.939724, 0.302599],
  "ImageOrientationText": "Tra>Cor(17.5)>Sag(-2.4)",
  "ImageType": [
    "ORIGINAL",
    "PRIMARY",
    "M",
    "ND",
    "NORM",
    "MOSAIC"
],
  "ImagingFrequency": 123.259,
  "InPlanePhaseEncodingDirectionDICOM": "COL",
  "InstitutionAddress": "Maynard 3,Hanover,NH,US,03755",
  "InstitutionName": "Dartmouth College - PBS",
  "InstitutionalDepartmentName": "Department",
  "MRAcquisitionType": "2D",
  "MagneticFieldStrength": 3,
  "Manufacturer": "Siemens",
  "ManufacturersModelName": "Prisma",
  "MatrixCoilMode": "GRAPPA",
  "Modality": "MR",
  "NonlinearGradientCorrection": false,
  "ParallelReductionFactorInPlane": 2,
  "PartialFourier": 1,
  "PatientPosition": "HFS",
  "PercentPhaseFOV": 100,
  "PercentSampling": 100,
  "PhaseEncodingDirection": "j-",
  "PhaseEncodingSteps": 79,
  "PhaseResolution": 1,
  "PixelBandwidth": 2315,
  "ProcedureStepDescription": "dbic^QA",
  "ProtocolName": "func-bold_task-rest_acq-p2",
  "PulseSequenceDetails": "%SiemensSeq%\\ep2d_bold",
  "ReceiveCoilActiveElements": "HEA;HEP",
  "ReceiveCoilName": "Head_32",
  "ReconMatrixPE": 80,
  "RefLinesPE": 24,
  "RepetitionTime": 2,
  "SAR": 0.0469704,
  "ScanOptions": "FS",
  "ScanningSequence": "EP",
  "SequenceName": "*epfid2d1_80",
  "SequenceVariant": "SK",
  "SeriesDescription": "func-bold_task-rest_acq-p2",
  "SeriesNumber": 5,
  "ShimSetting": [4220, -7733, -7501, -62, -134, -42, -27, 76],
  "SliceThickness": 3.5,
  "SliceTiming": [0.99, 0, 1.055, 0.065, 1.12, 0.1325, 1.1875, 0.1975, 1.2525, 0.2625, 1.32, 0.33, 1.385, 0.395, 1.45, 0.46, 1.5175, 0.5275, 1.5825, 0.5925, 1.65, 0.66, 1.715, 0.725, 1.78, 0.79, 1.8475, 0.8575, 1.9125, 0.9225],
  "SoftwareVersions": "syngo MR E11",
  "SpacingBetweenSlices": 3.99,
  "StationName": "AWP66112",
  "TaskName": "rest",
  "TotalReadoutTime": 0.02054,
  "TxRefAmp": 224.892,
  "dcmmeta_affine": [
    [-2.9590389728546143, -0.477669894695282, -0.16781002283096313, 141.58792114257812],
    [-0.4934386909008026, 2.8191733360290527, 1.1960984468460083, -106.96885681152344],
    [0.02462523803114891, -0.9077959656715393, 3.802799940109253, -28.487815856933594],
    [0.0, 0.0, 0.0, 1.0]
],
  "dcmmeta_reorient_transform": [
    [0.0, -1.0, 0.0, 79.0],
    [1.0, 0.0, 0.0, 0.0],
    [0.0, 0.0, 1.0, 0.0],
    [0.0, 0.0, 0.0, 1.0]
],
  "dcmmeta_shape": [80, 80, 30, 200],
  "dcmmeta_slice_dim": 2,
  "dcmmeta_version": 0.6,
  "global": {
    "const": {
      "AccessionNumber": "qa",
      "AcquisitionMatrix": [80, 0, 0, 80],
      "AngioFlag": "N",
      "BitsAllocated": 16,
      "BitsStored": 12,
      "BodyPartExamined": "BRAIN",
      "Columns": 480,
      "EchoNumbers": 1,
      "EchoTime": 35.0,
      "EchoTrainLength": 39,
      "FlipAngle": 90.0,
      "HighBit": 11,
      "ImageOrientationPatient": [0.98634633677804, 0.16447956069339, 0.0082084126755, -0.1592232964085, 0.9397244242627, 0.3025986588287],
      "ImagePositionPatient": [-600.12581854678, -778.26821934233, -286.68794039049],
      "ImageType": [
        "ORIGINAL",
        "PRIMARY",
        "M",
        "ND",
        "NORM",
        "MOSAIC"
],
      "ImagedNucleus": "1H",
      "ImagingFrequency": 123.25912,
      "InPlanePhaseEncodingDirection": "COL",
      "MRAcquisitionType": "2D",
      "MagneticFieldStrength": 3.0,
      "Manufacturer": "SIEMENS",
      "ManufacturerModelName": "Prisma",
      "Modality": "MR",
      "NumberOfAverages": 1.0,
      "NumberOfPhaseEncodingSteps": 79,
      "PercentPhaseFieldOfView": 100.0,
      "PercentSampling": 100.0,
      "PerformedProcedureStepStartTime": "091453.758000",
      "PhotometricInterpretation": "MONOCHROME2",
      "PixelBandwidth": 2315.0,
      "PixelRepresentation": 0,
      "PixelSpacing": [3.0, 3.0],
      "ProtocolName": "func-bold_task-rest_acq-p2",
      "RepetitionTime": 2000.0,
      "Rows": 480,
      "SAR": 0.04697043025809,
      "SamplesPerPixel": 1,
      "ScanOptions": "FS",
      "ScanningSequence": "EP",
      "SequenceName": "*epfid2d1_80",
      "SequenceVariant": "SK",
      "SeriesDescription": "func-bold_task-rest_acq-p2",
      "SeriesNumber": 5,
      "SeriesTime": "092133.659000",
      "SliceLocation": -65.172587724059,
      "SliceThickness": 3.5,
      "SmallestImagePixelValue": 0,
      "SoftwareVersions": "syngo MR E11",
      "SpacingBetweenSlices": 3.9899999575949,
      "SpecificCharacterSet": "ISO_IR 100",
      "StudyID": "24",
      "StudyTime": "091453.706000",
      "TransmitCoilName": "Body",
      "VariableFlipAngleFlag": "N",
      "WindowCenterWidthExplanation": "Algo1"
    },
    "slices": {}
  },
  "time": {
    "samples": {
      "AcquisitionNumber": [1, 2, 3, 4, 5, 6, 7, 8, 9, 10, 11, 12, 13, 14, 15, 16, 17, 18, 19, 20, 21, 22, 23, 24, 25, 26, 27, 28, 29, 30, 31, 32, 33, 34, 35, 36, 37, 38, 39, 40, 41, 42, 43, 44, 45, 46, 47, 48, 49, 50, 51, 52, 53, 54, 55, 56, 57, 58, 59, 60, 61, 62, 63, 64, 65, 66, 67, 68, 69, 70, 71, 72, 73, 74, 75, 76, 77, 78, 79, 80, 81, 82, 83, 84, 85, 86, 87, 88, 89, 90, 91, 92, 93, 94, 95, 96, 97, 98, 99, 100, 101, 102, 103, 104, 105, 106, 107, 108, 109, 110, 111, 112, 113, 114, 115, 116, 117, 118, 119, 120, 121, 122, 123, 124, 125, 126, 127, 128, 129, 130, 131, 132, 133, 134, 135, 136, 137, 138, 139, 140, 141, 142, 143, 144, 145, 146, 147, 148, 149, 150, 151, 152, 153, 154, 155, 156, 157, 158, 159, 160, 161, 162, 163, 164, 165, 166, 167, 168, 169, 170, 171, 172, 173, 174, 175, 176, 177, 178, 179, 180, 181, 182, 183, 184, 185, 186, 187, 188, 189, 190, 191, 192, 193, 194, 195, 196, 197, 198, 199, 200],
      "AcquisitionTime": ["092042.815000", "092044.815000", "092046.815000", "092048.815000", "092050.815000", "092052.815000", "092054.815000", "092056.815000", "092058.815000", "092100.815000", "092102.815000", "092104.815000", "092106.815000", "092108.815000", "092110.815000", "092112.815000", "092114.815000", "092116.815000", "092118.815000", "092120.815000", "092122.815000", "092124.815000", "092126.815000", "092128.815000", "092130.815000", "092132.815000", "092134.815000", "092136.815000", "092138.815000", "092140.815000", "092142.815000", "092144.815000", "092146.815000", "092148.815000", "092150.815000", "092152.815000", "092154.815000", "092156.815000", "092158.815000", "092200.815000", "092202.815000", "092204.815000", "092206.815000", "092208.815000", "092210.815000", "092212.815000", "092214.815000", "092216.815000", "092218.815000", "092220.815000", "092222.815000", "092224.815000", "092226.815000", "092228.815000", "092230.815000", "092232.815000", "092234.815000", "092236.815000", "092238.815000", "092240.815000", "092242.815000", "092244.815000", "092246.815000", "092248.815000", "092250.815000", "092252.815000", "092254.815000", "092256.815000", "092258.815000", "092300.815000", "092302.815000", "092304.815000", "092306.815000", "092308.815000", "092310.815000", "092312.815000", "092314.815000", "092316.815000", "092318.815000", "092320.815000", "092322.815000", "092324.815000", "092326.815000", "092328.815000", "092330.815000", "092332.815000", "092334.815000", "092336.815000", "092338.815000", "092340.815000", "092342.815000", "092344.815000", "092346.815000", "092348.815000", "092350.815000", "092352.815000", "092354.815000", "092356.815000", "092358.815000", "092400.815000", "092402.815000", "092404.815000", "092406.815000", "092408.815000", "092410.815000", "092412.815000", "092414.815000", "092416.815000", "092418.815000", "092420.815000", "092422.815000", "092424.815000", "092426.815000", "092428.815000", "092430.815000", "092432.815000", "092434.815000", "092436.815000", "092438.815000", "092440.815000", "092442.815000", "092444.815000", "092446.815000", "092448.815000", "092450.815000", "092452.815000", "092454.815000", "092456.815000", "092458.815000", "092500.815000", "092502.815000", "092504.815000", "092506.815000", "092508.815000", "092510.815000", "092512.815000", "092514.815000", "092516.815000", "092518.815000", "092520.815000", "092522.815000", "092524.815000", "092526.815000", "092528.815000", "092530.815000", "092532.815000", "092534.815000", "092536.815000", "092538.815000", "092540.815000", "092542.815000", "092544.815000", "092546.815000", "092548.815000", "092550.815000", "092552.815000", "092554.815000", "092556.815000", "092558.815000", "092600.815000", "092602.815000", "092604.815000", "092606.815000", "092608.815000", "092610.815000", "092612.815000", "092614.815000", "092616.815000", "092618.815000", "092620.815000", "092622.815000", "092624.815000", "092626.815000", "092628.815000", "092630.815000", "092632.815000", "092634.815000", "092636.815000", "092638.815000", "092640.815000", "092642.815000", "092644.815000", "092646.815000", "092648.815000", "092650.815000", "092652.815000", "092654.815000", "092656.815000", "092658.815000", "092700.815000", "092702.815000", "092704.815000", "092706.815000", "092708.815000", "092710.815000", "092712.815000", "092714.815000", "092716.815000", "092718.815000", "092720.815000"],
      "ContentTime": ["092133.662000", "092133.665000", "092133.668000", "092133.670000", "092133.672000", "092133.675000", "092133.677000", "092133.679000", "092133.682000", "092133.684000", "092133.686000", "092133.688000", "092133.699000", "092133.701000", "092133.704000", "092133.706000", "092133.708000", "092133.711000", "092133.713000", "092133.715000", "092133.718000", "092133.731000", "092133.733000", "092133.735000", "092133.738000", "092213.657000", "092213.660000", "092213.662000", "092213.665000", "092213.667000", "092213.669000", "092213.672000", "092213.674000", "092213.676000", "092213.679000", "092213.681000", "092213.683000", "092213.685000", "092213.688000", "092213.690000", "092213.692000", "092213.695000", "092213.697000", "092213.699000", "092213.702000", "092253.657000", "092253.660000", "092253.662000", "092253.664000", "092253.667000", "092253.669000", "092253.671000", "092253.674000", "092253.676000", "092253.679000", "092253.681000", "092253.683000", "092253.686000", "092253.688000", "092253.690000", "092253.693000", "092253.695000", "092253.697000", "092253.700000", "092253.702000", "092333.657000", "092333.660000", "092333.662000", "092333.664000", "092333.667000", "092333.669000", "092333.672000", "092333.674000", "092333.676000", "092333.679000", "092333.681000", "092333.684000", "092333.686000", "092333.688000", "092333.690000", "092333.693000", "092333.695000", "092333.698000", "092333.700000", "092333.702000", "092413.657000", "092413.660000", "092413.662000", "092413.664000", "092413.667000", "092413.669000", "092413.672000", "092413.674000", "092413.676000", "092413.679000", "092413.681000", "092413.683000", "092413.686000", "092413.688000", "092413.690000", "092413.693000", "092413.695000", "092413.698000", "092413.700000", "092413.702000", "092453.657000", "092453.660000", "092453.662000", "092453.664000", "092453.667000", "092453.669000", "092453.672000", "092453.674000", "092453.677000", "092453.679000", "092453.681000", "092453.684000", "092453.686000", "092453.688000", "092453.691000", "092453.693000", "092453.696000", "092453.698000", "092453.700000", "092453.703000", "092513.657000", "092513.660000", "092513.662000", "092513.665000", "092513.667000", "092513.670000", "092513.672000", "092513.674000", "092513.677000", "092513.679000", "092553.657000", "092553.660000", "092553.662000", "092553.665000", "092553.667000", "092553.669000", "092553.672000", "092553.674000", "092553.676000", "092553.679000", "092553.681000", "092553.683000", "092553.686000", "092553.688000", "092553.691000", "092553.693000", "092553.695000", "092553.698000", "092553.700000", "092553.702000", "092633.657000", "092633.660000", "092633.662000", "092633.664000", "092633.667000", "092633.669000", "092633.672000", "092633.674000", "092633.676000", "092633.678000", "092633.681000", "092633.683000", "092633.685000", "092633.688000", "092633.690000", "092633.693000", "092633.695000", "092633.697000", "092633.700000", "092633.702000", "092713.657000", "092713.660000", "092713.662000", "092713.665000", "092713.667000", "092713.669000", "092713.671000", "092713.674000", "092713.676000", "092713.678000", "092713.681000", "092713.683000", "092713.685000", "092713.688000", "092713.690000", "092713.692000", "092713.704000", "092713.707000", "092713.709000", "092713.711000", "092721.969000", "092721.972000", "092721.975000", "092721.977000", "092721.980000"],
      "InstanceCreationTime": ["092133.662000", "092133.665000", "092133.668000", "092133.670000", "092133.672000", "092133.675000", "092133.677000", "092133.679000", "092133.682000", "092133.684000", "092133.686000", "092133.688000", "092133.699000", "092133.701000", "092133.704000", "092133.706000", "092133.708000", "092133.711000", "092133.713000", "092133.715000", "092133.718000", "092133.731000", "092133.733000", "092133.735000", "092133.738000", "092213.657000", "092213.660000", "092213.662000", "092213.665000", "092213.667000", "092213.669000", "092213.672000", "092213.674000", "092213.676000", "092213.679000", "092213.681000", "092213.683000", "092213.685000", "092213.688000", "092213.690000", "092213.692000", "092213.695000", "092213.697000", "092213.699000", "092213.702000", "092253.657000", "092253.660000", "092253.662000", "092253.664000", "092253.667000", "092253.669000", "092253.671000", "092253.674000", "092253.676000", "092253.679000", "092253.681000", "092253.683000", "092253.686000", "092253.688000", "092253.690000", "092253.693000", "092253.695000", "092253.697000", "092253.700000", "092253.702000", "092333.657000", "092333.660000", "092333.662000", "092333.664000", "092333.667000", "092333.669000", "092333.672000", "092333.674000", "092333.676000", "092333.679000", "092333.681000", "092333.684000", "092333.686000", "092333.688000", "092333.690000", "092333.693000", "092333.695000", "092333.698000", "092333.700000", "092333.702000", "092413.657000", "092413.660000", "092413.662000", "092413.664000", "092413.667000", "092413.669000", "092413.672000", "092413.674000", "092413.676000", "092413.679000", "092413.681000", "092413.683000", "092413.686000", "092413.688000", "092413.690000", "092413.693000", "092413.695000", "092413.698000", "092413.700000", "092413.702000", "092453.657000", "092453.660000", "092453.662000", "092453.664000", "092453.667000", "092453.669000", "092453.672000", "092453.674000", "092453.677000", "092453.679000", "092453.681000", "092453.684000", "092453.686000", "092453.688000", "092453.691000", "092453.693000", "092453.696000", "092453.698000", "092453.700000", "092453.703000", "092513.657000", "092513.660000", "092513.662000", "092513.665000", "092513.667000", "092513.670000", "092513.672000", "092513.674000", "092513.677000", "092513.679000", "092553.657000", "092553.660000", "092553.662000", "092553.665000", "092553.667000", "092553.669000", "092553.672000", "092553.674000", "092553.676000", "092553.679000", "092553.681000", "092553.683000", "092553.686000", "092553.688000", "092553.691000", "092553.693000", "092553.695000", "092553.698000", "092553.700000", "092553.702000", "092633.657000", "092633.660000", "092633.662000", "092633.664000", "092633.667000", "092633.669000", "092633.672000", "092633.674000", "092633.676000", "092633.678000", "092633.681000", "092633.683000", "092633.685000", "092633.688000", "092633.690000", "092633.693000", "092633.695000", "092633.697000", "092633.700000", "092633.702000", "092713.657000", "092713.660000", "092713.662000", "092713.665000", "092713.667000", "092713.669000", "092713.671000", "092713.674000", "092713.676000", "092713.678000", "092713.681000", "092713.683000", "092713.685000", "092713.688000", "092713.690000", "092713.692000", "092713.704000", "092713.707000", "092713.709000", "092713.711000", "092721.969000", "092721.972000", "092721.975000", "092721.977000", "092721.980000"],
      "InstanceNumber": [1, 2, 3, 4, 5, 6, 7, 8, 9, 10, 11, 12, 13, 14, 15, 16, 17, 18, 19, 20, 21, 22, 23, 24, 25, 26, 27, 28, 29, 30, 31, 32, 33, 34, 35, 36, 37, 38, 39, 40, 41, 42, 43, 44, 45, 46, 47, 48, 49, 50, 51, 52, 53, 54, 55, 56, 57, 58, 59, 60, 61, 62, 63, 64, 65, 66, 67, 68, 69, 70, 71, 72, 73, 74, 75, 76, 77, 78, 79, 80, 81, 82, 83, 84, 85, 86, 87, 88, 89, 90, 91, 92, 93, 94, 95, 96, 97, 98, 99, 100, 101, 102, 103, 104, 105, 106, 107, 108, 109, 110, 111, 112, 113, 114, 115, 116, 117, 118, 119, 120, 121, 122, 123, 124, 125, 126, 127, 128, 129, 130, 131, 132, 133, 134, 135, 136, 137, 138, 139, 140, 141, 142, 143, 144, 145, 146, 147, 148, 149, 150, 151, 152, 153, 154, 155, 156, 157, 158, 159, 160, 161, 162, 163, 164, 165, 166, 167, 168, 169, 170, 171, 172, 173, 174, 175, 176, 177, 178, 179, 180, 181, 182, 183, 184, 185, 186, 187, 188, 189, 190, 191, 192, 193, 194, 195, 196, 197, 198, 199, 200],
      "LargestImagePixelValue": [2258, 2259, 2257, 2266, 2256, 2261, 2254, 2271, 2256, 2254, 2259, 2257, 2260, 2252, 2257, 2264, 2255, 2254, 2258, 2254, 2265, 2262, 2264, 2263, 2261, 2259, 2265, 2257, 2250, 2246, 2250, 2260, 2258, 2259, 2263, 2259, 2266, 2258, 2271, 2263, 2257, 2259, 2251, 2251, 2250, 2263, 2257, 2262, 2261, 2267, 2253, 2260, 2254, 2267, 2252, 2245, 2249, 2248, 2250, 2252, 2256, 2261, 2261, 2253, 2263, 2260, 2247, 2246, 2242, 2247, 2247, 2260, 2256, 2245, 2255, 2261, 2253, 2255, 2259, 2260, 2257, 2261, 2250, 2260, 2248, 2258, 2254, 2256, 2261, 2258, 2257, 2252, 2254, 2246, 2249, 2253, 2257, 2246, 2254, 2245, 2246, 2253, 2249, 2251, 2262, 2259, 2253, 2249, 2253, 2247, 2254, 2252, 2252, 2253, 2250, 2257, 2244, 2259, 2251, 2248, 2256, 2263, 2256, 2247, 2259, 2259, 2250, 2259, 2259, 2261, 2248, 2263, 2253, 2261, 2255, 2250, 2259, 2263, 2260, 2255, 2249, 2245, 2252, 2248, 2244, 2251, 2259, 2250, 2251, 2253, 2260, 2257, 2248, 2260, 2250, 2258, 2260, 2258, 2255, 2260, 2258, 2250, 2240, 2245, 2259, 2240, 2251, 2247, 2248, 2255, 2255, 2240, 2248, 2245, 2246, 2246, 2247, 2239, 2246, 2252, 2240, 2246, 2259, 2263, 2245, 2253, 2252, 2259, 2257, 2252, 2255, 2250, 2262, 2260, 2258, 2260, 2252, 2255, 2257, 2257],
      "WindowCenter": [1035.0, 1035.0, 1035.0, 1035.0, 1034.0, 1034.0, 1034.0, 1034.0, 1034.0, 1034.0, 1034.0, 1034.0, 1034.0, 1034.0, 1034.0, 1034.0, 1034.0, 1034.0, 1034.0, 1034.0, 1034.0, 1034.0, 1034.0, 1034.0, 1034.0, 1034.0, 1034.0, 1034.0, 1034.0, 1034.0, 1034.0, 1034.0, 1034.0, 1034.0, 1034.0, 1034.0, 1034.0, 1034.0, 1034.0, 1034.0, 1034.0, 1034.0, 1034.0, 1034.0, 1035.0, 1034.0, 1034.0, 1034.0, 1034.0, 1034.0, 1034.0, 1034.0, 1034.0, 1034.0, 1034.0, 1034.0, 1034.0, 1034.0, 1034.0, 1034.0, 1034.0, 1034.0, 1034.0, 1034.0, 1034.0, 1034.0, 1034.0, 1034.0, 1034.0, 1034.0, 1034.0, 1034.0, 1034.0, 1034.0, 1034.0, 1034.0, 1034.0, 1034.0, 1034.0, 1034.0, 1034.0, 1033.0, 1034.0, 1034.0, 1034.0, 1034.0, 1034.0, 1034.0, 1033.0, 1033.0, 1033.0, 1033.0, 1034.0, 1034.0, 1034.0, 1033.0, 1034.0, 1034.0, 1033.0, 1033.0, 1033.0, 1033.0, 1034.0, 1033.0, 1033.0, 1033.0, 1033.0, 1033.0, 1033.0, 1033.0, 1033.0, 1033.0, 1033.0, 1033.0, 1033.0, 1033.0, 1033.0, 1033.0, 1033.0, 1033.0, 1033.0, 1033.0, 1033.0, 1033.0, 1033.0, 1033.0, 1033.0, 1033.0, 1033.0, 1033.0, 1033.0, 1033.0, 1033.0, 1033.0, 1033.0, 1033.0, 1033.0, 1033.0, 1033.0, 1033.0, 1033.0, 1033.0, 1033.0, 1033.0, 1033.0, 1033.0, 1033.0, 1033.0, 1033.0, 1033.0, 1033.0, 1033.0, 1033.0, 1033.0, 1033.0, 1033.0, 1033.0, 1033.0, 1033.0, 1033.0, 1033.0, 1033.0, 1033.0, 1033.0, 1033.0, 1033.0, 1033.0, 1033.0, 1033.0, 1033.0, 1033.0, 1033.0, 1033.0, 1033.0, 1033.0, 1033.0, 1033.0, 1033.0, 1033.0, 1033.0, 1033.0, 1033.0, 1033.0, 1033.0, 1033.0, 1033.0, 1033.0, 1033.0, 1033.0, 1033.0, 1033.0, 1033.0, 1033.0, 1033.0, 1033.0, 1033.0, 1033.0, 1033.0, 1033.0, 1033.0],
      "WindowWidth": [2316.0, 2315.0, 2315.0, 2315.0, 2315.0, 2315.0, 2315.0, 2315.0, 2315.0, 2315.0, 2315.0, 2315.0, 2315.0, 2315.0, 2315.0, 2315.0, 2315.0, 2314.0, 2314.0, 2314.0, 2314.0, 2314.0, 2314.0, 2314.0, 2314.0, 2314.0, 2314.0, 2314.0, 2314.0, 2314.0, 2314.0, 2314.0, 2314.0, 2314.0, 2314.0, 2314.0, 2314.0, 2314.0, 2314.0, 2314.0, 2314.0, 2314.0, 2314.0, 2314.0, 2314.0, 2314.0, 2313.0, 2314.0, 2313.0, 2314.0, 2313.0, 2314.0, 2314.0, 2313.0, 2313.0, 2313.0, 2313.0, 2313.0, 2313.0, 2313.0, 2313.0, 2313.0, 2313.0, 2313.0, 2313.0, 2313.0, 2313.0, 2313.0, 2313.0, 2313.0, 2313.0, 2313.0, 2313.0, 2313.0, 2313.0, 2313.0, 2313.0, 2313.0, 2313.0, 2313.0, 2312.0, 2312.0, 2312.0, 2312.0, 2313.0, 2313.0, 2312.0, 2313.0, 2312.0, 2312.0, 2312.0, 2312.0, 2312.0, 2312.0, 2312.0, 2312.0, 2312.0, 2312.0, 2312.0, 2312.0, 2312.0, 2312.0, 2312.0, 2312.0, 2312.0, 2312.0, 2312.0, 2312.0, 2312.0, 2312.0, 2312.0, 2312.0, 2312.0, 2312.0, 2312.0, 2312.0, 2312.0, 2312.0, 2312.0, 2311.0, 2312.0, 2311.0, 2312.0, 2312.0, 2311.0, 2311.0, 2311.0, 2312.0, 2311.0, 2311.0, 2311.0, 2311.0, 2311.0, 2311.0, 2311.0, 2311.0, 2311.0, 2311.0, 2311.0, 2311.0, 2311.0, 2311.0, 2311.0, 2311.0, 2311.0, 2311.0, 2311.0, 2311.0, 2311.0, 2311.0, 2311.0, 2311.0, 2311.0, 2311.0, 2311.0, 2311.0, 2311.0, 2311.0, 2311.0, 2311.0, 2311.0, 2311.0, 2311.0, 2311.0, 2311.0, 2311.0, 2311.0, 2311.0, 2311.0, 2311.0, 2311.0, 2311.0, 2310.0, 2310.0, 2311.0, 2310.0, 2310.0, 2310.0, 2310.0, 2310.0, 2310.0, 2310.0, 2310.0, 2310.0, 2310.0, 2310.0, 2310.0, 2310.0, 2310.0, 2310.0, 2310.0, 2310.0, 2310.0, 2310.0, 2310.0, 2310.0, 2310.0, 2310.0, 2310.0, 2310.0]
    },
    "slices": {}
  }
}