{
  "AcquisitionMatrixPE": 80,
  "AcquisitionNumber": 1,
  "AcquisitionTime": "08:55:57.195000",
  "BandwidthPerPixelPhaseEncode": 48.077,
  "BaseResolution": 80,
  "BodyPartExamined": "BRAIN",
  "CoilCombinationMethod": "Sum of Squares",
  "ConsistencyInfo": "N4_VE11C_LATEST_20160120",
  "ConversionSoftware": "dcm2niix",
  "ConversionSoftwareVersion": "v1.0.20220720",
  "DerivedVendorReportedEchoSpacing": 0.000519999,
  "DeviceSerialNumber": "66112",
  "DwellTime": 2.7e-06,
  "EchoTime": 0.035,
  "EchoTrainLength": 39,
  "EffectiveEchoSpacing": 0.00026,
  "FlipAngle": 90,
  "HeudiconvVersion": "0.13.1",
  "ImageOrientationPatientDICOM": [0.983041, 0.183228, 0.00754887, -0.176523, 0.934308, 0.309689],
  "ImageOrientationText": "Tra>Cor(17.8)>Sag(-2.8)",
  "ImageType": [
    "ORIGINAL",
    "PRIMARY",
    "M",
    "ND",
    "NORM",
    "MOSAIC"
],
  "ImagingFrequency": 123.252,
  "InPlanePhaseEncodingDirectionDICOM": "COL",
  "InstitutionAddress": "Maynard 3,Hanover,NH,US,03755",
  "InstitutionName": "Dartmouth College - PBS",
  "InstitutionalDepartmentName": "Department",
  "MRAcquisitionType": "2D",
  "MagneticFieldStrength": 3,
  "Manufacturer": "Siemens",
  "ManufacturersModelName": "Prisma",
  "MatrixCoilMode": "GRAPPA",
  "Modality": "MR",
  "NonlinearGradientCorrection": false,
  "ParallelReductionFactorInPlane": 2,
  "PartialFourier": 1,
  "PatientPosition": "HFS",
  "PercentPhaseFOV": 100,
  "PercentSampling": 100,
  "PhaseEncodingDirection": "j-",
  "PhaseEncodingSteps": 79,
  "PhaseResolution": 1,
  "PixelBandwidth": 2315,
  "ProcedureStepDescription": "dbic^QA",
  "ProtocolName": "func-bold_task-rest_acq-p2",
  "PulseSequenceDetails": "%SiemensSeq%\\ep2d_bold",
  "ReceiveCoilActiveElements": "HEA;HEP",
  "ReceiveCoilName": "Head_32",
  "ReconMatrixPE": 80,
  "RefLinesPE": 24,
  "RepetitionTime": 2,
  "SAR": 0.0555671,
  "ScanOptions": "FS",
  "ScanningSequence": "EP",
  "SequenceName": "*epfid2d1_80",
  "SequenceVariant": "SK",
  "SeriesDescription": "func-bold_task-rest_acq-p2",
  "SeriesNumber": 5,
  "ShimSetting": [4144, -7698, -7513, 301, -83, -115, -54, 71],
  "SliceThickness": 3.5,
  "SliceTiming": [0.99, 0, 1.055, 0.065, 1.1225, 0.1325, 1.1875, 0.1975, 1.2525, 0.2625, 1.32, 0.33, 1.385, 0.395, 1.4525, 0.4625, 1.5175, 0.5275, 1.5825, 0.5925, 1.65, 0.66, 1.715, 0.725, 1.7825, 0.7925, 1.8475, 0.8575, 1.9125, 0.9225],
  "SoftwareVersions": "syngo MR E11",
  "SpacingBetweenSlices": 3.99,
  "StationName": "AWP66112",
  "TaskName": "rest",
  "TotalReadoutTime": 0.02054,
  "TxRefAmp": 234.672,
  "dcmmeta_affine": [
    [-2.949124336242676, -0.5295683741569519, -0.1982661336660385, 143.27207946777344],
    [-0.5496838688850403, 2.8029253482818604, 1.220022201538086, -98.13157653808594],
    [0.022646624594926834, -0.9290679097175598, 3.7937233448028564, -21.60270118713379],
    [0.0, 0.0, 0.0, 1.0]
],
  "dcmmeta_reorient_transform": [
    [0.0, -1.0, 0.0, 79.0],
    [1.0, 0.0, 0.0, 0.0],
    [0.0, 0.0, 1.0, 0.0],
    [0.0, 0.0, 0.0, 1.0]
],
  "dcmmeta_shape": [80, 80, 30, 200],
  "dcmmeta_slice_dim": 2,
  "dcmmeta_version": 0.6,
  "global": {
    "const": {
      "AccessionNumber": "qa",
      "AcquisitionMatrix": [80, 0, 0, 80],
      "AngioFlag": "N",
      "BitsAllocated": 16,
      "BitsStored": 12,
      "BodyPartExamined": "BRAIN",
      "Columns": 480,
      "EchoNumbers": 1,
      "EchoTime": 35.0,
      "EchoTrainLength": 39,
      "FlipAngle": 90.0,
      "HighBit": 11,
      "ImageOrientationPatient": [0.98304146932204, 0.18322795660194, 0.00754887492513, -0.176522796916, 0.93430842642421, 0.3096893063728],
      "ImagePositionPatient": [-585.34737431957, -793.82134996889, -285.34197530624],
      "ImageType": [
        "ORIGINAL",
        "PRIMARY",
        "M",
        "ND",
        "NORM",
        "MOSAIC"
],
      "ImagedNucleus": "1H",
      "ImagingFrequency": 123.252473,
      "InPlanePhaseEncodingDirection": "COL",
      "MRAcquisitionType": "2D",
      "MagneticFieldStrength": 3.0,
      "Manufacturer": "SIEMENS",
      "ManufacturerModelName": "Prisma",
      "Modality": "MR",
      "NumberOfAverages": 1.0,
      "NumberOfPhaseEncodingSteps": 79,
      "PercentPhaseFieldOfView": 100.0,
      "PercentSampling": 100.0,
      "PerformedProcedureStepStartTime": "085001.004000",
      "PhotometricInterpretation": "MONOCHROME2",
      "PixelBandwidth": 2315.0,
      "PixelRepresentation": 0,
      "PixelSpacing": [3.0, 3.0],
      "ProtocolName": "func-bold_task-rest_acq-p2",
      "RepetitionTime": 2000.0,
      "Rows": 480,
      "SAR": 0.05556707303979,
      "SamplesPerPixel": 1,
      "ScanOptions": "FS",
      "ScanningSequence": "EP",
      "SequenceName": "*epfid2d1_80",
      "SequenceVariant": "SK",
      "SeriesDescription": "func-bold_task-rest_acq-p2",
      "SeriesNumber": 5,
      "SeriesTime": "085654.753000",
      "SliceLocation": -57.665006051696,
      "SliceThickness": 3.5,
      "SmallestImagePixelValue": 0,
      "SoftwareVersions": "syngo MR E11",
      "SpacingBetweenSlices": 3.9899999880721,
      "SpecificCharacterSet": "ISO_IR 100",
      "StudyID": "58",
      "StudyTime": "085000.903000",
      "TransmitCoilName": "Body",
      "VariableFlipAngleFlag": "N",
      "WindowCenterWidthExplanation": "Algo1",
      "dBdt": 0.0},
    "slices": {}
  },
  "time": {
    "samples": {
      "AcquisitionNumber": [1, 2, 3, 4, 5, 6, 7, 8, 9, 10, 11, 12, 13, 14, 15, 16, 17, 18, 19, 20, 21, 22, 23, 24, 25, 26, 27, 28, 29, 30, 31, 32, 33, 34, 35, 36, 37, 38, 39, 40, 41, 42, 43, 44, 45, 46, 47, 48, 49, 50, 51, 52, 53, 54, 55, 56, 57, 58, 59, 60, 61, 62, 63, 64, 65, 66, 67, 68, 69, 70, 71, 72, 73, 74, 75, 76, 77, 78, 79, 80, 81, 82, 83, 84, 85, 86, 87, 88, 89, 90, 91, 92, 93, 94, 95, 96, 97, 98, 99, 100, 101, 102, 103, 104, 105, 106, 107, 108, 109, 110, 111, 112, 113, 114, 115, 116, 117, 118, 119, 120, 121, 122, 123, 124, 125, 126, 127, 128, 129, 130, 131, 132, 133, 134, 135, 136, 137, 138, 139, 140, 141, 142, 143, 144, 145, 146, 147, 148, 149, 150, 151, 152, 153, 154, 155, 156, 157, 158, 159, 160, 161, 162, 163, 164, 165, 166, 167, 168, 169, 170, 171, 172, 173, 174, 175, 176, 177, 178, 179, 180, 181, 182, 183, 184, 185, 186, 187, 188, 189, 190, 191, 192, 193, 194, 195, 196, 197, 198, 199, 200],
      "AcquisitionTime": ["085557.195000", "085559.195000", "085601.195000", "085603.195000", "085605.195000", "085607.195000", "085609.195000", "085611.195000", "085613.195000", "085615.195000", "085617.195000", "085619.195000", "085621.195000", "085623.195000", "085625.195000", "085627.195000", "085629.195000", "085631.195000", "085633.195000", "085635.195000", "085637.195000", "085639.195000", "085641.195000", "085643.195000", "085645.195000", "085647.195000", "085649.195000", "085651.195000", "085653.195000", "085655.195000", "085657.195000", "085659.195000", "085701.195000", "085703.195000", "085705.195000", "085707.195000", "085709.195000", "085711.195000", "085713.195000", "085715.195000", "085717.195000", "085719.195000", "085721.195000", "085723.195000", "085725.195000", "085727.195000", "085729.195000", "085731.195000", "085733.195000", "085735.195000", "085737.195000", "085739.195000", "085741.195000", "085743.195000", "085745.195000", "085747.195000", "085749.195000", "085751.195000", "085753.195000", "085755.195000", "085757.195000", "085759.195000", "085801.195000", "085803.195000", "085805.195000", "085807.195000", "085809.195000", "085811.195000", "085813.195000", "085815.195000", "085817.195000", "085819.195000", "085821.195000", "085823.195000", "085825.195000", "085827.195000", "085829.195000", "085831.195000", "085833.195000", "085835.195000", "085837.195000", "085839.195000", "085841.195000", "085843.195000", "085845.195000", "085847.195000", "085849.195000", "085851.195000", "085853.195000", "085855.195000", "085857.195000", "085859.195000", "085901.195000", "085903.195000", "085905.195000", "085907.195000", "085909.195000", "085911.195000", "085913.195000", "085915.195000", "085917.195000", "085919.195000", "085921.195000", "085923.195000", "085925.195000", "085927.195000", "085929.195000", "085931.195000", "085933.195000", "085935.195000", "085937.195000", "085939.195000", "085941.195000", "085943.195000", "085945.195000", "085947.195000", "085949.195000", "085951.195000", "085953.195000", "085955.195000", "085957.195000", "085959.195000", "090001.195000", "090003.195000", "090005.195000", "090007.195000", "090009.195000", "090011.195000", "090013.195000", "090015.195000", "090017.195000", "090019.195000", "090021.195000", "090023.195000", "090025.195000", "090027.195000", "090029.195000", "090031.195000", "090033.195000", "090035.195000", "090037.195000", "090039.195000", "090041.195000", "090043.195000", "090045.195000", "090047.195000", "090049.195000", "090051.195000", "090053.195000", "090055.195000", "090057.195000", "090059.195000", "090101.195000", "090103.195000", "090105.195000", "090107.195000", "090109.195000", "090111.195000", "090113.195000", "090115.195000", "090117.195000", "090119.195000", "090121.195000", "090123.195000", "090125.195000", "090127.195000", "090129.195000", "090131.195000", "090133.195000", "090135.195000", "090137.195000", "090139.195000", "090141.195000", "090143.195000", "090145.195000", "090147.195000", "090149.195000", "090151.195000", "090153.195000", "090155.195000", "090157.195000", "090159.195000", "090201.195000", "090203.195000", "090205.195000", "090207.195000", "090209.195000", "090211.195000", "090213.195000", "090215.195000", "090217.195000", "090219.195000", "090221.195000", "090223.195000", "090225.195000", "090227.195000", "090229.195000", "090231.195000", "090233.195000", "090235.195000"],
      "ContentTime": ["085654.757000", "085654.760000", "085654.763000", "085654.766000", "085654.768000", "085654.771000", "085654.773000", "085654.776000", "085654.778000", "085654.781000", "085654.783000", "085654.786000", "085654.788000", "085654.791000", "085654.793000", "085654.796000", "085654.799000", "085654.801000", "085654.804000", "085654.806000", "085654.818000", "085654.821000", "085654.823000", "085654.826000", "085654.828000", "085654.831000", "085654.833000", "085654.836000", "085654.838000", "085734.750000", "085734.753000", "085734.756000", "085734.759000", "085734.761000", "085735.031000", "085735.034000", "085735.036000", "085735.039000", "085735.042000", "085735.044000", "085735.047000", "085735.049000", "085735.052000", "085735.054000", "085735.057000", "085735.059000", "085735.062000", "085735.065000", "085735.067000", "085814.751000", "085814.753000", "085814.756000", "085814.759000", "085814.761000", "085814.764000", "085814.766000", "085814.769000", "085814.772000", "085814.774000", "085814.777000", "085814.779000", "085814.782000", "085814.784000", "085814.787000", "085814.790000", "085814.792000", "085814.806000", "085814.808000", "085814.811000", "085854.964000", "085854.967000", "085854.970000", "085854.972000", "085854.975000", "085854.977000", "085854.980000", "085854.982000", "085854.985000", "085854.987000", "085855.011000", "085855.013000", "085855.016000", "085855.019000", "085855.021000", "085855.024000", "085855.026000", "085855.029000", "085855.031000", "085855.034000", "085934.752000", "085934.754000", "085934.757000", "085934.760000", "085934.762000", "085934.765000", "085934.767000", "085934.770000", "085934.772000", "085934.775000", "085934.778000", "085934.780000", "085934.783000", "085934.785000", "085934.788000", "085934.791000", "085934.793000", "085934.796000", "085934.798000", "085934.801000", "090014.751000", "090014.753000", "090014.756000", "090014.759000", "090014.761000", "090014.764000", "090014.766000", "090014.769000", "090014.772000", "090014.774000", "090014.777000", "090014.779000", "090014.782000", "090014.784000", "090014.787000", "090014.789000", "090014.792000", "090014.794000", "090014.797000", "090014.800000", "090054.750000", "090054.753000", "090054.756000", "090054.759000", "090054.761000", "090054.764000", "090054.766000", "090054.769000", "090054.771000", "090054.774000", "090054.776000", "090054.779000", "090054.782000", "090054.785000", "090054.787000", "090054.790000", "090054.793000", "090054.795000", "090054.798000", "090054.801000", "090134.752000", "090134.754000", "090134.757000", "090134.760000", "090134.762000", "090134.765000", "090134.768000", "090134.770000", "090134.773000", "090134.775000", "090134.778000", "090134.781000", "090134.783000", "090134.786000", "090134.788000", "090134.791000", "090134.793000", "090134.796000", "090134.799000", "090134.801000", "090214.751000", "090214.754000", "090214.756000", "090214.759000", "090214.762000", "090214.764000", "090214.767000", "090214.769000", "090214.772000", "090214.775000", "090214.777000", "090214.780000", "090214.782000", "090214.785000", "090214.787000", "090214.790000", "090214.792000", "090214.795000", "090214.798000", "090214.800000", "090236.653000", "090236.656000", "090236.659000", "090236.662000", "090236.664000", "090236.667000", "090236.670000", "090236.672000", "090236.675000", "090236.678000", "090236.681000"],
      "InstanceCreationTime": ["085654.757000", "085654.760000", "085654.763000", "085654.766000", "085654.768000", "085654.771000", "085654.773000", "085654.776000", "085654.778000", "085654.781000", "085654.783000", "085654.786000", "085654.788000", "085654.791000", "085654.793000", "085654.796000", "085654.799000", "085654.801000", "085654.804000", "085654.806000", "085654.818000", "085654.821000", "085654.823000", "085654.826000", "085654.828000", "085654.831000", "085654.833000", "085654.836000", "085654.838000", "085734.750000", "085734.753000", "085734.756000", "085734.759000", "085734.761000", "085735.031000", "085735.034000", "085735.036000", "085735.039000", "085735.042000", "085735.044000", "085735.047000", "085735.049000", "085735.052000", "085735.054000", "085735.057000", "085735.059000", "085735.062000", "085735.065000", "085735.067000", "085814.751000", "085814.753000", "085814.756000", "085814.759000", "085814.761000", "085814.764000", "085814.766000", "085814.769000", "085814.772000", "085814.774000", "085814.777000", "085814.779000", "085814.782000", "085814.784000", "085814.787000", "085814.790000", "085814.792000", "085814.806000", "085814.808000", "085814.811000", "085854.964000", "085854.967000", "085854.970000", "085854.972000", "085854.975000", "085854.977000", "085854.980000", "085854.982000", "085854.985000", "085854.987000", "085855.011000", "085855.013000", "085855.016000", "085855.019000", "085855.021000", "085855.024000", "085855.026000", "085855.029000", "085855.031000", "085855.034000", "085934.752000", "085934.754000", "085934.757000", "085934.760000", "085934.762000", "085934.765000", "085934.767000", "085934.770000", "085934.772000", "085934.775000", "085934.778000", "085934.780000", "085934.783000", "085934.785000", "085934.788000", "085934.791000", "085934.793000", "085934.796000", "085934.798000", "085934.801000", "090014.751000", "090014.753000", "090014.756000", "090014.759000", "090014.761000", "090014.764000", "090014.766000", "090014.769000", "090014.772000", "090014.774000", "090014.777000", "090014.779000", "090014.782000", "090014.784000", "090014.787000", "090014.789000", "090014.792000", "090014.794000", "090014.797000", "090014.800000", "090054.750000", "090054.753000", "090054.756000", "090054.759000", "090054.761000", "090054.764000", "090054.766000", "090054.769000", "090054.771000", "090054.774000", "090054.776000", "090054.779000", "090054.782000", "090054.785000", "090054.787000", "090054.790000", "090054.793000", "090054.795000", "090054.798000", "090054.801000", "090134.752000", "090134.754000", "090134.757000", "090134.760000", "090134.762000", "090134.765000", "090134.768000", "090134.770000", "090134.773000", "090134.775000", "090134.778000", "090134.781000", "090134.783000", "090134.786000", "090134.788000", "090134.791000", "090134.793000", "090134.796000", "090134.799000", "090134.801000", "090214.751000", "090214.754000", "090214.756000", "090214.759000", "090214.762000", "090214.764000", "090214.767000", "090214.769000", "090214.772000", "090214.775000", "090214.777000", "090214.780000", "090214.782000", "090214.785000", "090214.787000", "090214.790000", "090214.792000", "090214.795000", "090214.798000", "090214.800000", "090236.653000", "090236.656000", "090236.659000", "090236.662000", "090236.664000", "090236.667000", "090236.670000", "090236.672000", "090236.675000", "090236.678000", "090236.681000"],
      "InstanceNumber": [1, 2, 3, 4, 5, 6, 7, 8, 9, 10, 11, 12, 13, 14, 15, 16, 17, 18, 19, 20, 21, 22, 23, 24, 25, 26, 27, 28, 29, 30, 31, 32, 33, 34, 35, 36, 37, 38, 39, 40, 41, 42, 43, 44, 45, 46, 47, 48, 49, 50, 51, 52, 53, 54, 55, 56, 57, 58, 59, 60, 61, 62, 63, 64, 65, 66, 67, 68, 69, 70, 71, 72, 73, 74, 75, 76, 77, 78, 79, 80, 81, 82, 83, 84, 85, 86, 87, 88, 89, 90, 91, 92, 93, 94, 95, 96, 97, 98, 99, 100, 101, 102, 103, 104, 105, 106, 107, 108, 109, 110, 111, 112, 113, 114, 115, 116, 117, 118, 119, 120, 121, 122, 123, 124, 125, 126, 127, 128, 129, 130, 131, 132, 133, 134, 135, 136, 137, 138, 139, 140, 141, 142, 143, 144, 145, 146, 147, 148, 149, 150, 151, 152, 153, 154, 155, 156, 157, 158, 159, 160, 161, 162, 163, 164, 165, 166, 167, 168, 169, 170, 171, 172, 173, 174, 175, 176, 177, 178, 179, 180, 181, 182, 183, 184, 185, 186, 187, 188, 189, 190, 191, 192, 193, 194, 195, 196, 197, 198, 199, 200],
      "LargestImagePixelValue": [2048, 2049, 2050, 2059, 2051, 2047, 2049, 2061, 2052, 2055, 2053, 2057, 2052, 2053, 2059, 2058, 2060, 2052, 2053, 2062, 2061, 2056, 2051, 2047, 2048, 2060, 2052, 2053, 2059, 2049, 2048, 2052, 2055, 2055, 2051, 2055, 2058, 2057, 2059, 2054, 2049, 2050, 2055, 2059, 2051, 2053, 2050, 2048, 2060, 2058, 2046, 2051, 2046, 2053, 2053, 2051, 2054, 2046, 2053, 2055, 2052, 2054, 2057, 2051, 2057, 2052, 2057, 2052, 2050, 2049, 2054, 2053, 2057, 2055, 2054, 2049, 2048, 2051, 2065, 2052, 2059, 2054, 2049, 2049, 2052, 2052, 2052, 2049, 2052, 2051, 2051, 2056, 2057, 2051, 2058, 2053, 2059, 2053, 2055, 2050, 2054, 2063, 2053, 2055, 2053, 2054, 2051, 2051, 2058, 2056, 2049, 2050, 2055, 2051, 2051, 2050, 2051, 2052, 2051, 2058, 2057, 2055, 2054, 2054, 2059, 2052, 2054, 2054, 2053, 2053, 2049, 2056, 2050, 2057, 2050, 2049, 2048, 2060, 2051, 2052, 2051, 2055, 2059, 2050, 2050, 2053, 2053, 2054, 2054, 2052, 2050, 2050, 2058, 2057, 2052, 2052, 2054, 2054, 2061, 2055, 2050, 2051, 2051, 2054, 2045, 2054, 2059, 2053, 2056, 2055, 2059, 2049, 2056, 2055, 2052, 2053, 2059, 2060, 2050, 2055, 2055, 2056, 2053, 2054, 2054, 2044, 2049, 2059, 2049, 2053, 2059, 2051, 2046, 2056, 2048, 2054, 2054, 2048, 2058, 2054],
      "WindowCenter": [987.0, 986.0, 985.0, 985.0, 985.0, 986.0, 985.0, 985.0, 985.0, 985.0, 985.0, 985.0, 986.0, 985.0, 985.0, 985.0, 985.0, 985.0, 985.0, 986.0, 986.0, 985.0, 985.0, 985.0, 985.0, 985.0, 985.0, 985.0, 986.0, 986.0, 986.0, 985.0, 986.0, 985.0, 985.0, 985.0, 985.0, 985.0, 985.0, 985.0, 985.0, 985.0, 985.0, 985.0, 985.0, 985.0, 985.0, 985.0, 985.0, 985.0, 985.0, 985.0, 986.0, 985.0, 985.0, 985.0, 985.0, 985.0, 985.0, 986.0, 985.0, 985.0, 985.0, 985.0, 986.0, 986.0, 985.0, 985.0, 985.0, 985.0, 985.0, 985.0, 985.0, 985.0, 986.0, 986.0, 985.0, 985.0, 985.0, 985.0, 986.0, 985.0, 986.0, 985.0, 986.0, 985.0, 986.0, 985.0, 985.0, 986.0, 986.0, 986.0, 985.0, 985.0, 985.0, 986.0, 986.0, 985.0, 985.0, 985.0, 986.0, 986.0, 985.0, 985.0, 985.0, 985.0, 986.0, 985.0, 985.0, 986.0, 985.0, 985.0, 985.0, 985.0, 985.0, 985.0, 985.0, 985.0, 986.0, 986.0, 985.0, 986.0, 986.0, 985.0, 985.0, 985.0, 985.0, 986.0, 986.0, 985.0, 985.0, 985.0, 985.0, 985.0, 985.0, 985.0, 985.0, 986.0, 985.0, 986.0, 986.0, 985.0, 985.0, 985.0, 985.0, 985.0, 986.0, 986.0, 985.0, 985.0, 985.0, 985.0, 986.0, 985.0, 986.0, 985.0, 985.0, 985.0, 985.0, 985.0, 985.0, 985.0, 986.0, 985.0, 986.0, 985.0, 985.0, 985.0, 985.0, 985.0, 986.0, 985.0, 985.0, 986.0, 985.0, 985.0, 985.0, 986.0, 985.0, 985.0, 985.0, 985.0, 985.0, 985.0, 986.0, 985.0, 986.0, 986.0, 986.0, 985.0, 986.0, 985.0, 985.0, 985.0, 985.0, 985.0, 986.0, 985.0, 985.0, 986.0],
      "WindowWidth": [2156.0, 2154.0, 2154.0, 2154.0, 2154.0, 2155.0, 2154.0, 2154.0, 2154.0, 2154.0, 2154.0, 2154.0, 2155.0, 2154.0, 2154.0, 2154.0, 2154.0, 2155.0, 2154.0, 2155.0, 2155.0, 2155.0, 2154.0, 2155.0, 2155.0, 2155.0, 2154.0, 2155.0, 2155.0, 2155.0, 2155.0, 2154.0, 2155.0, 2154.0, 2154.0, 2154.0, 2154.0, 2154.0, 2154.0, 2154.0, 2155.0, 2154.0, 2154.0, 2154.0, 2154.0, 2154.0, 2154.0, 2154.0, 2154.0, 2154.0, 2154.0, 2154.0, 2155.0, 2154.0, 2154.0, 2154.0, 2154.0, 2154.0, 2154.0, 2155.0, 2154.0, 2154.0, 2154.0, 2154.0, 2154.0, 2154.0, 2154.0, 2154.0, 2154.0, 2154.0, 2154.0, 2154.0, 2154.0, 2154.0, 2154.0, 2154.0, 2154.0, 2154.0, 2154.0, 2154.0, 2154.0, 2154.0, 2154.0, 2154.0, 2154.0, 2154.0, 2155.0, 2154.0, 2154.0, 2154.0, 2155.0, 2154.0, 2154.0, 2154.0, 2154.0, 2155.0, 2154.0, 2154.0, 2154.0, 2154.0, 2154.0, 2154.0, 2154.0, 2154.0, 2154.0, 2154.0, 2154.0, 2154.0, 2154.0, 2155.0, 2153.0, 2154.0, 2154.0, 2154.0, 2154.0, 2153.0, 2154.0, 2154.0, 2154.0, 2154.0, 2154.0, 2154.0, 2154.0, 2154.0, 2154.0, 2154.0, 2153.0, 2154.0, 2154.0, 2153.0, 2153.0, 2154.0, 2154.0, 2153.0, 2153.0, 2153.0, 2154.0, 2154.0, 2153.0, 2154.0, 2154.0, 2153.0, 2153.0, 2153.0, 2153.0, 2153.0, 2154.0, 2154.0, 2153.0, 2153.0, 2153.0, 2153.0, 2154.0, 2153.0, 2154.0, 2153.0, 2153.0, 2153.0, 2153.0, 2153.0, 2153.0, 2153.0, 2154.0, 2153.0, 2154.0, 2153.0, 2153.0, 2153.0, 2153.0, 2153.0, 2154.0, 2153.0, 2153.0, 2154.0, 2153.0, 2153.0, 2153.0, 2154.0, 2153.0, 2153.0, 2153.0, 2153.0, 2153.0, 2153.0, 2154.0, 2153.0, 2154.0, 2154.0, 2154.0, 2153.0, 2154.0, 2153.0, 2153.0, 2153.0, 2153.0, 2153.0, 2153.0, 2153.0, 2153.0, 2154.0]
    },
    "slices": {}
  }
}