{
  "AcquisitionMatrixPE": 80,
  "AcquisitionNumber": 1,
  "AcquisitionTime": "10:15:40.510000",
  "BandwidthPerPixelPhaseEncode": 25,
  "BaseResolution": 80,
  "BodyPartExamined": "BRAIN",
  "CoilCombinationMethod": "Sum of Squares",
  "ConsistencyInfo": "N4_VE11C_LATEST_20160120",
  "ConversionSoftware": "dcm2niix",
  "ConversionSoftwareVersion": "v1.0.20220720",
  "DerivedVendorReportedEchoSpacing": 0.0005,
  "DeviceSerialNumber": "66112",
  "DwellTime": 2.7e-06,
  "EchoTime": 0.03,
  "EchoTrainLength": 80,
  "EffectiveEchoSpacing": 0.0005,
  "FlipAngle": 77,
  "HeudiconvVersion": "0.13.1",
  "ImageOrientationPatientDICOM": [0.99996, 0.00767879, 0.00458342, -0.00872651, 0.949889, 0.312465],
  "ImageOrientationText": "Tra>Cor(18.2)>Sag(0.1)",
  "ImageType": [
    "ORIGINAL",
    "PRIMARY",
    "M",
    "ND",
    "NORM",
    "MOSAIC"
],
  "ImagingFrequency": 123.252,
  "InPlanePhaseEncodingDirectionDICOM": "COL",
  "InstitutionAddress": "Maynard 3,Hanover,NH,US,03755",
  "InstitutionName": "Dartmouth College - PBS",
  "InstitutionalDepartmentName": "Department",
  "MRAcquisitionType": "2D",
  "MagneticFieldStrength": 3,
  "Manufacturer": "Siemens",
  "ManufacturersModelName": "Prisma",
  "MatrixCoilMode": "SENSE",
  "Modality": "MR",
  "NonlinearGradientCorrection": false,
  "PartialFourier": 1,
  "PatientPosition": "HFS",
  "PercentPhaseFOV": 100,
  "PercentSampling": 100,
  "PhaseEncodingDirection": "j-",
  "PhaseEncodingSteps": 80,
  "PhaseResolution": 1,
  "PixelBandwidth": 2315,
  "ProcedureStepDescription": "dbic^QA",
  "ProtocolName": "func-bold_fa-77",
  "PulseSequenceDetails": "%SiemensSeq%\\ep2d_bold",
  "ReceiveCoilActiveElements": "HEA;HEP",
  "ReceiveCoilName": "Head_32",
  "ReconMatrixPE": 80,
  "RepetitionTime": 2,
  "SAR": 0.0436831,
  "ScanOptions": "FS",
  "ScanningSequence": "EP",
  "SequenceName": "*epfid2d1_80",
  "SequenceVariant": "SK",
  "SeriesDescription": "func-bold_fa-77",
  "SeriesNumber": 8,
  "ShimSetting": [4152, -7695, -7518, 237, -57, -100, -39, 97],
  "SliceThickness": 3.5,
  "SliceTiming": [0.99, 0, 1.055, 0.065, 1.12, 0.13, 1.1875, 0.1975, 1.2525, 0.2625, 1.32, 0.33, 1.385, 0.395, 1.45, 0.46, 1.5175, 0.5275, 1.5825, 0.5925, 1.65, 0.66, 1.715, 0.725, 1.78, 0.79, 1.8475, 0.8575, 1.9125, 0.9225],
  "SoftwareVersions": "syngo MR E11",
  "SpacingBetweenSlices": 3.99,
  "StationName": "AWP66112",
  "TotalReadoutTime": 0.0395,
  "TxRefAmp": 226.881,
  "dcmmeta_affine": [
    [-2.999880075454712, -0.02617953158915043, 0.007798006758093834, 121.36247253417969],
    [-0.02303638495504856, 2.84966778755188, 1.2468441724777222, -114.9515609741211],
    [0.013750256039202213, -0.9373942613601685, 3.7901742458343506, -9.678925514221191],
    [0.0, 0.0, 0.0, 1.0]
],
  "dcmmeta_reorient_transform": [
    [0.0, -1.0, 0.0, 79.0],
    [1.0, 0.0, 0.0, 0.0],
    [0.0, 0.0, 1.0, 0.0],
    [0.0, 0.0, 0.0, 1.0]
],
  "dcmmeta_shape": [80, 80, 30, 200],
  "dcmmeta_slice_dim": 2,
  "dcmmeta_version": 0.6,
  "global": {
    "const": {
      "AccessionNumber": "qa",
      "AcquisitionMatrix": [80, 0, 0, 80],
      "AngioFlag": "N",
      "BitsAllocated": 16,
      "BitsStored": 12,
      "BodyPartExamined": "BRAIN",
      "Columns": 480,
      "EchoNumbers": 1,
      "EchoTime": 30.0,
      "EchoTrainLength": 80,
      "FlipAngle": 77.0,
      "HighBit": 11,
      "ImageOrientationPatient": [0.99996001339289, 0.00767879475437, 0.00458341863915, -0.0087265104502, 0.94988927264692, 0.31246474637256],
      "ImagePositionPatient": [-714.03439411048, -684.71303469393, -273.96196900008],
      "ImageType": [
        "ORIGINAL",
        "PRIMARY",
        "M",
        "ND",
        "NORM",
        "MOSAIC"
],
      "ImagedNucleus": "1H",
      "ImagingFrequency": 123.252359,
      "InPlanePhaseEncodingDirection": "COL",
      "MRAcquisitionType": "2D",
      "MagneticFieldStrength": 3.0,
      "Manufacturer": "SIEMENS",
      "ManufacturerModelName": "Prisma",
      "Modality": "MR",
      "NumberOfAverages": 1.0,
      "NumberOfPhaseEncodingSteps": 80,
      "PercentPhaseFieldOfView": 100.0,
      "PercentSampling": 100.0,
      "PerformedProcedureStepStartTime": "100002.637000",
      "PhotometricInterpretation": "MONOCHROME2",
      "PixelBandwidth": 2315.0,
      "PixelRepresentation": 0,
      "PixelSpacing": [3.0, 3.0],
      "ProtocolName": "func-bold_fa-77",
      "RepetitionTime": 2000.0,
      "Rows": 480,
      "SAR": 0.04368306319976,
      "SamplesPerPixel": 1,
      "ScanOptions": "FS",
      "ScanningSequence": "EP",
      "SequenceName": "*epfid2d1_80",
      "SequenceVariant": "SK",
      "SeriesDescription": "func-bold_fa-77",
      "SeriesNumber": 8,
      "SeriesTime": "101633.284000",
      "SliceLocation": -44.878471345578,
      "SliceThickness": 3.5,
      "SmallestImagePixelValue": 0,
      "SoftwareVersions": "syngo MR E11",
      "SpacingBetweenSlices": 3.9900001368408,
      "SpecificCharacterSet": "ISO_IR 100",
      "StudyID": "6",
      "StudyTime": "100002.580000",
      "TransmitCoilName": "Body",
      "VariableFlipAngleFlag": "N",
      "WindowCenterWidthExplanation": "Algo1",
      "dBdt": 0.0},
    "slices": {}
  },
  "time": {
    "samples": {
      "AcquisitionNumber": [1, 2, 3, 4, 5, 6, 7, 8, 9, 10, 11, 12, 13, 14, 15, 16, 17, 18, 19, 20, 21, 22, 23, 24, 25, 26, 27, 28, 29, 30, 31, 32, 33, 34, 35, 36, 37, 38, 39, 40, 41, 42, 43, 44, 45, 46, 47, 48, 49, 50, 51, 52, 53, 54, 55, 56, 57, 58, 59, 60, 61, 62, 63, 64, 65, 66, 67, 68, 69, 70, 71, 72, 73, 74, 75, 76, 77, 78, 79, 80, 81, 82, 83, 84, 85, 86, 87, 88, 89, 90, 91, 92, 93, 94, 95, 96, 97, 98, 99, 100, 101, 102, 103, 104, 105, 106, 107, 108, 109, 110, 111, 112, 113, 114, 115, 116, 117, 118, 119, 120, 121, 122, 123, 124, 125, 126, 127, 128, 129, 130, 131, 132, 133, 134, 135, 136, 137, 138, 139, 140, 141, 142, 143, 144, 145, 146, 147, 148, 149, 150, 151, 152, 153, 154, 155, 156, 157, 158, 159, 160, 161, 162, 163, 164, 165, 166, 167, 168, 169, 170, 171, 172, 173, 174, 175, 176, 177, 178, 179, 180, 181, 182, 183, 184, 185, 186, 187, 188, 189, 190, 191, 192, 193, 194, 195, 196, 197, 198, 199, 200],
      "AcquisitionTime": ["101540.510000", "101542.510000", "101544.510000", "101546.510000", "101548.510000", "101550.510000", "101552.510000", "101554.510000", "101556.510000", "101558.510000", "101600.510000", "101602.510000", "101604.510000", "101606.510000", "101608.510000", "101610.510000", "101612.510000", "101614.510000", "101616.510000", "101618.510000", "101620.510000", "101622.510000", "101624.510000", "101626.510000", "101628.510000", "101630.510000", "101632.510000", "101634.510000", "101636.510000", "101638.510000", "101640.510000", "101642.510000", "101644.510000", "101646.510000", "101648.510000", "101650.510000", "101652.510000", "101654.510000", "101656.510000", "101658.510000", "101700.510000", "101702.510000", "101704.510000", "101706.510000", "101708.510000", "101710.510000", "101712.510000", "101714.510000", "101716.510000", "101718.510000", "101720.510000", "101722.510000", "101724.510000", "101726.510000", "101728.510000", "101730.510000", "101732.510000", "101734.510000", "101736.510000", "101738.510000", "101740.510000", "101742.510000", "101744.510000", "101746.510000", "101748.510000", "101750.510000", "101752.510000", "101754.510000", "101756.510000", "101758.510000", "101800.510000", "101802.510000", "101804.510000", "101806.510000", "101808.510000", "101810.510000", "101812.510000", "101814.510000", "101816.510000", "101818.510000", "101820.510000", "101822.510000", "101824.510000", "101826.510000", "101828.510000", "101830.510000", "101832.510000", "101834.510000", "101836.510000", "101838.510000", "101840.510000", "101842.510000", "101844.510000", "101846.510000", "101848.510000", "101850.510000", "101852.510000", "101854.510000", "101856.510000", "101858.510000", "101900.510000", "101902.510000", "101904.510000", "101906.510000", "101908.510000", "101910.510000", "101912.510000", "101914.510000", "101916.510000", "101918.510000", "101920.510000", "101922.510000", "101924.510000", "101926.510000", "101928.510000", "101930.510000", "101932.510000", "101934.510000", "101936.510000", "101938.510000", "101940.510000", "101942.510000", "101944.510000", "101946.510000", "101948.510000", "101950.510000", "101952.510000", "101954.510000", "101956.510000", "101958.510000", "102000.510000", "102002.510000", "102004.510000", "102006.510000", "102008.510000", "102010.510000", "102012.510000", "102014.510000", "102016.510000", "102018.510000", "102020.510000", "102022.510000", "102024.510000", "102026.510000", "102028.510000", "102030.510000", "102032.510000", "102034.510000", "102036.510000", "102038.510000", "102040.510000", "102042.510000", "102044.510000", "102046.510000", "102048.510000", "102050.510000", "102052.510000", "102054.510000", "102056.510000", "102058.510000", "102100.510000", "102102.510000", "102104.510000", "102106.510000", "102108.510000", "102110.510000", "102112.510000", "102114.510000", "102116.510000", "102118.510000", "102120.510000", "102122.510000", "102124.510000", "102126.510000", "102128.510000", "102130.510000", "102132.510000", "102134.510000", "102136.510000", "102138.510000", "102140.510000", "102142.510000", "102144.510000", "102146.510000", "102148.510000", "102150.510000", "102152.510000", "102154.510000", "102156.510000", "102158.510000", "102200.510000", "102202.510000", "102204.510000", "102206.510000", "102208.510000", "102210.510000", "102212.510000", "102214.510000", "102216.510000", "102218.510000"],
      "ContentTime": ["101633.287000", "101633.290000", "101633.296000", "101633.299000", "101633.301000", "101633.304000", "101633.306000", "101633.309000", "101633.311000", "101633.314000", "101633.316000", "101633.319000", "101633.321000", "101633.324000", "101633.326000", "101633.329000", "101633.331000", "101633.334000", "101633.337000", "101633.339000", "101633.342000", "101633.344000", "101633.347000", "101633.349000", "101633.352000", "101633.361000", "101713.283000", "101713.286000", "101713.289000", "101713.291000", "101713.294000", "101713.296000", "101713.299000", "101713.301000", "101713.304000", "101713.306000", "101713.309000", "101713.311000", "101713.314000", "101713.316000", "101713.319000", "101713.322000", "101713.324000", "101713.327000", "101713.329000", "101713.332000", "101753.284000", "101753.287000", "101753.290000", "101753.293000", "101753.296000", "101753.298000", "101753.301000", "101753.304000", "101753.307000", "101753.310000", "101753.313000", "101753.316000", "101753.319000", "101753.322000", "101753.325000", "101753.328000", "101753.330000", "101753.333000", "101753.336000", "101753.339000", "101833.283000", "101833.285000", "101833.288000", "101833.290000", "101833.293000", "101833.295000", "101833.298000", "101833.308000", "101833.310000", "101833.313000", "101833.315000", "101833.318000", "101833.320000", "101833.323000", "101833.325000", "101833.328000", "101833.330000", "101833.333000", "101833.335000", "101833.338000", "101913.283000", "101913.285000", "101913.288000", "101913.290000", "101913.293000", "101913.296000", "101913.298000", "101913.301000", "101913.303000", "101913.306000", "101913.308000", "101913.311000", "101913.313000", "101913.316000", "101913.318000", "101913.321000", "101913.323000", "101913.326000", "101913.328000", "101913.331000", "101953.283000", "101953.286000", "101953.289000", "101953.291000", "101953.294000", "101953.296000", "101953.299000", "101953.302000", "101953.304000", "101953.307000", "101953.309000", "101953.312000", "101953.314000", "101953.317000", "101953.319000", "101953.322000", "101953.324000", "101953.327000", "101953.329000", "101953.332000", "102033.282000", "102033.285000", "102033.288000", "102033.290000", "102033.293000", "102033.295000", "102033.298000", "102033.300000", "102033.303000", "102033.305000", "102033.308000", "102033.311000", "102033.313000", "102033.316000", "102033.318000", "102033.321000", "102033.323000", "102033.326000", "102033.328000", "102033.331000", "102113.282000", "102113.285000", "102113.288000", "102113.290000", "102113.293000", "102113.295000", "102113.298000", "102113.301000", "102113.303000", "102113.306000", "102113.308000", "102113.311000", "102113.313000", "102113.316000", "102113.318000", "102113.321000", "102113.323000", "102113.326000", "102113.329000", "102113.331000", "102153.284000", "102153.286000", "102153.289000", "102153.291000", "102153.294000", "102153.297000", "102153.299000", "102153.302000", "102153.304000", "102153.307000", "102153.309000", "102153.312000", "102153.314000", "102153.317000", "102153.320000", "102153.322000", "102153.325000", "102153.327000", "102153.330000", "102153.332000", "102219.573000", "102219.575000", "102219.578000", "102219.581000", "102219.583000", "102219.586000", "102219.588000", "102219.591000", "102219.593000", "102219.596000", "102219.615000", "102219.628000", "102219.631000", "102219.633000"],
      "InstanceCreationTime": ["101633.287000", "101633.290000", "101633.296000", "101633.299000", "101633.301000", "101633.304000", "101633.306000", "101633.309000", "101633.311000", "101633.314000", "101633.316000", "101633.319000", "101633.321000", "101633.324000", "101633.326000", "101633.329000", "101633.331000", "101633.334000", "101633.337000", "101633.339000", "101633.342000", "101633.344000", "101633.347000", "101633.349000", "101633.352000", "101633.361000", "101713.283000", "101713.286000", "101713.289000", "101713.291000", "101713.294000", "101713.296000", "101713.299000", "101713.301000", "101713.304000", "101713.306000", "101713.309000", "101713.311000", "101713.314000", "101713.316000", "101713.319000", "101713.322000", "101713.324000", "101713.327000", "101713.329000", "101713.332000", "101753.284000", "101753.287000", "101753.290000", "101753.293000", "101753.296000", "101753.298000", "101753.301000", "101753.304000", "101753.307000", "101753.310000", "101753.313000", "101753.316000", "101753.319000", "101753.322000", "101753.325000", "101753.328000", "101753.330000", "101753.333000", "101753.336000", "101753.339000", "101833.283000", "101833.285000", "101833.288000", "101833.290000", "101833.293000", "101833.295000", "101833.298000", "101833.308000", "101833.310000", "101833.313000", "101833.315000", "101833.318000", "101833.320000", "101833.323000", "101833.325000", "101833.328000", "101833.330000", "101833.333000", "101833.335000", "101833.338000", "101913.283000", "101913.285000", "101913.288000", "101913.290000", "101913.293000", "101913.296000", "101913.298000", "101913.301000", "101913.303000", "101913.306000", "101913.308000", "101913.311000", "101913.313000", "101913.316000", "101913.318000", "101913.321000", "101913.323000", "101913.326000", "101913.328000", "101913.331000", "101953.283000", "101953.286000", "101953.289000", "101953.291000", "101953.294000", "101953.296000", "101953.299000", "101953.302000", "101953.304000", "101953.307000", "101953.309000", "101953.312000", "101953.314000", "101953.317000", "101953.319000", "101953.322000", "101953.324000", "101953.327000", "101953.329000", "101953.332000", "102033.282000", "102033.285000", "102033.288000", "102033.290000", "102033.293000", "102033.295000", "102033.298000", "102033.300000", "102033.303000", "102033.305000", "102033.308000", "102033.311000", "102033.313000", "102033.316000", "102033.318000", "102033.321000", "102033.323000", "102033.326000", "102033.328000", "102033.331000", "102113.282000", "102113.285000", "102113.288000", "102113.290000", "102113.293000", "102113.295000", "102113.298000", "102113.301000", "102113.303000", "102113.306000", "102113.308000", "102113.311000", "102113.313000", "102113.316000", "102113.318000", "102113.321000", "102113.323000", "102113.326000", "102113.329000", "102113.331000", "102153.284000", "102153.286000", "102153.289000", "102153.291000", "102153.294000", "102153.297000", "102153.299000", "102153.302000", "102153.304000", "102153.307000", "102153.309000", "102153.312000", "102153.314000", "102153.317000", "102153.320000", "102153.322000", "102153.325000", "102153.327000", "102153.330000", "102153.332000", "102219.573000", "102219.575000", "102219.578000", "102219.581000", "102219.583000", "102219.586000", "102219.588000", "102219.591000", "102219.593000", "102219.596000", "102219.615000", "102219.628000", "102219.631000", "102219.633000"],
      "InstanceNumber": [1, 2, 3, 4, 5, 6, 7, 8, 9, 10, 11, 12, 13, 14, 15, 16, 17, 18, 19, 20, 21, 22, 23, 24, 25, 26, 27, 28, 29, 30, 31, 32, 33, 34, 35, 36, 37, 38, 39, 40, 41, 42, 43, 44, 45, 46, 47, 48, 49, 50, 51, 52, 53, 54, 55, 56, 57, 58, 59, 60, 61, 62, 63, 64, 65, 66, 67, 68, 69, 70, 71, 72, 73, 74, 75, 76, 77, 78, 79, 80, 81, 82, 83, 84, 85, 86, 87, 88, 89, 90, 91, 92, 93, 94, 95, 96, 97, 98, 99, 100, 101, 102, 103, 104, 105, 106, 107, 108, 109, 110, 111, 112, 113, 114, 115, 116, 117, 118, 119, 120, 121, 122, 123, 124, 125, 126, 127, 128, 129, 130, 131, 132, 133, 134, 135, 136, 137, 138, 139, 140, 141, 142, 143, 144, 145, 146, 147, 148, 149, 150, 151, 152, 153, 154, 155, 156, 157, 158, 159, 160, 161, 162, 163, 164, 165, 166, 167, 168, 169, 170, 171, 172, 173, 174, 175, 176, 177, 178, 179, 180, 181, 182, 183, 184, 185, 186, 187, 188, 189, 190, 191, 192, 193, 194, 195, 196, 197, 198, 199, 200],
      "LargestImagePixelValue": [1894, 1897, 1893, 1898, 1894, 1893, 1897, 1897, 1894, 1895, 1898, 1897, 1899, 1894, 1898, 1897, 1896, 1897, 1896, 1896, 1900, 1897, 1898, 1897, 1896, 1896, 1896, 1893, 1894, 1897, 1895, 1897, 1897, 1894, 1896, 1899, 1894, 1895, 1900, 1898, 1895, 1895, 1895, 1896, 1896, 1899, 1896, 1900, 1899, 1899, 1897, 1901, 1901, 1901, 1898, 1901, 1900, 1899, 1901, 1901, 1900, 1899, 1899, 1898, 1898, 1903, 1903, 1902, 1899, 1902, 1902, 1898, 1901, 1901, 1902, 1901, 1901, 1904, 1905, 1903, 1903, 1903, 1904, 1900, 1905, 1902, 1904, 1904, 1908, 1903, 1904, 1904, 1904, 1903, 1905, 1907, 1905, 1907, 1907, 1905, 1905, 1905, 1905, 1907, 1907, 1906, 1907, 1909, 1908, 1908, 1906, 1905, 1907, 1907, 1910, 1908, 1908, 1909, 1907, 1909, 1907, 1904, 1906, 1907, 1909, 1906, 1907, 1906, 1906, 1907, 1906, 1907, 1909, 1907, 1909, 1906, 1907, 1908, 1911, 1908, 1910, 1908, 1910, 1909, 1907, 1909, 1908, 1908, 1908, 1909, 1909, 1908, 1909, 1909, 1907, 1908, 1907, 1908, 1911, 1911, 1908, 1906, 1908, 1909, 1909, 1910, 1910, 1912, 1909, 1908, 1911, 1909, 1911, 1910, 1911, 1910, 1910, 1911, 1912, 1911, 1912, 1911, 1911, 1910, 1909, 1910, 1908, 1911, 1911, 1911, 1912, 1909, 1911, 1906, 1909, 1910, 1913, 1911, 1910, 1911],
      "WindowCenter": [963.0, 964.0, 965.0, 964.0, 964.0, 964.0, 965.0, 965.0, 964.0, 964.0, 964.0, 965.0, 965.0, 965.0, 964.0, 963.0, 964.0, 965.0, 964.0, 965.0, 964.0, 965.0, 964.0, 965.0, 963.0, 964.0, 964.0, 964.0, 964.0, 963.0, 963.0, 963.0, 964.0, 964.0, 964.0, 964.0, 964.0, 965.0, 963.0, 964.0, 964.0, 964.0, 964.0, 965.0, 965.0, 965.0, 965.0, 964.0, 964.0, 964.0, 963.0, 965.0, 965.0, 964.0, 963.0, 964.0, 964.0, 964.0, 964.0, 964.0, 963.0, 964.0, 964.0, 964.0, 964.0, 963.0, 963.0, 963.0, 963.0, 963.0, 963.0, 963.0, 964.0, 963.0, 963.0, 963.0, 963.0, 963.0, 963.0, 963.0, 964.0, 964.0, 963.0, 963.0, 964.0, 964.0, 964.0, 964.0, 964.0, 963.0, 964.0, 963.0, 963.0, 962.0, 964.0, 963.0, 964.0, 963.0, 963.0, 964.0, 963.0, 964.0, 964.0, 964.0, 963.0, 963.0, 964.0, 963.0, 963.0, 964.0, 963.0, 963.0, 963.0, 964.0, 964.0, 964.0, 963.0, 963.0, 964.0, 964.0, 963.0, 962.0, 964.0, 963.0, 964.0, 963.0, 963.0, 963.0, 962.0, 964.0, 964.0, 964.0, 964.0, 963.0, 964.0, 964.0, 963.0, 963.0, 964.0, 963.0, 963.0, 964.0, 963.0, 963.0, 964.0, 964.0, 963.0, 963.0, 964.0, 964.0, 964.0, 963.0, 964.0, 964.0, 963.0, 964.0, 962.0, 964.0, 963.0, 962.0, 963.0, 962.0, 963.0, 964.0, 964.0, 963.0, 964.0, 964.0, 963.0, 963.0, 964.0, 964.0, 964.0, 963.0, 963.0, 964.0, 963.0, 964.0, 964.0, 963.0, 964.0, 962.0, 964.0, 962.0, 963.0, 964.0, 964.0, 963.0, 964.0, 963.0, 964.0, 963.0, 963.0, 963.0, 963.0, 962.0, 963.0, 963.0, 963.0, 964.0],
      "WindowWidth": [2104.0, 2105.0, 2105.0, 2104.0, 2105.0, 2105.0, 2105.0, 2105.0, 2104.0, 2104.0, 2104.0, 2105.0, 2105.0, 2105.0, 2104.0, 2103.0, 2104.0, 2105.0, 2105.0, 2105.0, 2105.0, 2105.0, 2104.0, 2104.0, 2104.0, 2104.0, 2104.0, 2104.0, 2104.0, 2103.0, 2103.0, 2103.0, 2104.0, 2104.0, 2104.0, 2104.0, 2105.0, 2104.0, 2103.0, 2104.0, 2104.0, 2105.0, 2104.0, 2105.0, 2105.0, 2105.0, 2105.0, 2104.0, 2104.0, 2104.0, 2104.0, 2105.0, 2105.0, 2105.0, 2104.0, 2104.0, 2105.0, 2105.0, 2105.0, 2105.0, 2103.0, 2104.0, 2103.0, 2103.0, 2104.0, 2103.0, 2103.0, 2103.0, 2103.0, 2103.0, 2103.0, 2103.0, 2104.0, 2103.0, 2103.0, 2103.0, 2103.0, 2103.0, 2103.0, 2103.0, 2104.0, 2104.0, 2103.0, 2103.0, 2104.0, 2104.0, 2104.0, 2104.0, 2104.0, 2103.0, 2104.0, 2103.0, 2103.0, 2102.0, 2104.0, 2103.0, 2104.0, 2103.0, 2103.0, 2104.0, 2103.0, 2104.0, 2104.0, 2104.0, 2103.0, 2103.0, 2104.0, 2103.0, 2103.0, 2104.0, 2103.0, 2103.0, 2103.0, 2104.0, 2103.0, 2104.0, 2103.0, 2103.0, 2104.0, 2103.0, 2102.0, 2102.0, 2103.0, 2102.0, 2103.0, 2102.0, 2103.0, 2102.0, 2102.0, 2103.0, 2103.0, 2104.0, 2104.0, 2103.0, 2103.0, 2103.0, 2102.0, 2103.0, 2103.0, 2102.0, 2102.0, 2103.0, 2102.0, 2102.0, 2103.0, 2103.0, 2102.0, 2102.0, 2103.0, 2103.0, 2103.0, 2102.0, 2103.0, 2103.0, 2102.0, 2103.0, 2102.0, 2103.0, 2102.0, 2102.0, 2102.0, 2101.0, 2102.0, 2103.0, 2103.0, 2102.0, 2103.0, 2103.0, 2102.0, 2101.0, 2103.0, 2103.0, 2104.0, 2103.0, 2103.0, 2103.0, 2103.0, 2103.0, 2103.0, 2103.0, 2103.0, 2102.0, 2103.0, 2102.0, 2103.0, 2103.0, 2103.0, 2103.0, 2103.0, 2102.0, 2103.0, 2102.0, 2102.0, 2102.0, 2102.0, 2101.0, 2102.0, 2102.0, 2102.0, 2103.0]
    },
    "slices": {}
  }
}