{
  "AcquisitionMatrixPE": 80,
  "AcquisitionNumber": 1,
  "AcquisitionTime": "10:19:23.410000",
  "BandwidthPerPixelPhaseEncode": 25,
  "BaseResolution": 80,
  "BodyPartExamined": "BRAIN",
  "CoilCombinationMethod": "Sum of Squares",
  "ConsistencyInfo": "N4_VE11E_LATEST_20181129",
  "ConversionSoftware": "dcm2niix",
  "ConversionSoftwareVersion": "v1.0.20220720",
  "DerivedVendorReportedEchoSpacing": 0.0005,
  "DeviceSerialNumber": "66112",
  "DwellTime": 2.7e-06,
  "EchoTime": 0.03,
  "EchoTrainLength": 80,
  "EffectiveEchoSpacing": 0.0005,
  "FlipAngle": 77,
  "HeudiconvVersion": "0.13.1",
  "ImageOrientationPatientDICOM": [0.98834, 0.151945, 0.00979482, -0.147708, 0.941195, 0.303867],
  "ImageOrientationText": "Tra>Cor(17.6)>Sag(-2.1)",
  "ImageType": [
    "ORIGINAL",
    "PRIMARY",
    "M",
    "ND",
    "NORM",
    "MOSAIC"
],
  "ImagingFrequency": 123.259,
  "InPlanePhaseEncodingDirectionDICOM": "COL",
  "InstitutionAddress": "Maynard 3,Hanover,NH,US,03755",
  "InstitutionName": "Dartmouth College - PBS",
  "InstitutionalDepartmentName": "Department",
  "MRAcquisitionType": "2D",
  "MagneticFieldStrength": 3,
  "Manufacturer": "Siemens",
  "ManufacturersModelName": "Prisma",
  "MatrixCoilMode": "SENSE",
  "Modality": "MR",
  "NonlinearGradientCorrection": false,
  "PartialFourier": 1,
  "PatientPosition": "HFS",
  "PercentPhaseFOV": 100,
  "PercentSampling": 100,
  "PhaseEncodingDirection": "j-",
  "PhaseEncodingSteps": 80,
  "PhaseResolution": 1,
  "PixelBandwidth": 2315,
  "ProcedureStepDescription": "dbic^QA",
  "ProtocolName": "func-bold_fa-77",
  "PulseSequenceDetails": "%SiemensSeq%\\ep2d_bold",
  "ReceiveCoilActiveElements": "HEA;HEP",
  "ReceiveCoilName": "Head_32",
  "ReconMatrixPE": 80,
  "RepetitionTime": 2,
  "SAR": 0.0430229,
  "ScanOptions": "FS",
  "ScanningSequence": "EP",
  "SequenceName": "*epfid2d1_80",
  "SequenceVariant": "SK",
  "SeriesDescription": "func-bold_fa-77",
  "SeriesNumber": 7,
  "ShimSetting": [4229, -7745, -7497, -24, -132, -25, -6, 112],
  "SliceThickness": 3.5,
  "SliceTiming": [0.99, 0, 1.0575, 0.0675, 1.1225, 0.1325, 1.19, 0.2, 1.255, 0.265, 1.32, 0.33, 1.3875, 0.3975, 1.4525, 0.4625, 1.52, 0.53, 1.585, 0.595, 1.65, 0.66, 1.7175, 0.7275, 1.7825, 0.7925, 1.85, 0.86, 1.915, 0.925],
  "SoftwareVersions": "syngo MR E11",
  "SpacingBetweenSlices": 3.99,
  "StationName": "AWP66112",
  "TotalReadoutTime": 0.0395,
  "TxRefAmp": 226.236,
  "dcmmeta_affine": [
    [-2.9650211334228516, -0.44312533736228943, -0.1474393904209137, 141.30104064941406],
    [-0.4558352828025818, 2.8235836029052734, 1.2040644884109497, -109.5684585571289],
    [0.029384465888142586, -0.9116002321243286, 3.8011300563812256, -18.67654800415039],
    [0.0, 0.0, 0.0, 1.0]
],
  "dcmmeta_reorient_transform": [
    [0.0, -1.0, 0.0, 79.0],
    [1.0, 0.0, 0.0, 0.0],
    [0.0, 0.0, 1.0, 0.0],
    [0.0, 0.0, 0.0, 1.0]
],
  "dcmmeta_shape": [80, 80, 30, 200],
  "dcmmeta_slice_dim": 2,
  "dcmmeta_version": 0.6,
  "global": {
    "const": {
      "AccessionNumber": "qa",
      "AcquisitionMatrix": [80, 0, 0, 80],
      "AngioFlag": "N",
      "BitsAllocated": 16,
      "BitsStored": 12,
      "BodyPartExamined": "BRAIN",
      "Columns": 480,
      "EchoNumbers": 1,
      "EchoTime": 30.0,
      "EchoTrainLength": 80,
      "FlipAngle": 77.0,
      "HighBit": 11,
      "ImageOrientationPatient": [0.98834040117102, 0.15194509821656, 0.00979482215601, -0.1477084432622, 0.94119456990727, 0.30386674277739],
      "ImagePositionPatient": [-610.67331175355, -769.37845693844, -278.88990417515],
      "ImageType": [
        "ORIGINAL",
        "PRIMARY",
        "M",
        "ND",
        "NORM",
        "MOSAIC"
],
      "ImagedNucleus": "1H",
      "ImagingFrequency": 123.259098,
      "InPlanePhaseEncodingDirection": "COL",
      "MRAcquisitionType": "2D",
      "MagneticFieldStrength": 3.0,
      "Manufacturer": "SIEMENS",
      "ManufacturerModelName": "Prisma",
      "Modality": "MR",
      "NumberOfAverages": 1.0,
      "NumberOfPhaseEncodingSteps": 80,
      "PercentPhaseFieldOfView": 100.0,
      "PercentSampling": 100.0,
      "PerformedProcedureStepStartTime": "100403.289000",
      "PhotometricInterpretation": "MONOCHROME2",
      "PixelBandwidth": 2315.0,
      "PixelRepresentation": 0,
      "PixelSpacing": [3.0, 3.0],
      "ProtocolName": "func-bold_fa-77",
      "RepetitionTime": 2000.0,
      "Rows": 480,
      "SAR": 0.04302288758296,
      "SamplesPerPixel": 1,
      "ScanOptions": "FS",
      "ScanningSequence": "EP",
      "SequenceName": "*epfid2d1_80",
      "SequenceVariant": "SK",
      "SeriesDescription": "func-bold_fa-77",
      "SeriesNumber": 7,
      "SeriesTime": "102022.558000",
      "SliceLocation": -56.078400238988,
      "SliceThickness": 3.5,
      "SmallestImagePixelValue": 0,
      "SoftwareVersions": "syngo MR E11",
      "SpacingBetweenSlices": 3.989999975999,
      "SpecificCharacterSet": "ISO_IR 100",
      "StudyID": "28",
      "StudyTime": "100403.204000",
      "TransmitCoilName": "Body",
      "VariableFlipAngleFlag": "N",
      "WindowCenterWidthExplanation": "Algo1"
    },
    "slices": {}
  },
  "time": {
    "samples": {
      "AcquisitionNumber": [1, 2, 3, 4, 5, 6, 7, 8, 9, 10, 11, 12, 13, 14, 15, 16, 17, 18, 19, 20, 21, 22, 23, 24, 25, 26, 27, 28, 29, 30, 31, 32, 33, 34, 35, 36, 37, 38, 39, 40, 41, 42, 43, 44, 45, 46, 47, 48, 49, 50, 51, 52, 53, 54, 55, 56, 57, 58, 59, 60, 61, 62, 63, 64, 65, 66, 67, 68, 69, 70, 71, 72, 73, 74, 75, 76, 77, 78, 79, 80, 81, 82, 83, 84, 85, 86, 87, 88, 89, 90, 91, 92, 93, 94, 95, 96, 97, 98, 99, 100, 101, 102, 103, 104, 105, 106, 107, 108, 109, 110, 111, 112, 113, 114, 115, 116, 117, 118, 119, 120, 121, 122, 123, 124, 125, 126, 127, 128, 129, 130, 131, 132, 133, 134, 135, 136, 137, 138, 139, 140, 141, 142, 143, 144, 145, 146, 147, 148, 149, 150, 151, 152, 153, 154, 155, 156, 157, 158, 159, 160, 161, 162, 163, 164, 165, 166, 167, 168, 169, 170, 171, 172, 173, 174, 175, 176, 177, 178, 179, 180, 181, 182, 183, 184, 185, 186, 187, 188, 189, 190, 191, 192, 193, 194, 195, 196, 197, 198, 199, 200],
      "AcquisitionTime": ["101923.410000", "101925.410000", "101927.410000", "101929.410000", "101931.410000", "101933.410000", "101935.410000", "101937.410000", "101939.410000", "101941.410000", "101943.410000", "101945.410000", "101947.410000", "101949.410000", "101951.410000", "101953.410000", "101955.410000", "101957.410000", "101959.410000", "102001.410000", "102003.410000", "102005.410000", "102007.410000", "102009.410000", "102011.410000", "102013.410000", "102015.410000", "102017.410000", "102019.410000", "102021.410000", "102023.410000", "102025.410000", "102027.410000", "102029.410000", "102031.410000", "102033.410000", "102035.410000", "102037.410000", "102039.410000", "102041.410000", "102043.410000", "102045.410000", "102047.410000", "102049.410000", "102051.410000", "102053.410000", "102055.410000", "102057.410000", "102059.410000", "102101.410000", "102103.410000", "102105.410000", "102107.410000", "102109.410000", "102111.410000", "102113.410000", "102115.410000", "102117.410000", "102119.410000", "102121.410000", "102123.410000", "102125.410000", "102127.410000", "102129.410000", "102131.410000", "102133.410000", "102135.410000", "102137.410000", "102139.410000", "102141.410000", "102143.410000", "102145.410000", "102147.410000", "102149.410000", "102151.410000", "102153.410000", "102155.410000", "102157.410000", "102159.410000", "102201.410000", "102203.410000", "102205.410000", "102207.410000", "102209.410000", "102211.410000", "102213.410000", "102215.410000", "102217.410000", "102219.410000", "102221.410000", "102223.410000", "102225.410000", "102227.410000", "102229.410000", "102231.410000", "102233.410000", "102235.410000", "102237.410000", "102239.410000", "102241.410000", "102243.410000", "102245.410000", "102247.410000", "102249.410000", "102251.410000", "102253.410000", "102255.410000", "102257.410000", "102259.410000", "102301.410000", "102303.410000", "102305.410000", "102307.410000", "102309.410000", "102311.410000", "102313.410000", "102315.410000", "102317.410000", "102319.410000", "102321.410000", "102323.410000", "102325.410000", "102327.410000", "102329.410000", "102331.410000", "102333.410000", "102335.410000", "102337.410000", "102339.410000", "102341.410000", "102343.410000", "102345.410000", "102347.410000", "102349.410000", "102351.410000", "102353.410000", "102355.410000", "102357.410000", "102359.410000", "102401.410000", "102403.410000", "102405.410000", "102407.410000", "102409.410000", "102411.410000", "102413.410000", "102415.410000", "102417.410000", "102419.410000", "102421.410000", "102423.410000", "102425.410000", "102427.410000", "102429.410000", "102431.410000", "102433.410000", "102435.410000", "102437.410000", "102439.410000", "102441.410000", "102443.410000", "102445.410000", "102447.410000", "102449.410000", "102451.410000", "102453.410000", "102455.410000", "102457.410000", "102459.410000", "102501.410000", "102503.410000", "102505.410000", "102507.410000", "102509.410000", "102511.410000", "102513.410000", "102515.410000", "102517.410000", "102519.410000", "102521.410000", "102523.410000", "102525.410000", "102527.410000", "102529.410000", "102531.410000", "102533.410000", "102535.410000", "102537.410000", "102539.410000", "102541.410000", "102543.410000", "102545.410000", "102547.410000", "102549.410000", "102551.410000", "102553.410000", "102555.410000", "102557.410000", "102559.410000", "102601.410000"],
      "ContentTime": ["102022.561000", "102022.564000", "102022.567000", "102022.569000", "102022.571000", "102022.573000", "102022.576000", "102022.578000", "102022.580000", "102022.583000", "102022.585000", "102022.587000", "102022.590000", "102022.592000", "102022.594000", "102022.596000", "102022.599000", "102022.601000", "102022.603000", "102022.605000", "102022.608000", "102022.610000", "102022.613000", "102022.615000", "102022.617000", "102022.619000", "102022.622000", "102022.624000", "102022.626000", "102102.556000", "102102.559000", "102102.561000", "102102.564000", "102102.566000", "102102.568000", "102102.570000", "102102.573000", "102102.575000", "102102.577000", "102102.580000", "102102.582000", "102102.584000", "102102.587000", "102102.589000", "102102.591000", "102102.594000", "102102.596000", "102102.598000", "102102.601000", "102142.556000", "102142.559000", "102142.561000", "102142.563000", "102142.565000", "102142.568000", "102142.570000", "102142.572000", "102142.575000", "102142.577000", "102142.579000", "102142.581000", "102142.584000", "102142.586000", "102142.588000", "102142.591000", "102142.593000", "102142.595000", "102142.597000", "102142.600000", "102222.556000", "102222.559000", "102222.561000", "102222.563000", "102222.565000", "102222.568000", "102222.570000", "102222.572000", "102222.575000", "102222.577000", "102222.579000", "102222.581000", "102222.584000", "102222.586000", "102222.588000", "102222.591000", "102222.593000", "102222.595000", "102222.597000", "102222.600000", "102302.557000", "102302.560000", "102302.562000", "102302.564000", "102302.566000", "102302.569000", "102302.571000", "102302.573000", "102302.575000", "102302.578000", "102302.580000", "102302.582000", "102302.585000", "102302.587000", "102302.589000", "102302.591000", "102302.594000", "102302.596000", "102302.598000", "102302.601000", "102342.556000", "102342.559000", "102342.561000", "102342.563000", "102342.566000", "102342.568000", "102342.570000", "102342.573000", "102342.575000", "102342.577000", "102342.579000", "102342.582000", "102342.584000", "102342.586000", "102342.588000", "102342.591000", "102342.593000", "102342.595000", "102342.598000", "102342.600000", "102422.556000", "102422.559000", "102422.561000", "102422.563000", "102422.566000", "102422.568000", "102422.570000", "102422.573000", "102422.575000", "102422.577000", "102422.579000", "102422.582000", "102422.584000", "102422.586000", "102422.589000", "102422.591000", "102422.593000", "102422.596000", "102422.598000", "102422.600000", "102502.557000", "102502.560000", "102502.562000", "102502.564000", "102502.567000", "102502.569000", "102502.571000", "102502.573000", "102502.576000", "102502.578000", "102502.580000", "102502.582000", "102502.585000", "102502.587000", "102502.589000", "102502.592000", "102502.594000", "102502.596000", "102502.598000", "102502.601000", "102542.556000", "102542.559000", "102542.561000", "102542.563000", "102542.566000", "102542.568000", "102542.570000", "102542.573000", "102542.575000", "102542.577000", "102542.579000", "102542.582000", "102542.584000", "102542.586000", "102542.589000", "102542.591000", "102542.593000", "102542.595000", "102542.598000", "102542.600000", "102603.438000", "102603.441000", "102603.457000", "102603.460000", "102603.462000", "102603.465000", "102603.467000", "102603.470000", "102603.475000", "102603.478000", "102603.480000"],
      "InstanceCreationTime": ["102022.561000", "102022.564000", "102022.567000", "102022.569000", "102022.571000", "102022.573000", "102022.576000", "102022.578000", "102022.580000", "102022.583000", "102022.585000", "102022.587000", "102022.590000", "102022.592000", "102022.594000", "102022.596000", "102022.599000", "102022.601000", "102022.603000", "102022.605000", "102022.608000", "102022.610000", "102022.613000", "102022.615000", "102022.617000", "102022.619000", "102022.622000", "102022.624000", "102022.626000", "102102.556000", "102102.559000", "102102.561000", "102102.564000", "102102.566000", "102102.568000", "102102.570000", "102102.573000", "102102.575000", "102102.577000", "102102.580000", "102102.582000", "102102.584000", "102102.587000", "102102.589000", "102102.591000", "102102.594000", "102102.596000", "102102.598000", "102102.601000", "102142.556000", "102142.559000", "102142.561000", "102142.563000", "102142.565000", "102142.568000", "102142.570000", "102142.572000", "102142.575000", "102142.577000", "102142.579000", "102142.581000", "102142.584000", "102142.586000", "102142.588000", "102142.591000", "102142.593000", "102142.595000", "102142.597000", "102142.600000", "102222.556000", "102222.559000", "102222.561000", "102222.563000", "102222.565000", "102222.568000", "102222.570000", "102222.572000", "102222.575000", "102222.577000", "102222.579000", "102222.581000", "102222.584000", "102222.586000", "102222.588000", "102222.591000", "102222.593000", "102222.595000", "102222.597000", "102222.600000", "102302.557000", "102302.560000", "102302.562000", "102302.564000", "102302.566000", "102302.569000", "102302.571000", "102302.573000", "102302.575000", "102302.578000", "102302.580000", "102302.582000", "102302.585000", "102302.587000", "102302.589000", "102302.591000", "102302.594000", "102302.596000", "102302.598000", "102302.601000", "102342.556000", "102342.559000", "102342.561000", "102342.563000", "102342.566000", "102342.568000", "102342.570000", "102342.573000", "102342.575000", "102342.577000", "102342.579000", "102342.582000", "102342.584000", "102342.586000", "102342.588000", "102342.591000", "102342.593000", "102342.595000", "102342.598000", "102342.600000", "102422.556000", "102422.559000", "102422.561000", "102422.563000", "102422.566000", "102422.568000", "102422.570000", "102422.573000", "102422.575000", "102422.577000", "102422.579000", "102422.582000", "102422.584000", "102422.586000", "102422.589000", "102422.591000", "102422.593000", "102422.596000", "102422.598000", "102422.600000", "102502.557000", "102502.560000", "102502.562000", "102502.564000", "102502.567000", "102502.569000", "102502.571000", "102502.573000", "102502.576000", "102502.578000", "102502.580000", "102502.582000", "102502.585000", "102502.587000", "102502.589000", "102502.592000", "102502.594000", "102502.596000", "102502.598000", "102502.601000", "102542.556000", "102542.559000", "102542.561000", "102542.563000", "102542.566000", "102542.568000", "102542.570000", "102542.573000", "102542.575000", "102542.577000", "102542.579000", "102542.582000", "102542.584000", "102542.586000", "102542.589000", "102542.591000", "102542.593000", "102542.595000", "102542.598000", "102542.600000", "102603.438000", "102603.441000", "102603.457000", "102603.460000", "102603.462000", "102603.465000", "102603.467000", "102603.470000", "102603.475000", "102603.478000", "102603.480000"],
      "InstanceNumber": [1, 2, 3, 4, 5, 6, 7, 8, 9, 10, 11, 12, 13, 14, 15, 16, 17, 18, 19, 20, 21, 22, 23, 24, 25, 26, 27, 28, 29, 30, 31, 32, 33, 34, 35, 36, 37, 38, 39, 40, 41, 42, 43, 44, 45, 46, 47, 48, 49, 50, 51, 52, 53, 54, 55, 56, 57, 58, 59, 60, 61, 62, 63, 64, 65, 66, 67, 68, 69, 70, 71, 72, 73, 74, 75, 76, 77, 78, 79, 80, 81, 82, 83, 84, 85, 86, 87, 88, 89, 90, 91, 92, 93, 94, 95, 96, 97, 98, 99, 100, 101, 102, 103, 104, 105, 106, 107, 108, 109, 110, 111, 112, 113, 114, 115, 116, 117, 118, 119, 120, 121, 122, 123, 124, 125, 126, 127, 128, 129, 130, 131, 132, 133, 134, 135, 136, 137, 138, 139, 140, 141, 142, 143, 144, 145, 146, 147, 148, 149, 150, 151, 152, 153, 154, 155, 156, 157, 158, 159, 160, 161, 162, 163, 164, 165, 166, 167, 168, 169, 170, 171, 172, 173, 174, 175, 176, 177, 178, 179, 180, 181, 182, 183, 184, 185, 186, 187, 188, 189, 190, 191, 192, 193, 194, 195, 196, 197, 198, 199, 200],
      "LargestImagePixelValue": [2196, 2197, 2196, 2195, 2198, 2196, 2197, 2194, 2195, 2197, 2195, 2196, 2195, 2196, 2197, 2198, 2196, 2197, 2199, 2198, 2197, 2196, 2196, 2195, 2197, 2195, 2195, 2196, 2193, 2194, 2195, 2195, 2195, 2195, 2195, 2194, 2195, 2194, 2195, 2195, 2194, 2194, 2195, 2194, 2194, 2196, 2191, 2194, 2191, 2193, 2194, 2194, 2194, 2195, 2194, 2196, 2195, 2195, 2196, 2193, 2194, 2193, 2193, 2192, 2194, 2192, 2193, 2193, 2194, 2193, 2195, 2194, 2195, 2194, 2194, 2192, 2193, 2192, 2192, 2192, 2192, 2196, 2194, 2194, 2195, 2193, 2193, 2194, 2194, 2191, 2192, 2192, 2190, 2191, 2193, 2193, 2192, 2194, 2194, 2193, 2192, 2194, 2192, 2191, 2193, 2193, 2192, 2193, 2192, 2190, 2193, 2192, 2191, 2192, 2192, 2192, 2192, 2194, 2194, 2191, 2193, 2192, 2194, 2192, 2193, 2190, 2189, 2192, 2190, 2190, 2193, 2191, 2193, 2192, 2190, 2193, 2192, 2190, 2192, 2192, 2192, 2193, 2194, 2191, 2192, 2193, 2192, 2191, 2194, 2191, 2193, 2191, 2191, 2193, 2191, 2193, 2192, 2192, 2193, 2190, 2190, 2191, 2191, 2192, 2192, 2192, 2191, 2193, 2190, 2190, 2189, 2190, 2193, 2191, 2192, 2192, 2191, 2192, 2190, 2191, 2191, 2192, 2190, 2191, 2191, 2189, 2192, 2191, 2192, 2192, 2191, 2192, 2192, 2189, 2191, 2190, 2190, 2192, 2192, 2190],
      "WindowCenter": [1020.0, 1019.0, 1021.0, 1019.0, 1018.0, 1019.0, 1020.0, 1020.0, 1019.0, 1019.0, 1019.0, 1021.0, 1019.0, 1019.0, 1019.0, 1019.0, 1018.0, 1020.0, 1018.0, 1020.0, 1019.0, 1019.0, 1019.0, 1020.0, 1020.0, 1019.0, 1020.0, 1020.0, 1020.0, 1020.0, 1019.0, 1019.0, 1020.0, 1019.0, 1020.0, 1020.0, 1019.0, 1018.0, 1019.0, 1019.0, 1020.0, 1020.0, 1018.0, 1019.0, 1020.0, 1018.0, 1020.0, 1020.0, 1019.0, 1019.0, 1020.0, 1020.0, 1020.0, 1019.0, 1020.0, 1019.0, 1019.0, 1019.0, 1019.0, 1019.0, 1017.0, 1020.0, 1019.0, 1018.0, 1019.0, 1017.0, 1019.0, 1018.0, 1019.0, 1019.0, 1019.0, 1019.0, 1019.0, 1019.0, 1019.0, 1019.0, 1019.0, 1019.0, 1018.0, 1019.0, 1018.0, 1018.0, 1018.0, 1018.0, 1018.0, 1017.0, 1019.0, 1019.0, 1018.0, 1019.0, 1017.0, 1016.0, 1018.0, 1019.0, 1018.0, 1019.0, 1019.0, 1019.0, 1019.0, 1019.0, 1019.0, 1019.0, 1017.0, 1018.0, 1019.0, 1018.0, 1019.0, 1020.0, 1018.0, 1018.0, 1019.0, 1018.0, 1019.0, 1018.0, 1019.0, 1017.0, 1019.0, 1018.0, 1018.0, 1019.0, 1017.0, 1016.0, 1019.0, 1019.0, 1019.0, 1019.0, 1019.0, 1018.0, 1018.0, 1018.0, 1018.0, 1019.0, 1017.0, 1017.0, 1018.0, 1019.0, 1019.0, 1019.0, 1017.0, 1019.0, 1018.0, 1018.0, 1018.0, 1018.0, 1017.0, 1019.0, 1019.0, 1018.0, 1017.0, 1018.0, 1018.0, 1019.0, 1019.0, 1018.0, 1017.0, 1018.0, 1017.0, 1018.0, 1017.0, 1019.0, 1018.0, 1019.0, 1019.0, 1017.0, 1018.0, 1019.0, 1018.0, 1018.0, 1019.0, 1019.0, 1017.0, 1017.0, 1019.0, 1019.0, 1017.0, 1019.0, 1017.0, 1018.0, 1018.0, 1018.0, 1018.0, 1018.0, 1018.0, 1019.0, 1017.0, 1019.0, 1018.0, 1018.0, 1018.0, 1018.0, 1017.0, 1017.0, 1018.0, 1018.0, 1018.0, 1017.0, 1018.0, 1017.0, 1017.0, 1017.0],
      "WindowWidth": [2282.0, 2281.0, 2283.0, 2280.0, 2280.0, 2281.0, 2281.0, 2281.0, 2280.0, 2281.0, 2281.0, 2283.0, 2281.0, 2281.0, 2281.0, 2281.0, 2280.0, 2282.0, 2280.0, 2282.0, 2281.0, 2281.0, 2280.0, 2281.0, 2281.0, 2280.0, 2281.0, 2281.0, 2281.0, 2281.0, 2280.0, 2280.0, 2281.0, 2281.0, 2281.0, 2281.0, 2280.0, 2279.0, 2280.0, 2280.0, 2281.0, 2280.0, 2279.0, 2280.0, 2280.0, 2279.0, 2280.0, 2280.0, 2280.0, 2280.0, 2280.0, 2280.0, 2280.0, 2279.0, 2280.0, 2280.0, 2280.0, 2279.0, 2279.0, 2280.0, 2278.0, 2280.0, 2280.0, 2279.0, 2279.0, 2279.0, 2279.0, 2278.0, 2279.0, 2280.0, 2280.0, 2280.0, 2280.0, 2279.0, 2279.0, 2279.0, 2279.0, 2279.0, 2279.0, 2279.0, 2278.0, 2279.0, 2279.0, 2279.0, 2279.0, 2278.0, 2279.0, 2279.0, 2279.0, 2279.0, 2278.0, 2276.0, 2278.0, 2279.0, 2278.0, 2279.0, 2279.0, 2279.0, 2279.0, 2279.0, 2279.0, 2279.0, 2277.0, 2278.0, 2279.0, 2278.0, 2279.0, 2279.0, 2278.0, 2278.0, 2278.0, 2278.0, 2278.0, 2278.0, 2279.0, 2277.0, 2278.0, 2278.0, 2278.0, 2278.0, 2277.0, 2276.0, 2278.0, 2278.0, 2278.0, 2278.0, 2278.0, 2278.0, 2278.0, 2278.0, 2278.0, 2278.0, 2277.0, 2277.0, 2278.0, 2278.0, 2278.0, 2278.0, 2277.0, 2278.0, 2278.0, 2278.0, 2277.0, 2277.0, 2277.0, 2278.0, 2278.0, 2277.0, 2277.0, 2277.0, 2277.0, 2278.0, 2278.0, 2277.0, 2277.0, 2277.0, 2277.0, 2277.0, 2277.0, 2278.0, 2277.0, 2278.0, 2278.0, 2276.0, 2277.0, 2278.0, 2277.0, 2277.0, 2278.0, 2278.0, 2276.0, 2276.0, 2279.0, 2277.0, 2277.0, 2277.0, 2276.0, 2278.0, 2278.0, 2277.0, 2278.0, 2278.0, 2277.0, 2277.0, 2277.0, 2277.0, 2278.0, 2278.0, 2277.0, 2277.0, 2276.0, 2276.0, 2277.0, 2276.0, 2276.0, 2276.0, 2277.0, 2276.0, 2276.0, 2276.0]
    },
    "slices": {}
  }
}