{
  "AcquisitionMatrixPE": 80,
  "AcquisitionNumber": 1,
  "AcquisitionTime": "10:05:39.782500",
  "BandwidthPerPixelPhaseEncode": 48.077,
  "BaseResolution": 80,
  "BodyPartExamined": "BRAIN",
  "CoilCombinationMethod": "Sum of Squares",
  "ConsistencyInfo": "N4_VE11E_LATEST_20181129",
  "ConversionSoftware": "dcm2niix",
  "ConversionSoftwareVersion": "v1.0.20220720",
  "DerivedVendorReportedEchoSpacing": 0.000519999,
  "DeviceSerialNumber": "66112",
  "DwellTime": 2.7e-06,
  "EchoTime": 0.035,
  "EchoTrainLength": 39,
  "EffectiveEchoSpacing": 0.00026,
  "FlipAngle": 90,
  "HeudiconvVersion": "0.13.1",
  "ImageOrientationPatientDICOM": [0.98834, 0.151945, 0.00979482, -0.147708, 0.941195, 0.303867],
  "ImageOrientationText": "Tra>Cor(17.6)>Sag(-2.1)",
  "ImageType": [
    "ORIGINAL",
    "PRIMARY",
    "M",
    "ND",
    "NORM",
    "MOSAIC"
],
  "ImagingFrequency": 123.259,
  "InPlanePhaseEncodingDirectionDICOM": "COL",
  "InstitutionAddress": "Maynard 3,Hanover,NH,US,03755",
  "InstitutionName": "Dartmouth College - PBS",
  "InstitutionalDepartmentName": "Department",
  "MRAcquisitionType": "2D",
  "MagneticFieldStrength": 3,
  "Manufacturer": "Siemens",
  "ManufacturersModelName": "Prisma",
  "MatrixCoilMode": "GRAPPA",
  "Modality": "MR",
  "NonlinearGradientCorrection": false,
  "ParallelReductionFactorInPlane": 2,
  "PartialFourier": 1,
  "PatientPosition": "HFS",
  "PercentPhaseFOV": 100,
  "PercentSampling": 100,
  "PhaseEncodingDirection": "j-",
  "PhaseEncodingSteps": 79,
  "PhaseResolution": 1,
  "PixelBandwidth": 2315,
  "ProcedureStepDescription": "dbic^QA",
  "ProtocolName": "func-bold_task-rest_acq-p2",
  "PulseSequenceDetails": "%SiemensSeq%\\ep2d_bold",
  "ReceiveCoilActiveElements": "HEA;HEP",
  "ReceiveCoilName": "Head_32",
  "ReconMatrixPE": 80,
  "RefLinesPE": 24,
  "RepetitionTime": 2,
  "SAR": 0.054747,
  "ScanOptions": "FS",
  "ScanningSequence": "EP",
  "SequenceName": "*epfid2d1_80",
  "SequenceVariant": "SK",
  "SeriesDescription": "func-bold_task-rest_acq-p2",
  "SeriesNumber": 5,
  "ShimSetting": [4229, -7745, -7497, -23, -128, -24, -4, 110],
  "SliceThickness": 3.5,
  "SliceTiming": [0.99, 0, 1.0575, 0.0675, 1.1225, 0.1325, 1.1875, 0.1975, 1.255, 0.265, 1.32, 0.33, 1.3875, 0.3975, 1.4525, 0.4625, 1.5175, 0.5275, 1.585, 0.595, 1.65, 0.66, 1.7175, 0.7275, 1.7825, 0.7925, 1.8475, 0.8575, 1.915, 0.925],
  "SoftwareVersions": "syngo MR E11",
  "SpacingBetweenSlices": 3.99,
  "StationName": "AWP66112",
  "TaskName": "rest",
  "TotalReadoutTime": 0.02054,
  "TxRefAmp": 226.236,
  "dcmmeta_affine": [
    [-2.9650211334228516, -0.44312533736228943, -0.1474393904209137, 140.8517608642578],
    [-0.4558352828025818, 2.8235836029052734, 1.2040644884109497, -106.57920837402344],
    [0.029384465888142586, -0.9116002321243286, 3.8011300563812256, -17.629093170166016],
    [0.0, 0.0, 0.0, 1.0]
],
  "dcmmeta_reorient_transform": [
    [0.0, -1.0, 0.0, 79.0],
    [1.0, 0.0, 0.0, 0.0],
    [0.0, 0.0, 1.0, 0.0],
    [0.0, 0.0, 0.0, 1.0]
],
  "dcmmeta_shape": [80, 80, 30, 200],
  "dcmmeta_slice_dim": 2,
  "dcmmeta_version": 0.6,
  "global": {
    "const": {
      "AccessionNumber": "qa",
      "AcquisitionMatrix": [80, 0, 0, 80],
      "AngioFlag": "N",
      "BitsAllocated": 16,
      "BitsStored": 12,
      "BodyPartExamined": "BRAIN",
      "Columns": 480,
      "EchoNumbers": 1,
      "EchoTime": 35.0,
      "EchoTrainLength": 39,
      "FlipAngle": 90.0,
      "HighBit": 11,
      "ImageOrientationPatient": [0.98834040117102, 0.15194509821656, 0.00979482215601, -0.1477084432622, 0.94119456990727, 0.30386674277739],
      "ImagePositionPatient": [-610.22402720002, -772.36770235317, -277.84244934116],
      "ImageType": [
        "ORIGINAL",
        "PRIMARY",
        "M",
        "ND",
        "NORM",
        "MOSAIC"
],
      "ImagedNucleus": "1H",
      "ImagingFrequency": 123.259098,
      "InPlanePhaseEncodingDirection": "COL",
      "MRAcquisitionType": "2D",
      "MagneticFieldStrength": 3.0,
      "Manufacturer": "SIEMENS",
      "ManufacturerModelName": "Prisma",
      "Modality": "MR",
      "NumberOfAverages": 1.0,
      "NumberOfPhaseEncodingSteps": 79,
      "PercentPhaseFieldOfView": 100.0,
      "PercentSampling": 100.0,
      "PerformedProcedureStepStartTime": "100403.289000",
      "PhotometricInterpretation": "MONOCHROME2",
      "PixelBandwidth": 2315.0,
      "PixelRepresentation": 0,
      "PixelSpacing": [3.0, 3.0],
      "ProtocolName": "func-bold_task-rest_acq-p2",
      "RepetitionTime": 2000.0,
      "Rows": 480,
      "SAR": 0.0547469575115,
      "SamplesPerPixel": 1,
      "ScanOptions": "FS",
      "ScanningSequence": "EP",
      "SequenceName": "*epfid2d1_80",
      "SequenceVariant": "SK",
      "SeriesDescription": "func-bold_task-rest_acq-p2",
      "SeriesNumber": 5,
      "SeriesTime": "100622.379000",
      "SliceLocation": -54.161859207612,
      "SliceThickness": 3.5,
      "SmallestImagePixelValue": 0,
      "SoftwareVersions": "syngo MR E11",
      "SpacingBetweenSlices": 3.9899999660752,
      "SpecificCharacterSet": "ISO_IR 100",
      "StudyID": "28",
      "StudyTime": "100403.204000",
      "TransmitCoilName": "Body",
      "VariableFlipAngleFlag": "N",
      "WindowCenterWidthExplanation": "Algo1"
    },
    "slices": {}
  },
  "time": {
    "samples": {
      "AcquisitionNumber": [1, 2, 3, 4, 5, 6, 7, 8, 9, 10, 11, 12, 13, 14, 15, 16, 17, 18, 19, 20, 21, 22, 23, 24, 25, 26, 27, 28, 29, 30, 31, 32, 33, 34, 35, 36, 37, 38, 39, 40, 41, 42, 43, 44, 45, 46, 47, 48, 49, 50, 51, 52, 53, 54, 55, 56, 57, 58, 59, 60, 61, 62, 63, 64, 65, 66, 67, 68, 69, 70, 71, 72, 73, 74, 75, 76, 77, 78, 79, 80, 81, 82, 83, 84, 85, 86, 87, 88, 89, 90, 91, 92, 93, 94, 95, 96, 97, 98, 99, 100, 101, 102, 103, 104, 105, 106, 107, 108, 109, 110, 111, 112, 113, 114, 115, 116, 117, 118, 119, 120, 121, 122, 123, 124, 125, 126, 127, 128, 129, 130, 131, 132, 133, 134, 135, 136, 137, 138, 139, 140, 141, 142, 143, 144, 145, 146, 147, 148, 149, 150, 151, 152, 153, 154, 155, 156, 157, 158, 159, 160, 161, 162, 163, 164, 165, 166, 167, 168, 169, 170, 171, 172, 173, 174, 175, 176, 177, 178, 179, 180, 181, 182, 183, 184, 185, 186, 187, 188, 189, 190, 191, 192, 193, 194, 195, 196, 197, 198, 199, 200],
      "AcquisitionTime": ["100539.782500", "100541.782500", "100543.782500", "100545.782500", "100547.782500", "100549.782500", "100551.782500", "100553.782500", "100555.782500", "100557.782500", "100559.782500", "100601.782500", "100603.782500", "100605.782500", "100607.782500", "100609.782500", "100611.782500", "100613.782500", "100615.782500", "100617.782500", "100619.782500", "100621.782500", "100623.782500", "100625.782500", "100627.782500", "100629.782500", "100631.782500", "100633.782500", "100635.782500", "100637.782500", "100639.782500", "100641.782500", "100643.782500", "100645.782500", "100647.782500", "100649.782500", "100651.782500", "100653.782500", "100655.782500", "100657.782500", "100659.782500", "100701.782500", "100703.782500", "100705.782500", "100707.782500", "100709.782500", "100711.782500", "100713.782500", "100715.782500", "100717.782500", "100719.782500", "100721.782500", "100723.782500", "100725.782500", "100727.782500", "100729.782500", "100731.782500", "100733.782500", "100735.782500", "100737.782500", "100739.782500", "100741.782500", "100743.782500", "100745.782500", "100747.782500", "100749.782500", "100751.782500", "100753.782500", "100755.782500", "100757.782500", "100759.782500", "100801.782500", "100803.782500", "100805.782500", "100807.782500", "100809.782500", "100811.782500", "100813.782500", "100815.782500", "100817.782500", "100819.782500", "100821.782500", "100823.782500", "100825.782500", "100827.782500", "100829.782500", "100831.782500", "100833.782500", "100835.782500", "100837.782500", "100839.782500", "100841.782500", "100843.782500", "100845.782500", "100847.782500", "100849.782500", "100851.782500", "100853.782500", "100855.782500", "100857.782500", "100859.782500", "100901.782500", "100903.782500", "100905.782500", "100907.782500", "100909.782500", "100911.782500", "100913.782500", "100915.782500", "100917.782500", "100919.782500", "100921.782500", "100923.782500", "100925.782500", "100927.782500", "100929.782500", "100931.782500", "100933.782500", "100935.782500", "100937.782500", "100939.782500", "100941.782500", "100943.782500", "100945.782500", "100947.782500", "100949.782500", "100951.782500", "100953.782500", "100955.782500", "100957.782500", "100959.782500", "101001.782500", "101003.782500", "101005.782500", "101007.782500", "101009.782500", "101011.782500", "101013.782500", "101015.782500", "101017.782500", "101019.782500", "101021.782500", "101023.782500", "101025.782500", "101027.782500", "101029.782500", "101031.782500", "101033.782500", "101035.782500", "101037.782500", "101039.782500", "101041.782500", "101043.782500", "101045.782500", "101047.782500", "101049.782500", "101051.782500", "101053.782500", "101055.782500", "101057.782500", "101059.782500", "101101.782500", "101103.782500", "101105.782500", "101107.782500", "101109.782500", "101111.782500", "101113.782500", "101115.782500", "101117.782500", "101119.782500", "101121.782500", "101123.782500", "101125.782500", "101127.782500", "101129.782500", "101131.782500", "101133.782500", "101135.782500", "101137.782500", "101139.782500", "101141.782500", "101143.782500", "101145.782500", "101147.782500", "101149.782500", "101151.782500", "101153.782500", "101155.782500", "101157.782500", "101159.782500", "101201.782500", "101203.782500", "101205.782500", "101207.782500", "101209.782500", "101211.782500", "101213.782500", "101215.782500", "101217.782500"],
      "ContentTime": ["100622.382000", "100622.385000", "100622.388000", "100622.390000", "100622.392000", "100622.395000", "100622.397000", "100622.399000", "100622.402000", "100622.404000", "100622.406000", "100622.409000", "100622.411000", "100622.413000", "100622.415000", "100622.418000", "100622.420000", "100622.422000", "100622.425000", "100622.427000", "100622.429000", "100702.378000", "100702.381000", "100702.383000", "100702.386000", "100702.388000", "100702.390000", "100702.393000", "100702.395000", "100702.397000", "100702.400000", "100702.402000", "100702.404000", "100702.407000", "100702.409000", "100702.411000", "100702.414000", "100702.416000", "100702.418000", "100702.420000", "100702.423000", "100742.377000", "100742.380000", "100742.382000", "100742.384000", "100742.387000", "100742.389000", "100742.391000", "100742.394000", "100742.397000", "100742.399000", "100742.401000", "100742.404000", "100742.406000", "100742.408000", "100742.410000", "100742.413000", "100742.415000", "100742.418000", "100742.420000", "100742.422000", "100822.377000", "100822.380000", "100822.382000", "100822.384000", "100822.387000", "100822.389000", "100822.391000", "100822.394000", "100822.396000", "100822.398000", "100822.401000", "100822.403000", "100822.405000", "100822.408000", "100822.410000", "100822.412000", "100822.414000", "100822.417000", "100822.419000", "100822.421000", "100902.378000", "100902.381000", "100902.383000", "100902.385000", "100902.388000", "100902.390000", "100902.392000", "100902.395000", "100902.397000", "100902.399000", "100902.402000", "100902.404000", "100902.406000", "100902.409000", "100902.411000", "100902.413000", "100902.416000", "100902.418000", "100902.420000", "100902.422000", "100942.377000", "100942.380000", "100942.382000", "100942.385000", "100942.387000", "100942.389000", "100942.391000", "100942.394000", "100942.396000", "100942.398000", "100942.401000", "100942.403000", "100942.405000", "100942.408000", "100942.410000", "100942.412000", "100942.415000", "100942.417000", "100942.419000", "100942.422000", "101022.377000", "101022.380000", "101022.382000", "101022.384000", "101022.387000", "101022.389000", "101022.391000", "101022.394000", "101022.396000", "101022.398000", "101022.401000", "101022.403000", "101022.405000", "101022.408000", "101022.410000", "101022.412000", "101022.414000", "101022.417000", "101022.419000", "101022.421000", "101042.377000", "101042.380000", "101042.382000", "101042.385000", "101042.387000", "101042.389000", "101042.392000", "101042.394000", "101042.396000", "101042.399000", "101122.378000", "101122.381000", "101122.383000", "101122.385000", "101122.388000", "101122.390000", "101122.392000", "101122.395000", "101122.397000", "101122.399000", "101122.401000", "101122.404000", "101122.406000", "101122.408000", "101122.411000", "101122.413000", "101122.415000", "101122.418000", "101122.420000", "101122.435000", "101202.377000", "101202.380000", "101202.382000", "101202.385000", "101202.387000", "101202.389000", "101202.391000", "101202.394000", "101202.396000", "101202.398000", "101202.401000", "101202.403000", "101202.406000", "101202.408000", "101202.410000", "101202.412000", "101202.415000", "101202.417000", "101202.419000", "101202.422000", "101219.663000", "101219.670000", "101219.675000", "101219.677000", "101219.680000", "101219.683000", "101219.685000", "101219.691000", "101219.693000"],
      "InstanceCreationTime": ["100622.382000", "100622.385000", "100622.388000", "100622.390000", "100622.392000", "100622.395000", "100622.397000", "100622.399000", "100622.402000", "100622.404000", "100622.406000", "100622.409000", "100622.411000", "100622.413000", "100622.415000", "100622.418000", "100622.420000", "100622.422000", "100622.425000", "100622.427000", "100622.429000", "100702.378000", "100702.381000", "100702.383000", "100702.386000", "100702.388000", "100702.390000", "100702.393000", "100702.395000", "100702.397000", "100702.400000", "100702.402000", "100702.404000", "100702.407000", "100702.409000", "100702.411000", "100702.414000", "100702.416000", "100702.418000", "100702.420000", "100702.423000", "100742.377000", "100742.380000", "100742.382000", "100742.384000", "100742.387000", "100742.389000", "100742.391000", "100742.394000", "100742.397000", "100742.399000", "100742.401000", "100742.404000", "100742.406000", "100742.408000", "100742.410000", "100742.413000", "100742.415000", "100742.418000", "100742.420000", "100742.422000", "100822.377000", "100822.380000", "100822.382000", "100822.384000", "100822.387000", "100822.389000", "100822.391000", "100822.394000", "100822.396000", "100822.398000", "100822.401000", "100822.403000", "100822.405000", "100822.408000", "100822.410000", "100822.412000", "100822.414000", "100822.417000", "100822.419000", "100822.421000", "100902.378000", "100902.381000", "100902.383000", "100902.385000", "100902.388000", "100902.390000", "100902.392000", "100902.395000", "100902.397000", "100902.399000", "100902.402000", "100902.404000", "100902.406000", "100902.409000", "100902.411000", "100902.413000", "100902.416000", "100902.418000", "100902.420000", "100902.422000", "100942.377000", "100942.380000", "100942.382000", "100942.385000", "100942.387000", "100942.389000", "100942.391000", "100942.394000", "100942.396000", "100942.398000", "100942.401000", "100942.403000", "100942.405000", "100942.408000", "100942.410000", "100942.412000", "100942.415000", "100942.417000", "100942.419000", "100942.422000", "101022.377000", "101022.380000", "101022.382000", "101022.384000", "101022.387000", "101022.389000", "101022.391000", "101022.394000", "101022.396000", "101022.398000", "101022.401000", "101022.403000", "101022.405000", "101022.408000", "101022.410000", "101022.412000", "101022.414000", "101022.417000", "101022.419000", "101022.421000", "101042.377000", "101042.380000", "101042.382000", "101042.385000", "101042.387000", "101042.389000", "101042.392000", "101042.394000", "101042.396000", "101042.399000", "101122.378000", "101122.381000", "101122.383000", "101122.385000", "101122.388000", "101122.390000", "101122.392000", "101122.395000", "101122.397000", "101122.399000", "101122.401000", "101122.404000", "101122.406000", "101122.408000", "101122.411000", "101122.413000", "101122.415000", "101122.418000", "101122.420000", "101122.435000", "101202.377000", "101202.380000", "101202.382000", "101202.385000", "101202.387000", "101202.389000", "101202.391000", "101202.394000", "101202.396000", "101202.398000", "101202.401000", "101202.403000", "101202.406000", "101202.408000", "101202.410000", "101202.412000", "101202.415000", "101202.417000", "101202.419000", "101202.422000", "101219.663000", "101219.670000", "101219.675000", "101219.677000", "101219.680000", "101219.683000", "101219.685000", "101219.691000", "101219.693000"],
      "InstanceNumber": [1, 2, 3, 4, 5, 6, 7, 8, 9, 10, 11, 12, 13, 14, 15, 16, 17, 18, 19, 20, 21, 22, 23, 24, 25, 26, 27, 28, 29, 30, 31, 32, 33, 34, 35, 36, 37, 38, 39, 40, 41, 42, 43, 44, 45, 46, 47, 48, 49, 50, 51, 52, 53, 54, 55, 56, 57, 58, 59, 60, 61, 62, 63, 64, 65, 66, 67, 68, 69, 70, 71, 72, 73, 74, 75, 76, 77, 78, 79, 80, 81, 82, 83, 84, 85, 86, 87, 88, 89, 90, 91, 92, 93, 94, 95, 96, 97, 98, 99, 100, 101, 102, 103, 104, 105, 106, 107, 108, 109, 110, 111, 112, 113, 114, 115, 116, 117, 118, 119, 120, 121, 122, 123, 124, 125, 126, 127, 128, 129, 130, 131, 132, 133, 134, 135, 136, 137, 138, 139, 140, 141, 142, 143, 144, 145, 146, 147, 148, 149, 150, 151, 152, 153, 154, 155, 156, 157, 158, 159, 160, 161, 162, 163, 164, 165, 166, 167, 168, 169, 170, 171, 172, 173, 174, 175, 176, 177, 178, 179, 180, 181, 182, 183, 184, 185, 186, 187, 188, 189, 190, 191, 192, 193, 194, 195, 196, 197, 198, 199, 200],
      "LargestImagePixelValue": [2191, 2193, 2199, 2201, 2195, 2195, 2200, 2187, 2200, 2193, 2197, 2195, 2199, 2195, 2190, 2196, 2195, 2192, 2190, 2193, 2194, 2199, 2193, 2196, 2192, 2195, 2190, 2195, 2198, 2195, 2196, 2195, 2198, 2194, 2194, 2192, 2192, 2196, 2187, 2195, 2199, 2196, 2197, 2199, 2192, 2193, 2195, 2192, 2191, 2199, 2191, 2186, 2201, 2189, 2195, 2193, 2190, 2193, 2192, 2196, 2194, 2194, 2195, 2189, 2199, 2194, 2192, 2199, 2193, 2191, 2190, 2193, 2190, 2197, 2195, 2190, 2188, 2194, 2198, 2193, 2189, 2197, 2193, 2201, 2195, 2189, 2195, 2199, 2199, 2193, 2186, 2193, 2192, 2192, 2189, 2192, 2190, 2198, 2192, 2189, 2189, 2187, 2194, 2189, 2189, 2191, 2190, 2189, 2195, 2190, 2190, 2194, 2196, 2187, 2188, 2199, 2191, 2192, 2190, 2188, 2187, 2189, 2188, 2188, 2195, 2193, 2193, 2190, 2194, 2191, 2193, 2194, 2194, 2191, 2195, 2189, 2188, 2191, 2192, 2191, 2188, 2184, 2191, 2187, 2192, 2192, 2189, 2192, 2190, 2191, 2186, 2185, 2188, 2194, 2193, 2192, 2190, 2192, 2196, 2190, 2193, 2189, 2193, 2188, 2185, 2189, 2188, 2186, 2182, 2189, 2189, 2195, 2186, 2192, 2193, 2185, 2192, 2189, 2192, 2190, 2194, 2189, 2188, 2187, 2189, 2190, 2187, 2190, 2189, 2185, 2194, 2191, 2183, 2185, 2191, 2184, 2186, 2186, 2190, 2187],
      "WindowCenter": [1036.0, 1035.0, 1035.0, 1035.0, 1035.0, 1035.0, 1035.0, 1035.0, 1035.0, 1035.0, 1035.0, 1035.0, 1035.0, 1035.0, 1035.0, 1035.0, 1035.0, 1035.0, 1035.0, 1035.0, 1035.0, 1035.0, 1035.0, 1035.0, 1035.0, 1035.0, 1035.0, 1035.0, 1035.0, 1035.0, 1035.0, 1035.0, 1035.0, 1035.0, 1035.0, 1035.0, 1035.0, 1035.0, 1035.0, 1035.0, 1035.0, 1035.0, 1036.0, 1035.0, 1035.0, 1035.0, 1035.0, 1035.0, 1035.0, 1034.0, 1035.0, 1035.0, 1035.0, 1035.0, 1035.0, 1034.0, 1035.0, 1034.0, 1035.0, 1034.0, 1034.0, 1034.0, 1035.0, 1034.0, 1034.0, 1035.0, 1034.0, 1034.0, 1034.0, 1034.0, 1034.0, 1035.0, 1034.0, 1035.0, 1034.0, 1035.0, 1034.0, 1034.0, 1034.0, 1034.0, 1034.0, 1034.0, 1034.0, 1034.0, 1034.0, 1034.0, 1034.0, 1034.0, 1034.0, 1034.0, 1034.0, 1034.0, 1034.0, 1034.0, 1034.0, 1034.0, 1034.0, 1034.0, 1034.0, 1034.0, 1034.0, 1034.0, 1034.0, 1034.0, 1034.0, 1034.0, 1034.0, 1035.0, 1034.0, 1034.0, 1034.0, 1034.0, 1034.0, 1034.0, 1034.0, 1034.0, 1034.0, 1034.0, 1034.0, 1034.0, 1034.0, 1034.0, 1034.0, 1034.0, 1034.0, 1034.0, 1034.0, 1034.0, 1034.0, 1034.0, 1034.0, 1034.0, 1034.0, 1034.0, 1034.0, 1034.0, 1034.0, 1034.0, 1034.0, 1034.0, 1034.0, 1034.0, 1034.0, 1034.0, 1034.0, 1034.0, 1034.0, 1034.0, 1034.0, 1034.0, 1034.0, 1034.0, 1034.0, 1034.0, 1034.0, 1034.0, 1034.0, 1034.0, 1034.0, 1034.0, 1034.0, 1034.0, 1034.0, 1034.0, 1034.0, 1034.0, 1034.0, 1034.0, 1034.0, 1034.0, 1034.0, 1034.0, 1034.0, 1034.0, 1034.0, 1034.0, 1034.0, 1034.0, 1034.0, 1034.0, 1034.0, 1034.0, 1034.0, 1034.0, 1034.0, 1034.0, 1034.0, 1034.0, 1034.0, 1034.0, 1034.0, 1034.0, 1034.0, 1034.0, 1034.0, 1034.0, 1034.0, 1034.0, 1034.0, 1034.0],
      "WindowWidth": [2313.0, 2312.0, 2312.0, 2312.0, 2312.0, 2312.0, 2312.0, 2312.0, 2312.0, 2312.0, 2312.0, 2312.0, 2312.0, 2311.0, 2312.0, 2311.0, 2311.0, 2311.0, 2311.0, 2311.0, 2311.0, 2311.0, 2312.0, 2311.0, 2311.0, 2311.0, 2311.0, 2311.0, 2311.0, 2311.0, 2311.0, 2311.0, 2311.0, 2311.0, 2311.0, 2311.0, 2311.0, 2311.0, 2310.0, 2311.0, 2310.0, 2311.0, 2312.0, 2310.0, 2310.0, 2310.0, 2310.0, 2310.0, 2310.0, 2311.0, 2310.0, 2310.0, 2310.0, 2310.0, 2310.0, 2310.0, 2310.0, 2310.0, 2310.0, 2310.0, 2310.0, 2310.0, 2311.0, 2310.0, 2310.0, 2309.0, 2310.0, 2310.0, 2310.0, 2310.0, 2309.0, 2310.0, 2310.0, 2310.0, 2310.0, 2310.0, 2309.0, 2310.0, 2310.0, 2310.0, 2309.0, 2310.0, 2310.0, 2309.0, 2309.0, 2309.0, 2309.0, 2310.0, 2309.0, 2310.0, 2309.0, 2310.0, 2309.0, 2309.0, 2309.0, 2309.0, 2309.0, 2309.0, 2309.0, 2309.0, 2309.0, 2309.0, 2309.0, 2309.0, 2309.0, 2309.0, 2309.0, 2310.0, 2309.0, 2309.0, 2309.0, 2309.0, 2309.0, 2309.0, 2309.0, 2309.0, 2309.0, 2309.0, 2309.0, 2309.0, 2308.0, 2309.0, 2309.0, 2309.0, 2309.0, 2309.0, 2309.0, 2309.0, 2309.0, 2308.0, 2309.0, 2309.0, 2309.0, 2309.0, 2309.0, 2308.0, 2308.0, 2308.0, 2308.0, 2309.0, 2308.0, 2308.0, 2309.0, 2309.0, 2309.0, 2308.0, 2308.0, 2309.0, 2309.0, 2309.0, 2308.0, 2308.0, 2308.0, 2308.0, 2308.0, 2308.0, 2308.0, 2308.0, 2309.0, 2308.0, 2308.0, 2308.0, 2308.0, 2308.0, 2308.0, 2308.0, 2309.0, 2308.0, 2308.0, 2308.0, 2308.0, 2308.0, 2308.0, 2308.0, 2308.0, 2308.0, 2308.0, 2308.0, 2308.0, 2308.0, 2308.0, 2308.0, 2308.0, 2308.0, 2308.0, 2308.0, 2308.0, 2308.0, 2308.0, 2308.0, 2308.0, 2308.0, 2307.0, 2308.0, 2308.0, 2308.0, 2308.0, 2308.0, 2308.0, 2308.0]
    },
    "slices": {}
  }
}