{
  "AcquisitionMatrixPE": 80,
  "AcquisitionNumber": 1,
  "AcquisitionTime": "10:26:10.455000",
  "BandwidthPerPixelPhaseEncode": 25,
  "BaseResolution": 80,
  "BodyPartExamined": "BRAIN",
  "CoilCombinationMethod": "Sum of Squares",
  "ConsistencyInfo": "N4_VE11E_LATEST_20181129",
  "ConversionSoftware": "dcm2niix",
  "ConversionSoftwareVersion": "v1.0.20220720",
  "DerivedVendorReportedEchoSpacing": 0.0005,
  "DeviceSerialNumber": "66112",
  "DwellTime": 2.7e-06,
  "EchoTime": 0.03,
  "EchoTrainLength": 80,
  "EffectiveEchoSpacing": 0.0005,
  "FlipAngle": 10,
  "HeudiconvVersion": "0.13.1",
  "ImageOrientationPatientDICOM": [0.98834, 0.151945, 0.00979482, -0.147708, 0.941195, 0.303867],
  "ImageOrientationText": "Tra>Cor(17.6)>Sag(-2.1)",
  "ImageType": [
    "ORIGINAL",
    "PRIMARY",
    "M",
    "ND",
    "NORM",
    "MOSAIC"
],
  "ImagingFrequency": 123.259,
  "InPlanePhaseEncodingDirectionDICOM": "COL",
  "InstitutionAddress": "Maynard 3,Hanover,NH,US,03755",
  "InstitutionName": "Dartmouth College - PBS",
  "InstitutionalDepartmentName": "Department",
  "MRAcquisitionType": "2D",
  "MagneticFieldStrength": 3,
  "Manufacturer": "Siemens",
  "ManufacturersModelName": "Prisma",
  "MatrixCoilMode": "SENSE",
  "Modality": "MR",
  "NonlinearGradientCorrection": false,
  "PartialFourier": 1,
  "PatientPosition": "HFS",
  "PercentPhaseFOV": 100,
  "PercentSampling": 100,
  "PhaseEncodingDirection": "j-",
  "PhaseEncodingSteps": 80,
  "PhaseResolution": 1,
  "PixelBandwidth": 2315,
  "ProcedureStepDescription": "dbic^QA",
  "ProtocolName": "func-bold_fa-10",
  "PulseSequenceDetails": "%SiemensSeq%\\ep2d_bold",
  "ReceiveCoilActiveElements": "HEA;HEP",
  "ReceiveCoilName": "Head_32",
  "ReconMatrixPE": 80,
  "RepetitionTime": 2,
  "SAR": 0.0115409,
  "ScanOptions": "FS",
  "ScanningSequence": "EP",
  "SequenceName": "*epfid2d1_80",
  "SequenceVariant": "SK",
  "SeriesDescription": "func-bold_fa-10",
  "SeriesNumber": 8,
  "ShimSetting": [4229, -7745, -7497, -24, -132, -25, -6, 112],
  "SliceThickness": 3.5,
  "SliceTiming": [0.99, 0, 1.0575, 0.0675, 1.1225, 0.1325, 1.1875, 0.1975, 1.255, 0.265, 1.32, 0.33, 1.3875, 0.3975, 1.4525, 0.4625, 1.5175, 0.5275, 1.585, 0.595, 1.65, 0.66, 1.715, 0.7275, 1.7825, 0.7925, 1.8475, 0.8575, 1.915, 0.925],
  "SoftwareVersions": "syngo MR E11",
  "SpacingBetweenSlices": 3.99,
  "StationName": "AWP66112",
  "TotalReadoutTime": 0.0395,
  "TxRefAmp": 226.236,
  "dcmmeta_affine": [
    [-2.9650211334228516, -0.44312533736228943, -0.1474393904209137, 141.30104064941406],
    [-0.4558352828025818, 2.8235836029052734, 1.2040644884109497, -109.5684585571289],
    [0.029384465888142586, -0.9116002321243286, 3.8011300563812256, -18.67654800415039],
    [0.0, 0.0, 0.0, 1.0]
],
  "dcmmeta_reorient_transform": [
    [0.0, -1.0, 0.0, 79.0],
    [1.0, 0.0, 0.0, 0.0],
    [0.0, 0.0, 1.0, 0.0],
    [0.0, 0.0, 0.0, 1.0]
],
  "dcmmeta_shape": [80, 80, 30, 200],
  "dcmmeta_slice_dim": 2,
  "dcmmeta_version": 0.6,
  "global": {
    "const": {
      "AccessionNumber": "qa",
      "AcquisitionMatrix": [80, 0, 0, 80],
      "AngioFlag": "N",
      "BitsAllocated": 16,
      "BitsStored": 12,
      "BodyPartExamined": "BRAIN",
      "Columns": 480,
      "EchoNumbers": 1,
      "EchoTime": 30.0,
      "EchoTrainLength": 80,
      "FlipAngle": 10.0,
      "HighBit": 11,
      "ImageOrientationPatient": [0.98834040117102, 0.15194509821656, 0.00979482215601, -0.1477084432622, 0.94119456990727, 0.30386674277739],
      "ImagePositionPatient": [-610.67331175355, -769.37845693844, -278.88990417515],
      "ImageType": [
        "ORIGINAL",
        "PRIMARY",
        "M",
        "ND",
        "NORM",
        "MOSAIC"
],
      "ImagedNucleus": "1H",
      "ImagingFrequency": 123.2591,
      "InPlanePhaseEncodingDirection": "COL",
      "MRAcquisitionType": "2D",
      "MagneticFieldStrength": 3.0,
      "Manufacturer": "SIEMENS",
      "ManufacturerModelName": "Prisma",
      "Modality": "MR",
      "NumberOfAverages": 1.0,
      "NumberOfPhaseEncodingSteps": 80,
      "PercentPhaseFieldOfView": 100.0,
      "PercentSampling": 100.0,
      "PerformedProcedureStepStartTime": "100403.289000",
      "PhotometricInterpretation": "MONOCHROME2",
      "PixelBandwidth": 2315.0,
      "PixelRepresentation": 0,
      "PixelSpacing": [3.0, 3.0],
      "ProtocolName": "func-bold_fa-10",
      "RepetitionTime": 2000.0,
      "Rows": 480,
      "SAR": 0.01154085142052,
      "SamplesPerPixel": 1,
      "ScanOptions": "FS",
      "ScanningSequence": "EP",
      "SequenceName": "*epfid2d1_80",
      "SequenceVariant": "SK",
      "SeriesDescription": "func-bold_fa-10",
      "SeriesNumber": 8,
      "SeriesTime": "102702.379000",
      "SliceLocation": -56.078400238988,
      "SliceThickness": 3.5,
      "SmallestImagePixelValue": 0,
      "SoftwareVersions": "syngo MR E11",
      "SpacingBetweenSlices": 3.989999975999,
      "SpecificCharacterSet": "ISO_IR 100",
      "StudyID": "28",
      "StudyTime": "100403.204000",
      "TransmitCoilName": "Body",
      "VariableFlipAngleFlag": "N",
      "WindowCenterWidthExplanation": "Algo1"
    },
    "slices": {}
  },
  "time": {
    "samples": {
      "AcquisitionNumber": [1, 2, 3, 4, 5, 6, 7, 8, 9, 10, 11, 12, 13, 14, 15, 16, 17, 18, 19, 20, 21, 22, 23, 24, 25, 26, 27, 28, 29, 30, 31, 32, 33, 34, 35, 36, 37, 38, 39, 40, 41, 42, 43, 44, 45, 46, 47, 48, 49, 50, 51, 52, 53, 54, 55, 56, 57, 58, 59, 60, 61, 62, 63, 64, 65, 66, 67, 68, 69, 70, 71, 72, 73, 74, 75, 76, 77, 78, 79, 80, 81, 82, 83, 84, 85, 86, 87, 88, 89, 90, 91, 92, 93, 94, 95, 96, 97, 98, 99, 100, 101, 102, 103, 104, 105, 106, 107, 108, 109, 110, 111, 112, 113, 114, 115, 116, 117, 118, 119, 120, 121, 122, 123, 124, 125, 126, 127, 128, 129, 130, 131, 132, 133, 134, 135, 136, 137, 138, 139, 140, 141, 142, 143, 144, 145, 146, 147, 148, 149, 150, 151, 152, 153, 154, 155, 156, 157, 158, 159, 160, 161, 162, 163, 164, 165, 166, 167, 168, 169, 170, 171, 172, 173, 174, 175, 176, 177, 178, 179, 180, 181, 182, 183, 184, 185, 186, 187, 188, 189, 190, 191, 192, 193, 194, 195, 196, 197, 198, 199, 200],
      "AcquisitionTime": ["102610.455000", "102612.455000", "102614.455000", "102616.455000", "102618.455000", "102620.455000", "102622.455000", "102624.455000", "102626.455000", "102628.455000", "102630.455000", "102632.455000", "102634.455000", "102636.455000", "102638.455000", "102640.455000", "102642.455000", "102644.455000", "102646.455000", "102648.455000", "102650.455000", "102652.455000", "102654.455000", "102656.455000", "102658.455000", "102700.455000", "102702.455000", "102704.455000", "102706.455000", "102708.455000", "102710.455000", "102712.455000", "102714.455000", "102716.455000", "102718.455000", "102720.455000", "102722.455000", "102724.455000", "102726.455000", "102728.455000", "102730.455000", "102732.455000", "102734.455000", "102736.455000", "102738.455000", "102740.455000", "102742.455000", "102744.455000", "102746.455000", "102748.455000", "102750.455000", "102752.455000", "102754.455000", "102756.455000", "102758.455000", "102800.455000", "102802.455000", "102804.455000", "102806.455000", "102808.455000", "102810.455000", "102812.455000", "102814.455000", "102816.455000", "102818.455000", "102820.455000", "102822.455000", "102824.455000", "102826.455000", "102828.455000", "102830.455000", "102832.455000", "102834.455000", "102836.455000", "102838.455000", "102840.455000", "102842.455000", "102844.455000", "102846.455000", "102848.455000", "102850.455000", "102852.455000", "102854.455000", "102856.455000", "102858.455000", "102900.455000", "102902.455000", "102904.455000", "102906.455000", "102908.455000", "102910.455000", "102912.455000", "102914.455000", "102916.455000", "102918.455000", "102920.455000", "102922.455000", "102924.455000", "102926.455000", "102928.455000", "102930.455000", "102932.455000", "102934.455000", "102936.455000", "102938.455000", "102940.455000", "102942.455000", "102944.455000", "102946.455000", "102948.455000", "102950.455000", "102952.455000", "102954.455000", "102956.455000", "102958.455000", "103000.455000", "103002.455000", "103004.455000", "103006.455000", "103008.455000", "103010.455000", "103012.455000", "103014.455000", "103016.455000", "103018.455000", "103020.455000", "103022.455000", "103024.455000", "103026.455000", "103028.455000", "103030.455000", "103032.455000", "103034.455000", "103036.455000", "103038.455000", "103040.455000", "103042.455000", "103044.455000", "103046.455000", "103048.455000", "103050.455000", "103052.455000", "103054.455000", "103056.455000", "103058.455000", "103100.455000", "103102.455000", "103104.455000", "103106.455000", "103108.455000", "103110.455000", "103112.455000", "103114.455000", "103116.455000", "103118.455000", "103120.455000", "103122.455000", "103124.455000", "103126.455000", "103128.455000", "103130.455000", "103132.455000", "103134.455000", "103136.455000", "103138.455000", "103140.455000", "103142.455000", "103144.455000", "103146.455000", "103148.455000", "103150.455000", "103152.455000", "103154.455000", "103156.455000", "103158.455000", "103200.455000", "103202.455000", "103204.455000", "103206.455000", "103208.455000", "103210.455000", "103212.455000", "103214.455000", "103216.455000", "103218.455000", "103220.455000", "103222.455000", "103224.455000", "103226.455000", "103228.455000", "103230.455000", "103232.455000", "103234.455000", "103236.455000", "103238.455000", "103240.455000", "103242.455000", "103244.455000", "103246.455000", "103248.455000"],
      "ContentTime": ["102702.382000", "102702.385000", "102702.387000", "102702.390000", "102702.392000", "102702.394000", "102702.396000", "102702.399000", "102702.401000", "102702.404000", "102702.406000", "102702.408000", "102702.410000", "102702.413000", "102702.415000", "102702.417000", "102702.419000", "102702.422000", "102702.424000", "102702.426000", "102702.429000", "102702.431000", "102702.433000", "102702.436000", "102702.438000", "102702.440000", "102742.378000", "102742.381000", "102742.383000", "102742.385000", "102742.388000", "102742.390000", "102742.392000", "102742.395000", "102742.397000", "102742.399000", "102742.401000", "102742.404000", "102742.406000", "102742.408000", "102742.410000", "102742.413000", "102742.415000", "102742.417000", "102742.419000", "102742.422000", "102822.377000", "102822.380000", "102822.382000", "102822.384000", "102822.387000", "102822.389000", "102822.391000", "102822.393000", "102822.396000", "102822.398000", "102822.400000", "102822.403000", "102822.405000", "102822.407000", "102822.409000", "102822.412000", "102822.414000", "102822.416000", "102822.418000", "102822.421000", "102902.377000", "102902.380000", "102902.382000", "102902.384000", "102902.387000", "102902.389000", "102902.391000", "102902.393000", "102902.396000", "102902.398000", "102902.400000", "102902.402000", "102902.405000", "102902.407000", "102902.409000", "102902.412000", "102902.414000", "102902.416000", "102902.418000", "102902.421000", "102942.378000", "102942.381000", "102942.383000", "102942.385000", "102942.387000", "102942.390000", "102942.392000", "102942.394000", "102942.397000", "102942.399000", "102942.401000", "102942.404000", "102942.406000", "102942.408000", "102942.410000", "102942.413000", "102942.415000", "102942.417000", "102942.419000", "102942.422000", "103022.377000", "103022.380000", "103022.382000", "103022.384000", "103022.387000", "103022.389000", "103022.391000", "103022.393000", "103022.396000", "103022.398000", "103022.400000", "103022.403000", "103022.405000", "103022.407000", "103022.410000", "103022.412000", "103022.414000", "103022.416000", "103022.419000", "103022.421000", "103042.377000", "103042.380000", "103042.382000", "103042.384000", "103042.387000", "103042.389000", "103042.391000", "103042.394000", "103042.396000", "103042.398000", "103122.377000", "103122.380000", "103122.382000", "103122.384000", "103122.387000", "103122.389000", "103122.391000", "103122.394000", "103122.396000", "103122.398000", "103122.400000", "103122.403000", "103122.405000", "103122.407000", "103122.410000", "103122.412000", "103122.414000", "103122.416000", "103122.419000", "103122.421000", "103202.378000", "103202.381000", "103202.383000", "103202.385000", "103202.388000", "103202.390000", "103202.392000", "103202.394000", "103202.397000", "103202.399000", "103202.401000", "103202.404000", "103202.406000", "103202.408000", "103202.410000", "103202.413000", "103202.415000", "103202.417000", "103202.419000", "103202.422000", "103242.377000", "103242.380000", "103242.382000", "103242.384000", "103242.387000", "103242.389000", "103242.391000", "103242.394000", "103242.396000", "103242.398000", "103242.400000", "103242.403000", "103242.405000", "103242.407000", "103242.410000", "103242.412000", "103242.414000", "103242.416000", "103242.419000", "103242.421000", "103250.060000", "103250.062000", "103250.064000", "103250.067000"],
      "InstanceCreationTime": ["102702.382000", "102702.385000", "102702.387000", "102702.390000", "102702.392000", "102702.394000", "102702.396000", "102702.399000", "102702.401000", "102702.404000", "102702.406000", "102702.408000", "102702.410000", "102702.413000", "102702.415000", "102702.417000", "102702.419000", "102702.422000", "102702.424000", "102702.426000", "102702.429000", "102702.431000", "102702.433000", "102702.436000", "102702.438000", "102702.440000", "102742.378000", "102742.381000", "102742.383000", "102742.385000", "102742.388000", "102742.390000", "102742.392000", "102742.395000", "102742.397000", "102742.399000", "102742.401000", "102742.404000", "102742.406000", "102742.408000", "102742.410000", "102742.413000", "102742.415000", "102742.417000", "102742.419000", "102742.422000", "102822.377000", "102822.380000", "102822.382000", "102822.384000", "102822.387000", "102822.389000", "102822.391000", "102822.393000", "102822.396000", "102822.398000", "102822.400000", "102822.403000", "102822.405000", "102822.407000", "102822.409000", "102822.412000", "102822.414000", "102822.416000", "102822.418000", "102822.421000", "102902.377000", "102902.380000", "102902.382000", "102902.384000", "102902.387000", "102902.389000", "102902.391000", "102902.393000", "102902.396000", "102902.398000", "102902.400000", "102902.402000", "102902.405000", "102902.407000", "102902.409000", "102902.412000", "102902.414000", "102902.416000", "102902.418000", "102902.421000", "102942.378000", "102942.381000", "102942.383000", "102942.385000", "102942.387000", "102942.390000", "102942.392000", "102942.394000", "102942.397000", "102942.399000", "102942.401000", "102942.404000", "102942.406000", "102942.408000", "102942.410000", "102942.413000", "102942.415000", "102942.417000", "102942.419000", "102942.422000", "103022.377000", "103022.380000", "103022.382000", "103022.384000", "103022.387000", "103022.389000", "103022.391000", "103022.393000", "103022.396000", "103022.398000", "103022.400000", "103022.403000", "103022.405000", "103022.407000", "103022.410000", "103022.412000", "103022.414000", "103022.416000", "103022.419000", "103022.421000", "103042.377000", "103042.380000", "103042.382000", "103042.384000", "103042.387000", "103042.389000", "103042.391000", "103042.394000", "103042.396000", "103042.398000", "103122.377000", "103122.380000", "103122.382000", "103122.384000", "103122.387000", "103122.389000", "103122.391000", "103122.394000", "103122.396000", "103122.398000", "103122.400000", "103122.403000", "103122.405000", "103122.407000", "103122.410000", "103122.412000", "103122.414000", "103122.416000", "103122.419000", "103122.421000", "103202.378000", "103202.381000", "103202.383000", "103202.385000", "103202.388000", "103202.390000", "103202.392000", "103202.394000", "103202.397000", "103202.399000", "103202.401000", "103202.404000", "103202.406000", "103202.408000", "103202.410000", "103202.413000", "103202.415000", "103202.417000", "103202.419000", "103202.422000", "103242.377000", "103242.380000", "103242.382000", "103242.384000", "103242.387000", "103242.389000", "103242.391000", "103242.394000", "103242.396000", "103242.398000", "103242.400000", "103242.403000", "103242.405000", "103242.407000", "103242.410000", "103242.412000", "103242.414000", "103242.416000", "103242.419000", "103242.421000", "103250.060000", "103250.062000", "103250.064000", "103250.067000"],
      "InstanceNumber": [1, 2, 3, 4, 5, 6, 7, 8, 9, 10, 11, 12, 13, 14, 15, 16, 17, 18, 19, 20, 21, 22, 23, 24, 25, 26, 27, 28, 29, 30, 31, 32, 33, 34, 35, 36, 37, 38, 39, 40, 41, 42, 43, 44, 45, 46, 47, 48, 49, 50, 51, 52, 53, 54, 55, 56, 57, 58, 59, 60, 61, 62, 63, 64, 65, 66, 67, 68, 69, 70, 71, 72, 73, 74, 75, 76, 77, 78, 79, 80, 81, 82, 83, 84, 85, 86, 87, 88, 89, 90, 91, 92, 93, 94, 95, 96, 97, 98, 99, 100, 101, 102, 103, 104, 105, 106, 107, 108, 109, 110, 111, 112, 113, 114, 115, 116, 117, 118, 119, 120, 121, 122, 123, 124, 125, 126, 127, 128, 129, 130, 131, 132, 133, 134, 135, 136, 137, 138, 139, 140, 141, 142, 143, 144, 145, 146, 147, 148, 149, 150, 151, 152, 153, 154, 155, 156, 157, 158, 159, 160, 161, 162, 163, 164, 165, 166, 167, 168, 169, 170, 171, 172, 173, 174, 175, 176, 177, 178, 179, 180, 181, 182, 183, 184, 185, 186, 187, 188, 189, 190, 191, 192, 193, 194, 195, 196, 197, 198, 199, 200],
      "LargestImagePixelValue": [380, 375, 377, 376, 376, 375, 376, 378, 373, 377, 376, 375, 376, 375, 377, 376, 377, 378, 375, 378, 376, 377, 376, 376, 376, 377, 376, 377, 376, 377, 378, 377, 376, 376, 376, 376, 378, 375, 378, 375, 376, 376, 375, 376, 375, 378, 376, 375, 376, 375, 377, 375, 375, 377, 375, 376, 376, 376, 375, 376, 376, 375, 376, 378, 376, 377, 374, 377, 374, 376, 376, 375, 378, 375, 376, 376, 375, 377, 375, 376, 375, 376, 376, 375, 377, 374, 376, 376, 376, 376, 375, 376, 375, 377, 377, 376, 377, 375, 377, 375, 376, 377, 375, 376, 375, 376, 377, 376, 378, 375, 377, 375, 376, 375, 375, 376, 375, 376, 376, 377, 376, 374, 377, 375, 375, 375, 374, 378, 375, 376, 374, 375, 375, 374, 376, 374, 375, 377, 374, 375, 374, 376, 376, 374, 376, 373, 376, 375, 374, 376, 373, 376, 374, 375, 374, 373, 375, 376, 377, 374, 375, 375, 375, 375, 376, 375, 375, 374, 375, 374, 375, 373, 375, 376, 376, 376, 375, 375, 375, 376, 374, 374, 375, 374, 374, 375, 374, 375, 375, 375, 375, 374, 376, 374, 374, 374, 375, 377, 374, 375],
      "WindowCenter": [301.0, 301.0, 301.0, 301.0, 301.0, 301.0, 301.0, 301.0, 301.0, 301.0, 301.0, 301.0, 301.0, 301.0, 301.0, 301.0, 301.0, 301.0, 301.0, 301.0, 301.0, 301.0, 301.0, 301.0, 301.0, 301.0, 301.0, 301.0, 301.0, 301.0, 301.0, 301.0, 301.0, 301.0, 301.0, 301.0, 301.0, 301.0, 301.0, 301.0, 301.0, 301.0, 301.0, 301.0, 301.0, 301.0, 301.0, 301.0, 301.0, 301.0, 301.0, 301.0, 301.0, 301.0, 301.0, 301.0, 301.0, 301.0, 301.0, 301.0, 301.0, 301.0, 301.0, 301.0, 301.0, 301.0, 301.0, 301.0, 301.0, 301.0, 301.0, 301.0, 301.0, 301.0, 301.0, 301.0, 301.0, 301.0, 301.0, 301.0, 301.0, 301.0, 301.0, 301.0, 301.0, 301.0, 301.0, 301.0, 301.0, 301.0, 301.0, 301.0, 301.0, 301.0, 301.0, 301.0, 301.0, 301.0, 301.0, 301.0, 301.0, 301.0, 301.0, 301.0, 301.0, 301.0, 301.0, 301.0, 301.0, 301.0, 301.0, 301.0, 301.0, 301.0, 301.0, 301.0, 301.0, 301.0, 301.0, 301.0, 301.0, 301.0, 301.0, 301.0, 301.0, 301.0, 301.0, 300.0, 301.0, 301.0, 301.0, 301.0, 301.0, 301.0, 301.0, 301.0, 301.0, 301.0, 301.0, 301.0, 301.0, 301.0, 301.0, 301.0, 301.0, 301.0, 301.0, 301.0, 301.0, 301.0, 301.0, 301.0, 301.0, 301.0, 300.0, 301.0, 300.0, 301.0, 301.0, 300.0, 301.0, 301.0, 301.0, 301.0, 301.0, 301.0, 301.0, 301.0, 300.0, 301.0, 300.0, 301.0, 301.0, 301.0, 301.0, 301.0, 301.0, 301.0, 300.0, 301.0, 301.0, 301.0, 301.0, 300.0, 301.0, 300.0, 301.0, 301.0, 301.0, 300.0, 300.0, 301.0, 300.0, 301.0, 300.0, 301.0, 300.0, 300.0, 301.0, 300.0],
      "WindowWidth": [653.0, 653.0, 653.0, 653.0, 653.0, 653.0, 653.0, 653.0, 653.0, 652.0, 653.0, 653.0, 653.0, 653.0, 653.0, 653.0, 653.0, 653.0, 653.0, 653.0, 653.0, 653.0, 653.0, 653.0, 653.0, 653.0, 653.0, 653.0, 653.0, 653.0, 653.0, 652.0, 653.0, 653.0, 653.0, 653.0, 653.0, 653.0, 653.0, 652.0, 653.0, 653.0, 653.0, 652.0, 653.0, 653.0, 653.0, 653.0, 653.0, 653.0, 653.0, 653.0, 653.0, 652.0, 653.0, 653.0, 653.0, 653.0, 653.0, 653.0, 652.0, 653.0, 653.0, 653.0, 653.0, 652.0, 652.0, 653.0, 653.0, 653.0, 652.0, 652.0, 653.0, 653.0, 653.0, 652.0, 652.0, 652.0, 652.0, 652.0, 653.0, 652.0, 652.0, 653.0, 652.0, 653.0, 653.0, 653.0, 652.0, 652.0, 653.0, 653.0, 653.0, 653.0, 653.0, 653.0, 653.0, 653.0, 652.0, 652.0, 652.0, 652.0, 653.0, 652.0, 652.0, 652.0, 652.0, 652.0, 652.0, 652.0, 653.0, 652.0, 652.0, 652.0, 652.0, 652.0, 652.0, 652.0, 652.0, 653.0, 652.0, 653.0, 652.0, 652.0, 652.0, 652.0, 653.0, 651.0, 652.0, 652.0, 652.0, 652.0, 652.0, 652.0, 652.0, 652.0, 652.0, 652.0, 652.0, 652.0, 652.0, 652.0, 652.0, 652.0, 652.0, 652.0, 652.0, 652.0, 652.0, 652.0, 653.0, 652.0, 652.0, 652.0, 651.0, 652.0, 651.0, 652.0, 652.0, 651.0, 652.0, 652.0, 652.0, 652.0, 652.0, 652.0, 652.0, 652.0, 651.0, 652.0, 651.0, 652.0, 652.0, 652.0, 652.0, 652.0, 652.0, 652.0, 651.0, 652.0, 652.0, 652.0, 652.0, 651.0, 652.0, 651.0, 653.0, 652.0, 652.0, 652.0, 651.0, 652.0, 651.0, 652.0, 651.0, 652.0, 651.0, 651.0, 652.0, 651.0]
    },
    "slices": {}
  }
}