{
  "AcquisitionMatrixPE": 80,
  "AcquisitionNumber": 1,
  "AcquisitionTime": "08:45:40.542500",
  "BandwidthPerPixelPhaseEncode": 25,
  "BaseResolution": 80,
  "BodyPartExamined": "BRAIN",
  "CoilCombinationMethod": "Sum of Squares",
  "ConsistencyInfo": "N4_VE11C_LATEST_20160120",
  "ConversionSoftware": "dcm2niix",
  "ConversionSoftwareVersion": "v1.0.20220720",
  "DerivedVendorReportedEchoSpacing": 0.0005,
  "DeviceSerialNumber": "66112",
  "DwellTime": 2.7e-06,
  "EchoTime": 0.03,
  "EchoTrainLength": 80,
  "EffectiveEchoSpacing": 0.0005,
  "FlipAngle": 10,
  "HeudiconvVersion": "0.13.1",
  "ImageOrientationPatientDICOM": [0.991416, -0.130724, 0.00236027, 0.123312, 0.940898, 0.315444],
  "ImageOrientationText": "Tra>Cor(18.2)>Sag(2.5)",
  "ImageType": [
    "ORIGINAL",
    "PRIMARY",
    "M",
    "ND",
    "NORM",
    "MOSAIC"
],
  "ImagingFrequency": 123.252,
  "InPlanePhaseEncodingDirectionDICOM": "COL",
  "InstitutionAddress": "Maynard 3,Hanover,NH,US,03755",
  "InstitutionName": "Dartmouth College - PBS",
  "InstitutionalDepartmentName": "Department",
  "MRAcquisitionType": "2D",
  "MagneticFieldStrength": 3,
  "Manufacturer": "Siemens",
  "ManufacturersModelName": "Prisma",
  "MatrixCoilMode": "SENSE",
  "Modality": "MR",
  "NonlinearGradientCorrection": false,
  "PartialFourier": 1,
  "PatientPosition": "HFS",
  "PercentPhaseFOV": 100,
  "PercentSampling": 100,
  "PhaseEncodingDirection": "j-",
  "PhaseEncodingSteps": 80,
  "PhaseResolution": 1,
  "PixelBandwidth": 2315,
  "ProcedureStepDescription": "dbic^QA",
  "ProtocolName": "func-bold_fa-10",
  "PulseSequenceDetails": "%SiemensSeq%\\ep2d_bold",
  "ReceiveCoilActiveElements": "HC1-7;NC1,2",
  "ReceiveCoilName": "HeadNeck_64",
  "ReconMatrixPE": 80,
  "RepetitionTime": 2,
  "SAR": 0.00760495,
  "ScanOptions": "FS",
  "ScanningSequence": "EP",
  "SequenceName": "*epfid2d1_80",
  "SequenceVariant": "SK",
  "SeriesDescription": "func-bold_fa-10",
  "SeriesNumber": 9,
  "ShimSetting": [4141, -7692, -7505, 166, -75, -281, -27, 84],
  "SliceThickness": 3.5,
  "SliceTiming": [0.99, 0, 1.0575, 0.0675, 1.1225, 0.1325, 1.1875, 0.1975, 1.255, 0.265, 1.32, 0.33, 1.3875, 0.3975, 1.4525, 0.4625, 1.5175, 0.5275, 1.585, 0.595, 1.65, 0.66, 1.7175, 0.7275, 1.7825, 0.7925, 1.8475, 0.8575, 1.915, 0.925],
  "SoftwareVersions": "syngo MR E11",
  "SpacingBetweenSlices": 3.99,
  "StationName": "AWP66112",
  "TotalReadoutTime": 0.0395,
  "TxRefAmp": 211.975,
  "dcmmeta_affine": [
    [-2.974248170852661, 0.3699350357055664, 0.17339283227920532, 103.23602294921875],
    [0.3921712040901184, 2.8226940631866455, 1.2466580867767334, -120.56168365478516],
    [0.007080806884914637, -0.9463332891464233, 3.7862749099731445, -29.67947769165039],
    [0.0, 0.0, 0.0, 1.0]
],
  "dcmmeta_reorient_transform": [
    [0.0, -1.0, 0.0, 79.0],
    [1.0, 0.0, 0.0, 0.0],
    [0.0, 0.0, 1.0, 0.0],
    [0.0, 0.0, 0.0, 1.0]
],
  "dcmmeta_shape": [80, 80, 30, 200],
  "dcmmeta_slice_dim": 2,
  "dcmmeta_version": 0.6,
  "global": {
    "const": {
      "AccessionNumber": "qa64",
      "AcquisitionMatrix": [80, 0, 0, 80],
      "AngioFlag": "N",
      "BitsAllocated": 16,
      "BitsStored": 12,
      "BodyPartExamined": "BRAIN",
      "Columns": 480,
      "EchoNumbers": 1,
      "EchoTime": 30.0,
      "EchoTrainLength": 80,
      "FlipAngle": 10.0,
      "HighBit": 11,
      "ImageOrientationPatient": [0.99141602428851, -0.1307237389083, 0.00236026901231, 0.12331167448505, 0.94089799472805, 0.31544443956493],
      "ImagePositionPatient": [-801.29750836641, -588.53569263339, -295.12263572005],
      "ImageType": [
        "ORIGINAL",
        "PRIMARY",
        "M",
        "ND",
        "NORM",
        "MOSAIC"
],
      "ImagedNucleus": "1H",
      "ImagingFrequency": 123.252347,
      "InPlanePhaseEncodingDirection": "COL",
      "MRAcquisitionType": "2D",
      "MagneticFieldStrength": 3.0,
      "Manufacturer": "SIEMENS",
      "ManufacturerModelName": "Prisma",
      "Modality": "MR",
      "NumberOfAverages": 1.0,
      "NumberOfPhaseEncodingSteps": 80,
      "PercentPhaseFieldOfView": 100.0,
      "PercentSampling": 100.0,
      "PerformedProcedureStepStartTime": "082950.596000",
      "PhotometricInterpretation": "MONOCHROME2",
      "PixelBandwidth": 2315.0,
      "PixelRepresentation": 0,
      "PixelSpacing": [3.0, 3.0],
      "ProtocolName": "func-bold_fa-10",
      "RepetitionTime": 2000.0,
      "Rows": 480,
      "SAR": 0.00760494822577,
      "SamplesPerPixel": 1,
      "ScanOptions": "FS",
      "ScanningSequence": "EP",
      "SequenceName": "*epfid2d1_80",
      "SequenceVariant": "SK",
      "SeriesDescription": "func-bold_fa-10",
      "SeriesNumber": 9,
      "SeriesTime": "084620.188000",
      "SliceLocation": -61.346736041746,
      "SliceThickness": 3.5,
      "SmallestImagePixelValue": 0,
      "SoftwareVersions": "syngo MR E11",
      "SpacingBetweenSlices": 3.989999975859,
      "SpecificCharacterSet": "ISO_IR 100",
      "StudyID": "54",
      "StudyTime": "082950.534000",
      "TransmitCoilName": "Body",
      "VariableFlipAngleFlag": "N",
      "WindowCenterWidthExplanation": "Algo1",
      "dBdt": 0.0},
    "slices": {}
  },
  "time": {
    "samples": {
      "AcquisitionNumber": [1, 2, 3, 4, 5, 6, 7, 8, 9, 10, 11, 12, 13, 14, 15, 16, 17, 18, 19, 20, 21, 22, 23, 24, 25, 26, 27, 28, 29, 30, 31, 32, 33, 34, 35, 36, 37, 38, 39, 40, 41, 42, 43, 44, 45, 46, 47, 48, 49, 50, 51, 52, 53, 54, 55, 56, 57, 58, 59, 60, 61, 62, 63, 64, 65, 66, 67, 68, 69, 70, 71, 72, 73, 74, 75, 76, 77, 78, 79, 80, 81, 82, 83, 84, 85, 86, 87, 88, 89, 90, 91, 92, 93, 94, 95, 96, 97, 98, 99, 100, 101, 102, 103, 104, 105, 106, 107, 108, 109, 110, 111, 112, 113, 114, 115, 116, 117, 118, 119, 120, 121, 122, 123, 124, 125, 126, 127, 128, 129, 130, 131, 132, 133, 134, 135, 136, 137, 138, 139, 140, 141, 142, 143, 144, 145, 146, 147, 148, 149, 150, 151, 152, 153, 154, 155, 156, 157, 158, 159, 160, 161, 162, 163, 164, 165, 166, 167, 168, 169, 170, 171, 172, 173, 174, 175, 176, 177, 178, 179, 180, 181, 182, 183, 184, 185, 186, 187, 188, 189, 190, 191, 192, 193, 194, 195, 196, 197, 198, 199, 200],
      "AcquisitionTime": ["084540.542500", "084542.542500", "084544.542500", "084546.542500", "084548.542500", "084550.542500", "084552.542500", "084554.542500", "084556.542500", "084558.542500", "084600.542500", "084602.542500", "084604.542500", "084606.542500", "084608.542500", "084610.542500", "084612.542500", "084614.542500", "084616.542500", "084618.542500", "084620.542500", "084622.542500", "084624.542500", "084626.542500", "084628.542500", "084630.542500", "084632.542500", "084634.542500", "084636.542500", "084638.542500", "084640.542500", "084642.542500", "084644.542500", "084646.542500", "084648.542500", "084650.542500", "084652.542500", "084654.542500", "084656.542500", "084658.542500", "084700.542500", "084702.542500", "084704.542500", "084706.542500", "084708.542500", "084710.542500", "084712.542500", "084714.542500", "084716.542500", "084718.542500", "084720.542500", "084722.542500", "084724.542500", "084726.542500", "084728.542500", "084730.542500", "084732.542500", "084734.542500", "084736.542500", "084738.542500", "084740.542500", "084742.542500", "084744.542500", "084746.542500", "084748.542500", "084750.542500", "084752.542500", "084754.542500", "084756.542500", "084758.542500", "084800.542500", "084802.542500", "084804.542500", "084806.542500", "084808.542500", "084810.542500", "084812.542500", "084814.542500", "084816.542500", "084818.542500", "084820.542500", "084822.542500", "084824.542500", "084826.542500", "084828.542500", "084830.542500", "084832.542500", "084834.542500", "084836.542500", "084838.542500", "084840.542500", "084842.542500", "084844.542500", "084846.542500", "084848.542500", "084850.542500", "084852.542500", "084854.542500", "084856.542500", "084858.542500", "084900.542500", "084902.542500", "084904.542500", "084906.542500", "084908.542500", "084910.542500", "084912.542500", "084914.542500", "084916.542500", "084918.542500", "084920.542500", "084922.542500", "084924.542500", "084926.542500", "084928.542500", "084930.542500", "084932.542500", "084934.542500", "084936.542500", "084938.542500", "084940.542500", "084942.542500", "084944.542500", "084946.542500", "084948.542500", "084950.542500", "084952.542500", "084954.542500", "084956.542500", "084958.542500", "085000.542500", "085002.542500", "085004.542500", "085006.542500", "085008.542500", "085010.542500", "085012.542500", "085014.542500", "085016.542500", "085018.542500", "085020.542500", "085022.542500", "085024.542500", "085026.542500", "085028.542500", "085030.542500", "085032.542500", "085034.542500", "085036.542500", "085038.542500", "085040.542500", "085042.542500", "085044.542500", "085046.542500", "085048.542500", "085050.542500", "085052.542500", "085054.542500", "085056.542500", "085058.542500", "085100.542500", "085102.542500", "085104.542500", "085106.542500", "085108.542500", "085110.542500", "085112.542500", "085114.542500", "085116.542500", "085118.542500", "085120.542500", "085122.542500", "085124.542500", "085126.542500", "085128.542500", "085130.542500", "085132.542500", "085134.542500", "085136.542500", "085138.542500", "085140.542500", "085142.542500", "085144.542500", "085146.542500", "085148.542500", "085150.542500", "085152.542500", "085154.542500", "085156.542500", "085158.542500", "085200.542500", "085202.542500", "085204.542500", "085206.542500", "085208.542500", "085210.542500", "085212.542500", "085214.542500", "085216.542500", "085218.542500"],
      "ContentTime": ["084620.191000", "084620.195000", "084620.197000", "084620.200000", "084620.202000", "084620.205000", "084620.208000", "084620.210000", "084620.213000", "084620.215000", "084620.218000", "084620.221000", "084620.223000", "084620.226000", "084620.228000", "084620.234000", "084620.237000", "084620.239000", "084620.242000", "084620.244000", "084640.187000", "084640.199000", "084640.201000", "084640.204000", "084640.207000", "084640.210000", "084640.212000", "084640.215000", "084640.217000", "084640.220000", "084720.187000", "084720.189000", "084720.192000", "084720.195000", "084720.198000", "084720.200000", "084720.203000", "084720.206000", "084720.208000", "084720.211000", "084720.214000", "084720.216000", "084720.219000", "084720.221000", "084720.224000", "084720.227000", "084720.229000", "084720.232000", "084720.234000", "084720.237000", "084800.187000", "084800.189000", "084800.192000", "084800.195000", "084800.198000", "084800.200000", "084800.203000", "084800.205000", "084800.208000", "084800.211000", "084800.213000", "084800.216000", "084800.218000", "084800.221000", "084800.224000", "084800.226000", "084800.229000", "084800.234000", "084800.236000", "084800.239000", "084840.185000", "084840.188000", "084840.191000", "084840.194000", "084840.196000", "084840.199000", "084840.202000", "084840.204000", "084840.207000", "084840.209000", "084840.212000", "084840.215000", "084840.217000", "084840.220000", "084840.224000", "084840.226000", "084840.229000", "084840.231000", "084840.234000", "084920.187000", "084920.190000", "084920.192000", "084920.195000", "084920.197000", "084920.200000", "084920.203000", "084920.205000", "084920.208000", "084920.210000", "084920.213000", "084920.216000", "084920.218000", "084920.221000", "084920.224000", "084920.226000", "084920.229000", "084920.231000", "084920.234000", "084920.237000", "084920.248000", "085000.187000", "085000.189000", "085000.192000", "085000.195000", "085000.197000", "085000.200000", "085000.202000", "085000.205000", "085000.208000", "085000.210000", "085000.213000", "085000.216000", "085000.218000", "085000.221000", "085000.223000", "085000.226000", "085000.229000", "085000.231000", "085000.234000", "085000.236000", "085040.186000", "085040.189000", "085040.192000", "085040.195000", "085040.197000", "085040.200000", "085040.203000", "085040.206000", "085040.218000", "085040.221000", "085040.224000", "085040.226000", "085040.229000", "085040.232000", "085040.234000", "085040.237000", "085040.239000", "085040.242000", "085040.245000", "085040.247000", "085120.188000", "085120.191000", "085120.194000", "085120.196000", "085120.199000", "085120.202000", "085120.204000", "085120.207000", "085120.210000", "085120.212000", "085120.215000", "085120.217000", "085120.220000", "085120.223000", "085120.225000", "085120.228000", "085120.230000", "085120.233000", "085120.236000", "085120.238000", "085200.187000", "085200.190000", "085200.192000", "085200.195000", "085200.198000", "085200.200000", "085200.203000", "085200.206000", "085200.208000", "085200.211000", "085200.213000", "085200.216000", "085200.219000", "085200.221000", "085200.224000", "085200.226000", "085200.229000", "085200.232000", "085200.234000", "085200.237000", "085220.174000", "085220.177000", "085220.180000", "085220.183000", "085220.185000", "085220.188000", "085220.191000", "085220.193000", "085220.196000", "085220.198000"],
      "InstanceCreationTime": ["084620.191000", "084620.195000", "084620.197000", "084620.200000", "084620.202000", "084620.205000", "084620.208000", "084620.210000", "084620.213000", "084620.215000", "084620.218000", "084620.221000", "084620.223000", "084620.226000", "084620.228000", "084620.234000", "084620.237000", "084620.239000", "084620.242000", "084620.244000", "084640.187000", "084640.199000", "084640.201000", "084640.204000", "084640.207000", "084640.210000", "084640.212000", "084640.215000", "084640.217000", "084640.220000", "084720.187000", "084720.189000", "084720.192000", "084720.195000", "084720.198000", "084720.200000", "084720.203000", "084720.206000", "084720.208000", "084720.211000", "084720.214000", "084720.216000", "084720.219000", "084720.221000", "084720.224000", "084720.227000", "084720.229000", "084720.232000", "084720.234000", "084720.237000", "084800.187000", "084800.189000", "084800.192000", "084800.195000", "084800.198000", "084800.200000", "084800.203000", "084800.205000", "084800.208000", "084800.211000", "084800.213000", "084800.216000", "084800.218000", "084800.221000", "084800.224000", "084800.226000", "084800.229000", "084800.234000", "084800.236000", "084800.239000", "084840.185000", "084840.188000", "084840.191000", "084840.194000", "084840.196000", "084840.199000", "084840.202000", "084840.204000", "084840.207000", "084840.209000", "084840.212000", "084840.215000", "084840.217000", "084840.220000", "084840.224000", "084840.226000", "084840.229000", "084840.231000", "084840.234000", "084920.187000", "084920.190000", "084920.192000", "084920.195000", "084920.197000", "084920.200000", "084920.203000", "084920.205000", "084920.208000", "084920.210000", "084920.213000", "084920.216000", "084920.218000", "084920.221000", "084920.224000", "084920.226000", "084920.229000", "084920.231000", "084920.234000", "084920.237000", "084920.248000", "085000.187000", "085000.189000", "085000.192000", "085000.195000", "085000.197000", "085000.200000", "085000.202000", "085000.205000", "085000.208000", "085000.210000", "085000.213000", "085000.216000", "085000.218000", "085000.221000", "085000.223000", "085000.226000", "085000.229000", "085000.231000", "085000.234000", "085000.236000", "085040.186000", "085040.189000", "085040.192000", "085040.195000", "085040.197000", "085040.200000", "085040.203000", "085040.206000", "085040.218000", "085040.221000", "085040.224000", "085040.226000", "085040.229000", "085040.232000", "085040.234000", "085040.237000", "085040.239000", "085040.242000", "085040.245000", "085040.247000", "085120.188000", "085120.191000", "085120.194000", "085120.196000", "085120.199000", "085120.202000", "085120.204000", "085120.207000", "085120.210000", "085120.212000", "085120.215000", "085120.217000", "085120.220000", "085120.223000", "085120.225000", "085120.228000", "085120.230000", "085120.233000", "085120.236000", "085120.238000", "085200.187000", "085200.190000", "085200.192000", "085200.195000", "085200.198000", "085200.200000", "085200.203000", "085200.206000", "085200.208000", "085200.211000", "085200.213000", "085200.216000", "085200.219000", "085200.221000", "085200.224000", "085200.226000", "085200.229000", "085200.232000", "085200.234000", "085200.237000", "085220.174000", "085220.177000", "085220.180000", "085220.183000", "085220.185000", "085220.188000", "085220.191000", "085220.193000", "085220.196000", "085220.198000"],
      "InstanceNumber": [1, 2, 3, 4, 5, 6, 7, 8, 9, 10, 11, 12, 13, 14, 15, 16, 17, 18, 19, 20, 21, 22, 23, 24, 25, 26, 27, 28, 29, 30, 31, 32, 33, 34, 35, 36, 37, 38, 39, 40, 41, 42, 43, 44, 45, 46, 47, 48, 49, 50, 51, 52, 53, 54, 55, 56, 57, 58, 59, 60, 61, 62, 63, 64, 65, 66, 67, 68, 69, 70, 71, 72, 73, 74, 75, 76, 77, 78, 79, 80, 81, 82, 83, 84, 85, 86, 87, 88, 89, 90, 91, 92, 93, 94, 95, 96, 97, 98, 99, 100, 101, 102, 103, 104, 105, 106, 107, 108, 109, 110, 111, 112, 113, 114, 115, 116, 117, 118, 119, 120, 121, 122, 123, 124, 125, 126, 127, 128, 129, 130, 131, 132, 133, 134, 135, 136, 137, 138, 139, 140, 141, 142, 143, 144, 145, 146, 147, 148, 149, 150, 151, 152, 153, 154, 155, 156, 157, 158, 159, 160, 161, 162, 163, 164, 165, 166, 167, 168, 169, 170, 171, 172, 173, 174, 175, 176, 177, 178, 179, 180, 181, 182, 183, 184, 185, 186, 187, 188, 189, 190, 191, 192, 193, 194, 195, 196, 197, 198, 199, 200],
      "LargestImagePixelValue": [619, 621, 622, 618, 620, 620, 618, 619, 618, 617, 618, 619, 616, 619, 616, 618, 618, 619, 619, 618, 616, 620, 618, 618, 619, 620, 620, 619, 619, 617, 619, 618, 617, 618, 617, 617, 618, 617, 618, 618, 618, 617, 617, 617, 618, 617, 618, 618, 617, 620, 618, 617, 614, 618, 618, 617, 617, 616, 619, 616, 620, 617, 619, 616, 617, 620, 617, 615, 620, 617, 618, 617, 616, 616, 615, 617, 619, 616, 617, 620, 620, 616, 619, 617, 617, 618, 616, 616, 618, 620, 618, 616, 616, 619, 617, 616, 616, 617, 616, 617, 618, 615, 614, 616, 618, 616, 619, 618, 616, 617, 617, 616, 616, 618, 619, 616, 617, 615, 618, 616, 618, 615, 616, 617, 617, 616, 617, 614, 619, 617, 619, 617, 618, 617, 616, 616, 615, 614, 617, 614, 618, 618, 616, 615, 616, 617, 619, 617, 615, 616, 618, 616, 616, 616, 618, 618, 618, 616, 616, 616, 616, 617, 617, 614, 616, 615, 617, 616, 617, 616, 617, 617, 616, 617, 618, 615, 618, 617, 617, 619, 617, 615, 616, 615, 618, 619, 615, 619, 618, 617, 617, 615, 615, 617, 618, 617, 616, 616, 617, 615],
      "WindowCenter": [439.0, 439.0, 439.0, 439.0, 439.0, 439.0, 439.0, 439.0, 439.0, 439.0, 439.0, 439.0, 439.0, 439.0, 439.0, 439.0, 439.0, 439.0, 439.0, 439.0, 439.0, 439.0, 438.0, 439.0, 439.0, 439.0, 439.0, 439.0, 439.0, 439.0, 439.0, 439.0, 439.0, 438.0, 439.0, 439.0, 439.0, 439.0, 438.0, 439.0, 439.0, 438.0, 439.0, 438.0, 438.0, 439.0, 439.0, 439.0, 438.0, 438.0, 439.0, 438.0, 438.0, 439.0, 438.0, 438.0, 438.0, 438.0, 438.0, 438.0, 438.0, 438.0, 438.0, 438.0, 438.0, 438.0, 438.0, 438.0, 438.0, 438.0, 438.0, 438.0, 438.0, 438.0, 438.0, 438.0, 438.0, 438.0, 438.0, 438.0, 438.0, 438.0, 438.0, 438.0, 438.0, 438.0, 438.0, 438.0, 438.0, 438.0, 438.0, 438.0, 438.0, 438.0, 438.0, 438.0, 438.0, 438.0, 438.0, 438.0, 438.0, 438.0, 438.0, 438.0, 438.0, 438.0, 438.0, 438.0, 438.0, 438.0, 438.0, 437.0, 438.0, 438.0, 438.0, 437.0, 437.0, 437.0, 438.0, 438.0, 438.0, 437.0, 438.0, 438.0, 438.0, 437.0, 437.0, 438.0, 437.0, 437.0, 438.0, 437.0, 437.0, 438.0, 438.0, 437.0, 437.0, 438.0, 438.0, 438.0, 438.0, 437.0, 437.0, 437.0, 438.0, 438.0, 437.0, 437.0, 437.0, 437.0, 437.0, 437.0, 437.0, 438.0, 437.0, 437.0, 437.0, 437.0, 437.0, 437.0, 437.0, 437.0, 437.0, 437.0, 437.0, 437.0, 437.0, 437.0, 437.0, 437.0, 437.0, 437.0, 437.0, 437.0, 437.0, 437.0, 437.0, 437.0, 437.0, 437.0, 437.0, 437.0, 437.0, 437.0, 437.0, 437.0, 437.0, 437.0, 437.0, 437.0, 437.0, 437.0, 437.0, 437.0, 437.0, 437.0, 437.0, 437.0, 437.0, 437.0],
      "WindowWidth": [914.0, 914.0, 914.0, 914.0, 914.0, 914.0, 914.0, 914.0, 914.0, 914.0, 914.0, 914.0, 914.0, 914.0, 914.0, 914.0, 914.0, 914.0, 914.0, 914.0, 914.0, 914.0, 913.0, 914.0, 914.0, 914.0, 914.0, 914.0, 914.0, 914.0, 914.0, 914.0, 914.0, 913.0, 914.0, 914.0, 914.0, 914.0, 913.0, 914.0, 914.0, 913.0, 914.0, 913.0, 913.0, 914.0, 914.0, 914.0, 913.0, 913.0, 914.0, 913.0, 913.0, 913.0, 913.0, 913.0, 913.0, 913.0, 913.0, 913.0, 913.0, 913.0, 913.0, 913.0, 913.0, 913.0, 913.0, 913.0, 913.0, 913.0, 913.0, 913.0, 913.0, 912.0, 912.0, 912.0, 913.0, 912.0, 912.0, 912.0, 912.0, 912.0, 912.0, 912.0, 912.0, 912.0, 912.0, 912.0, 912.0, 912.0, 912.0, 912.0, 912.0, 912.0, 912.0, 912.0, 912.0, 912.0, 912.0, 912.0, 912.0, 912.0, 912.0, 912.0, 912.0, 912.0, 912.0, 912.0, 912.0, 912.0, 912.0, 911.0, 912.0, 912.0, 912.0, 911.0, 911.0, 911.0, 912.0, 912.0, 912.0, 911.0, 912.0, 912.0, 912.0, 911.0, 911.0, 912.0, 911.0, 911.0, 912.0, 911.0, 911.0, 912.0, 912.0, 911.0, 911.0, 912.0, 912.0, 912.0, 912.0, 911.0, 911.0, 911.0, 912.0, 912.0, 911.0, 911.0, 911.0, 911.0, 911.0, 911.0, 911.0, 912.0, 911.0, 911.0, 911.0, 911.0, 911.0, 911.0, 911.0, 911.0, 911.0, 911.0, 911.0, 911.0, 911.0, 911.0, 911.0, 911.0, 911.0, 911.0, 911.0, 911.0, 911.0, 911.0, 911.0, 911.0, 911.0, 911.0, 911.0, 911.0, 911.0, 911.0, 911.0, 911.0, 911.0, 911.0, 911.0, 911.0, 911.0, 911.0, 911.0, 911.0, 911.0, 911.0, 911.0, 911.0, 911.0, 911.0]
    },
    "slices": {}
  }
}