{
  "AcquisitionMatrixPE": 80,
  "AcquisitionNumber": 1,
  "AcquisitionTime": "09:11:29.540000",
  "BandwidthPerPixelPhaseEncode": 25,
  "BaseResolution": 80,
  "BodyPartExamined": "BRAIN",
  "CoilCombinationMethod": "Sum of Squares",
  "ConsistencyInfo": "N4_VE11C_LATEST_20160120",
  "ConversionSoftware": "dcm2niix",
  "ConversionSoftwareVersion": "v1.0.20220720",
  "DerivedVendorReportedEchoSpacing": 0.0005,
  "DeviceSerialNumber": "66112",
  "DwellTime": 2.7e-06,
  "EchoTime": 0.03,
  "EchoTrainLength": 80,
  "EffectiveEchoSpacing": 0.0005,
  "FlipAngle": 77,
  "HeudiconvVersion": "0.13.1",
  "ImageOrientationPatientDICOM": [0.988519, 0.151094, -0.000142162, -0.142096, 0.929967, 0.339074],
  "ImageOrientationText": "Tra>Cor(19.6)>Sag(-2.9)",
  "ImageType": [
    "ORIGINAL",
    "PRIMARY",
    "M",
    "ND",
    "NORM",
    "MOSAIC"
],
  "ImagingFrequency": 123.252,
  "InPlanePhaseEncodingDirectionDICOM": "COL",
  "InstitutionAddress": "Maynard 3,Hanover,NH,US,03755",
  "InstitutionName": "Dartmouth College - PBS",
  "InstitutionalDepartmentName": "Department",
  "MRAcquisitionType": "2D",
  "MagneticFieldStrength": 3,
  "Manufacturer": "Siemens",
  "ManufacturersModelName": "Prisma",
  "MatrixCoilMode": "SENSE",
  "Modality": "MR",
  "NonlinearGradientCorrection": false,
  "PartialFourier": 1,
  "PatientPosition": "HFS",
  "PercentPhaseFOV": 100,
  "PercentSampling": 100,
  "PhaseEncodingDirection": "j-",
  "PhaseEncodingSteps": 80,
  "PhaseResolution": 1,
  "PixelBandwidth": 2315,
  "ProcedureStepDescription": "dbic^QA",
  "ProtocolName": "func-bold_fa-77",
  "PulseSequenceDetails": "%SiemensSeq%\\ep2d_bold",
  "ReceiveCoilActiveElements": "HC1-7;NC1,2",
  "ReceiveCoilName": "HeadNeck_64",
  "ReconMatrixPE": 80,
  "RepetitionTime": 2,
  "SAR": 0.0322547,
  "ScanOptions": "FS",
  "ScanningSequence": "EP",
  "SequenceName": "*epfid2d1_80",
  "SequenceVariant": "SK",
  "SeriesDescription": "func-bold_fa-77",
  "SeriesNumber": 7,
  "ShimSetting": [4140, -7710, -7512, 137, -99, -231, -49, 63],
  "SliceThickness": 3.5,
  "SliceTiming": [0.99, 0, 1.0575, 0.0675, 1.1225, 0.1325, 1.1875, 0.1975, 1.255, 0.265, 1.32, 0.33, 1.3875, 0.3975, 1.4525, 0.4625, 1.5175, 0.5275, 1.585, 0.595, 1.65, 0.66, 1.715, 0.7275, 1.7825, 0.7925, 1.8475, 0.8575, 1.915, 0.925],
  "SoftwareVersions": "syngo MR E11",
  "SpacingBetweenSlices": 3.99,
  "StationName": "AWP66112",
  "TotalReadoutTime": 0.0395,
  "TxRefAmp": 214.217,
  "dcmmeta_affine": [
    [-2.9655580520629883, -0.4262867271900177, -0.20494329929351807, 140.00025939941406],
    [-0.4532822072505951, 2.7898998260498047, 1.3372913599014282, -96.0704345703125],
    [-0.0004264871240593493, -1.017221212387085, 3.753631591796875, -4.813226222991943],
    [0.0, 0.0, 0.0, 1.0]
],
  "dcmmeta_reorient_transform": [
    [0.0, -1.0, 0.0, 79.0],
    [1.0, 0.0, 0.0, 0.0],
    [0.0, 0.0, 1.0, 0.0],
    [0.0, 0.0, 0.0, 1.0]
],
  "dcmmeta_shape": [80, 80, 30, 200],
  "dcmmeta_slice_dim": 2,
  "dcmmeta_version": 0.6,
  "global": {
    "const": {
      "AccessionNumber": "qa64",
      "AcquisitionMatrix": [80, 0, 0, 80],
      "AngioFlag": "N",
      "BitsAllocated": 16,
      "BitsStored": 12,
      "BodyPartExamined": "BRAIN",
      "Columns": 480,
      "EchoNumbers": 1,
      "EchoTime": 30.0,
      "EchoTrainLength": 80,
      "FlipAngle": 77.0,
      "HighBit": 11,
      "ImageOrientationPatient": [0.9885193787202, 0.15109406899178, -0.0001421623772, -0.1420955781154, 0.9299665900936, 0.33907372058262],
      "ImagePositionPatient": [-614.17788111017, -772.96804418182, -288.53263307122],
      "ImageType": [
        "ORIGINAL",
        "PRIMARY",
        "M",
        "ND",
        "NORM",
        "MOSAIC"
],
      "ImagedNucleus": "1H",
      "ImagingFrequency": 123.252429,
      "InPlanePhaseEncodingDirection": "COL",
      "MRAcquisitionType": "2D",
      "MagneticFieldStrength": 3.0,
      "Manufacturer": "SIEMENS",
      "ManufacturerModelName": "Prisma",
      "Modality": "MR",
      "NumberOfAverages": 1.0,
      "NumberOfPhaseEncodingSteps": 80,
      "PercentPhaseFieldOfView": 100.0,
      "PercentSampling": 100.0,
      "PerformedProcedureStepStartTime": "085927.679000",
      "PhotometricInterpretation": "MONOCHROME2",
      "PixelBandwidth": 2315.0,
      "PixelRepresentation": 0,
      "PixelSpacing": [3.0, 3.0],
      "ProtocolName": "func-bold_fa-77",
      "RepetitionTime": 2000.0,
      "Rows": 480,
      "SAR": 0.03225472648515,
      "SamplesPerPixel": 1,
      "ScanOptions": "FS",
      "ScanningSequence": "EP",
      "SequenceName": "*epfid2d1_80",
      "SequenceVariant": "SK",
      "SeriesDescription": "func-bold_fa-77",
      "SeriesNumber": 7,
      "SeriesTime": "091226.721000",
      "SliceLocation": -43.918133392618,
      "SliceThickness": 3.5,
      "SmallestImagePixelValue": 0,
      "SoftwareVersions": "syngo MR E11",
      "SpacingBetweenSlices": 3.9900001238405,
      "SpecificCharacterSet": "ISO_IR 100",
      "StudyID": "56",
      "StudyTime": "085927.604000",
      "TransmitCoilName": "Body",
      "VariableFlipAngleFlag": "N",
      "WindowCenterWidthExplanation": "Algo1",
      "dBdt": 0.0},
    "slices": {}
  },
  "time": {
    "samples": {
      "AcquisitionNumber": [1, 2, 3, 4, 5, 6, 7, 8, 9, 10, 11, 12, 13, 14, 15, 16, 17, 18, 19, 20, 21, 22, 23, 24, 25, 26, 27, 28, 29, 30, 31, 32, 33, 34, 35, 36, 37, 38, 39, 40, 41, 42, 43, 44, 45, 46, 47, 48, 49, 50, 51, 52, 53, 54, 55, 56, 57, 58, 59, 60, 61, 62, 63, 64, 65, 66, 67, 68, 69, 70, 71, 72, 73, 74, 75, 76, 77, 78, 79, 80, 81, 82, 83, 84, 85, 86, 87, 88, 89, 90, 91, 92, 93, 94, 95, 96, 97, 98, 99, 100, 101, 102, 103, 104, 105, 106, 107, 108, 109, 110, 111, 112, 113, 114, 115, 116, 117, 118, 119, 120, 121, 122, 123, 124, 125, 126, 127, 128, 129, 130, 131, 132, 133, 134, 135, 136, 137, 138, 139, 140, 141, 142, 143, 144, 145, 146, 147, 148, 149, 150, 151, 152, 153, 154, 155, 156, 157, 158, 159, 160, 161, 162, 163, 164, 165, 166, 167, 168, 169, 170, 171, 172, 173, 174, 175, 176, 177, 178, 179, 180, 181, 182, 183, 184, 185, 186, 187, 188, 189, 190, 191, 192, 193, 194, 195, 196, 197, 198, 199, 200],
      "AcquisitionTime": ["091129.540000", "091131.540000", "091133.540000", "091135.540000", "091137.540000", "091139.540000", "091141.540000", "091143.540000", "091145.540000", "091147.540000", "091149.540000", "091151.540000", "091153.540000", "091155.540000", "091157.540000", "091159.540000", "091201.540000", "091203.540000", "091205.540000", "091207.540000", "091209.540000", "091211.540000", "091213.540000", "091215.540000", "091217.540000", "091219.540000", "091221.540000", "091223.540000", "091225.540000", "091227.540000", "091229.540000", "091231.540000", "091233.540000", "091235.540000", "091237.540000", "091239.540000", "091241.540000", "091243.540000", "091245.540000", "091247.540000", "091249.540000", "091251.540000", "091253.540000", "091255.540000", "091257.540000", "091259.540000", "091301.540000", "091303.540000", "091305.540000", "091307.540000", "091309.540000", "091311.540000", "091313.540000", "091315.540000", "091317.540000", "091319.540000", "091321.540000", "091323.540000", "091325.540000", "091327.540000", "091329.540000", "091331.540000", "091333.540000", "091335.540000", "091337.540000", "091339.540000", "091341.540000", "091343.540000", "091345.540000", "091347.540000", "091349.540000", "091351.540000", "091353.540000", "091355.540000", "091357.540000", "091359.540000", "091401.540000", "091403.540000", "091405.540000", "091407.540000", "091409.540000", "091411.540000", "091413.540000", "091415.540000", "091417.540000", "091419.540000", "091421.540000", "091423.540000", "091425.540000", "091427.540000", "091429.540000", "091431.540000", "091433.540000", "091435.540000", "091437.540000", "091439.540000", "091441.540000", "091443.540000", "091445.540000", "091447.540000", "091449.540000", "091451.540000", "091453.540000", "091455.540000", "091457.540000", "091459.540000", "091501.540000", "091503.540000", "091505.540000", "091507.540000", "091509.540000", "091511.540000", "091513.540000", "091515.540000", "091517.540000", "091519.540000", "091521.540000", "091523.540000", "091525.540000", "091527.540000", "091529.540000", "091531.540000", "091533.540000", "091535.540000", "091537.540000", "091539.540000", "091541.540000", "091543.540000", "091545.540000", "091547.540000", "091549.540000", "091551.540000", "091553.540000", "091555.540000", "091557.540000", "091559.540000", "091601.540000", "091603.540000", "091605.540000", "091607.540000", "091609.540000", "091611.540000", "091613.540000", "091615.540000", "091617.540000", "091619.540000", "091621.540000", "091623.540000", "091625.540000", "091627.540000", "091629.540000", "091631.540000", "091633.540000", "091635.540000", "091637.540000", "091639.540000", "091641.540000", "091643.540000", "091645.540000", "091647.540000", "091649.540000", "091651.540000", "091653.540000", "091655.540000", "091657.540000", "091659.540000", "091701.540000", "091703.540000", "091705.540000", "091707.540000", "091709.540000", "091711.540000", "091713.540000", "091715.540000", "091717.540000", "091719.540000", "091721.540000", "091723.540000", "091725.540000", "091727.540000", "091729.540000", "091731.540000", "091733.540000", "091735.540000", "091737.540000", "091739.540000", "091741.540000", "091743.540000", "091745.540000", "091747.540000", "091749.540000", "091751.540000", "091753.540000", "091755.540000", "091757.540000", "091759.540000", "091801.540000", "091803.540000", "091805.540000", "091807.540000"],
      "ContentTime": ["091226.724000", "091226.728000", "091226.731000", "091226.733000", "091226.736000", "091226.738000", "091226.741000", "091226.743000", "091226.746000", "091226.748000", "091226.751000", "091226.753000", "091226.756000", "091226.758000", "091226.761000", "091226.764000", "091226.766000", "091226.769000", "091226.771000", "091226.781000", "091226.784000", "091226.786000", "091226.789000", "091226.791000", "091226.794000", "091226.797000", "091226.799000", "091226.802000", "091246.719000", "091246.722000", "091246.725000", "091246.727000", "091246.730000", "091246.732000", "091246.735000", "091246.737000", "091246.740000", "091246.743000", "091326.718000", "091326.721000", "091326.724000", "091326.726000", "091326.729000", "091326.731000", "091326.734000", "091326.736000", "091326.739000", "091326.742000", "091326.744000", "091326.746000", "091326.749000", "091326.752000", "091326.754000", "091326.757000", "091326.759000", "091326.762000", "091326.764000", "091326.767000", "091406.718000", "091406.721000", "091406.724000", "091406.726000", "091406.729000", "091406.731000", "091406.734000", "091406.736000", "091406.739000", "091406.741000", "091406.744000", "091406.746000", "091406.749000", "091406.752000", "091406.754000", "091406.757000", "091406.759000", "091406.762000", "091406.764000", "091406.767000", "091446.719000", "091446.722000", "091446.725000", "091446.727000", "091446.730000", "091446.732000", "091446.735000", "091446.737000", "091446.740000", "091446.743000", "091446.745000", "091446.748000", "091446.750000", "091446.760000", "091446.762000", "091446.765000", "091446.768000", "091446.770000", "091446.773000", "091446.775000", "091526.719000", "091526.722000", "091526.725000", "091526.727000", "091526.730000", "091526.732000", "091526.735000", "091526.737000", "091526.740000", "091526.743000", "091526.745000", "091526.747000", "091526.750000", "091526.753000", "091526.755000", "091526.758000", "091526.760000", "091526.763000", "091526.765000", "091526.768000", "091606.718000", "091606.721000", "091606.724000", "091606.726000", "091606.729000", "091606.731000", "091606.734000", "091606.736000", "091606.739000", "091606.741000", "091606.744000", "091606.746000", "091606.749000", "091606.752000", "091606.754000", "091606.757000", "091606.759000", "091606.762000", "091606.776000", "091606.779000", "091646.718000", "091646.721000", "091646.724000", "091646.726000", "091646.729000", "091646.731000", "091646.734000", "091646.736000", "091646.739000", "091646.741000", "091646.744000", "091646.747000", "091646.749000", "091646.752000", "091646.754000", "091646.757000", "091646.759000", "091646.762000", "091646.764000", "091646.767000", "091726.719000", "091726.722000", "091726.725000", "091726.727000", "091726.730000", "091726.732000", "091726.735000", "091726.737000", "091726.740000", "091726.743000", "091726.745000", "091726.747000", "091726.750000", "091726.753000", "091726.755000", "091726.758000", "091726.760000", "091726.763000", "091726.765000", "091726.768000", "091806.718000", "091806.721000", "091806.724000", "091806.726000", "091806.729000", "091806.732000", "091806.734000", "091806.737000", "091806.739000", "091806.742000", "091806.744000", "091806.747000", "091806.749000", "091806.752000", "091806.754000", "091806.757000", "091806.759000", "091806.762000", "091806.764000", "091806.767000", "091809.325000", "091809.328000"],
      "InstanceCreationTime": ["091226.724000", "091226.728000", "091226.731000", "091226.733000", "091226.736000", "091226.738000", "091226.741000", "091226.743000", "091226.746000", "091226.748000", "091226.751000", "091226.753000", "091226.756000", "091226.758000", "091226.761000", "091226.764000", "091226.766000", "091226.769000", "091226.771000", "091226.781000", "091226.784000", "091226.786000", "091226.789000", "091226.791000", "091226.794000", "091226.797000", "091226.799000", "091226.802000", "091246.719000", "091246.722000", "091246.725000", "091246.727000", "091246.730000", "091246.732000", "091246.735000", "091246.737000", "091246.740000", "091246.743000", "091326.718000", "091326.721000", "091326.724000", "091326.726000", "091326.729000", "091326.731000", "091326.734000", "091326.736000", "091326.739000", "091326.742000", "091326.744000", "091326.746000", "091326.749000", "091326.752000", "091326.754000", "091326.757000", "091326.759000", "091326.762000", "091326.764000", "091326.767000", "091406.718000", "091406.721000", "091406.724000", "091406.726000", "091406.729000", "091406.731000", "091406.734000", "091406.736000", "091406.739000", "091406.741000", "091406.744000", "091406.746000", "091406.749000", "091406.752000", "091406.754000", "091406.757000", "091406.759000", "091406.762000", "091406.764000", "091406.767000", "091446.719000", "091446.722000", "091446.725000", "091446.727000", "091446.730000", "091446.732000", "091446.735000", "091446.737000", "091446.740000", "091446.743000", "091446.745000", "091446.748000", "091446.750000", "091446.760000", "091446.762000", "091446.765000", "091446.768000", "091446.770000", "091446.773000", "091446.775000", "091526.719000", "091526.722000", "091526.725000", "091526.727000", "091526.730000", "091526.732000", "091526.735000", "091526.737000", "091526.740000", "091526.743000", "091526.745000", "091526.747000", "091526.750000", "091526.753000", "091526.755000", "091526.758000", "091526.760000", "091526.763000", "091526.765000", "091526.768000", "091606.718000", "091606.721000", "091606.724000", "091606.726000", "091606.729000", "091606.731000", "091606.734000", "091606.736000", "091606.739000", "091606.741000", "091606.744000", "091606.746000", "091606.749000", "091606.752000", "091606.754000", "091606.757000", "091606.759000", "091606.762000", "091606.776000", "091606.779000", "091646.718000", "091646.721000", "091646.724000", "091646.726000", "091646.729000", "091646.731000", "091646.734000", "091646.736000", "091646.739000", "091646.741000", "091646.744000", "091646.747000", "091646.749000", "091646.752000", "091646.754000", "091646.757000", "091646.759000", "091646.762000", "091646.764000", "091646.767000", "091726.719000", "091726.722000", "091726.725000", "091726.727000", "091726.730000", "091726.732000", "091726.735000", "091726.737000", "091726.740000", "091726.743000", "091726.745000", "091726.747000", "091726.750000", "091726.753000", "091726.755000", "091726.758000", "091726.760000", "091726.763000", "091726.765000", "091726.768000", "091806.718000", "091806.721000", "091806.724000", "091806.726000", "091806.729000", "091806.732000", "091806.734000", "091806.737000", "091806.739000", "091806.742000", "091806.744000", "091806.747000", "091806.749000", "091806.752000", "091806.754000", "091806.757000", "091806.759000", "091806.762000", "091806.764000", "091806.767000", "091809.325000", "091809.328000"],
      "InstanceNumber": [1, 2, 3, 4, 5, 6, 7, 8, 9, 10, 11, 12, 13, 14, 15, 16, 17, 18, 19, 20, 21, 22, 23, 24, 25, 26, 27, 28, 29, 30, 31, 32, 33, 34, 35, 36, 37, 38, 39, 40, 41, 42, 43, 44, 45, 46, 47, 48, 49, 50, 51, 52, 53, 54, 55, 56, 57, 58, 59, 60, 61, 62, 63, 64, 65, 66, 67, 68, 69, 70, 71, 72, 73, 74, 75, 76, 77, 78, 79, 80, 81, 82, 83, 84, 85, 86, 87, 88, 89, 90, 91, 92, 93, 94, 95, 96, 97, 98, 99, 100, 101, 102, 103, 104, 105, 106, 107, 108, 109, 110, 111, 112, 113, 114, 115, 116, 117, 118, 119, 120, 121, 122, 123, 124, 125, 126, 127, 128, 129, 130, 131, 132, 133, 134, 135, 136, 137, 138, 139, 140, 141, 142, 143, 144, 145, 146, 147, 148, 149, 150, 151, 152, 153, 154, 155, 156, 157, 158, 159, 160, 161, 162, 163, 164, 165, 166, 167, 168, 169, 170, 171, 172, 173, 174, 175, 176, 177, 178, 179, 180, 181, 182, 183, 184, 185, 186, 187, 188, 189, 190, 191, 192, 193, 194, 195, 196, 197, 198, 199, 200],
      "LargestImagePixelValue": [3632, 3631, 3630, 3627, 3627, 3627, 3627, 3625, 3628, 3633, 3630, 3630, 3628, 3628, 3631, 3627, 3625, 3627, 3631, 3630, 3629, 3632, 3633, 3633, 3631, 3631, 3631, 3629, 3632, 3630, 3631, 3628, 3626, 3628, 3623, 3632, 3627, 3627, 3626, 3629, 3631, 3624, 3627, 3625, 3619, 3627, 3621, 3628, 3627, 3621, 3625, 3626, 3624, 3625, 3626, 3623, 3625, 3629, 3621, 3626, 3627, 3627, 3629, 3627, 3629, 3630, 3627, 3627, 3624, 3623, 3622, 3625, 3624, 3620, 3622, 3622, 3625, 3622, 3622, 3619, 3623, 3623, 3620, 3622, 3624, 3625, 3622, 3623, 3620, 3621, 3620, 3623, 3624, 3621, 3620, 3619, 3621, 3621, 3620, 3620, 3621, 3618, 3622, 3622, 3621, 3628, 3623, 3618, 3619, 3618, 3621, 3613, 3620, 3618, 3618, 3615, 3617, 3621, 3617, 3617, 3622, 3618, 3615, 3619, 3617, 3620, 3619, 3620, 3617, 3620, 3619, 3618, 3619, 3615, 3615, 3617, 3619, 3619, 3620, 3622, 3616, 3617, 3622, 3619, 3617, 3620, 3621, 3622, 3616, 3616, 3615, 3615, 3619, 3619, 3620, 3618, 3623, 3617, 3615, 3612, 3616, 3620, 3623, 3617, 3620, 3620, 3617, 3614, 3613, 3615, 3617, 3624, 3622, 3613, 3614, 3611, 3614, 3616, 3615, 3616, 3614, 3615, 3614, 3608, 3610, 3614, 3618, 3621, 3618, 3616, 3617, 3610, 3611, 3613, 3611, 3611, 3610, 3615, 3614, 3609],
      "WindowCenter": [1327.0, 1327.0, 1327.0, 1327.0, 1326.0, 1327.0, 1326.0, 1326.0, 1327.0, 1326.0, 1326.0, 1326.0, 1326.0, 1326.0, 1326.0, 1326.0, 1326.0, 1326.0, 1326.0, 1326.0, 1326.0, 1326.0, 1326.0, 1327.0, 1326.0, 1326.0, 1326.0, 1326.0, 1326.0, 1325.0, 1326.0, 1325.0, 1326.0, 1326.0, 1326.0, 1326.0, 1326.0, 1326.0, 1326.0, 1326.0, 1326.0, 1327.0, 1325.0, 1326.0, 1325.0, 1326.0, 1326.0, 1325.0, 1326.0, 1325.0, 1326.0, 1325.0, 1325.0, 1325.0, 1326.0, 1326.0, 1325.0, 1325.0, 1325.0, 1325.0, 1325.0, 1325.0, 1325.0, 1326.0, 1325.0, 1325.0, 1325.0, 1325.0, 1325.0, 1325.0, 1325.0, 1325.0, 1325.0, 1324.0, 1324.0, 1324.0, 1325.0, 1324.0, 1325.0, 1324.0, 1324.0, 1324.0, 1324.0, 1324.0, 1325.0, 1324.0, 1325.0, 1325.0, 1325.0, 1325.0, 1325.0, 1325.0, 1325.0, 1324.0, 1324.0, 1324.0, 1324.0, 1324.0, 1324.0, 1324.0, 1324.0, 1324.0, 1324.0, 1324.0, 1324.0, 1324.0, 1324.0, 1324.0, 1324.0, 1324.0, 1324.0, 1324.0, 1324.0, 1324.0, 1324.0, 1324.0, 1324.0, 1324.0, 1323.0, 1324.0, 1324.0, 1323.0, 1324.0, 1324.0, 1324.0, 1324.0, 1323.0, 1324.0, 1324.0, 1324.0, 1324.0, 1324.0, 1323.0, 1323.0, 1323.0, 1324.0, 1323.0, 1323.0, 1323.0, 1323.0, 1323.0, 1323.0, 1323.0, 1324.0, 1324.0, 1323.0, 1323.0, 1323.0, 1323.0, 1323.0, 1323.0, 1323.0, 1323.0, 1323.0, 1323.0, 1323.0, 1323.0, 1323.0, 1323.0, 1322.0, 1322.0, 1323.0, 1323.0, 1323.0, 1323.0, 1323.0, 1323.0, 1323.0, 1323.0, 1323.0, 1323.0, 1323.0, 1323.0, 1322.0, 1323.0, 1323.0, 1322.0, 1323.0, 1323.0, 1322.0, 1322.0, 1323.0, 1322.0, 1322.0, 1322.0, 1323.0, 1322.0, 1322.0, 1323.0, 1323.0, 1322.0, 1323.0, 1322.0, 1322.0, 1322.0, 1323.0, 1322.0, 1322.0, 1322.0, 1321.0],
      "WindowWidth": [3198.0, 3199.0, 3198.0, 3198.0, 3198.0, 3198.0, 3198.0, 3198.0, 3198.0, 3198.0, 3198.0, 3197.0, 3198.0, 3198.0, 3198.0, 3198.0, 3198.0, 3198.0, 3198.0, 3198.0, 3198.0, 3198.0, 3198.0, 3197.0, 3198.0, 3197.0, 3197.0, 3197.0, 3197.0, 3198.0, 3197.0, 3197.0, 3197.0, 3197.0, 3197.0, 3197.0, 3197.0, 3197.0, 3197.0, 3197.0, 3197.0, 3197.0, 3197.0, 3196.0, 3197.0, 3197.0, 3196.0, 3197.0, 3196.0, 3197.0, 3196.0, 3196.0, 3196.0, 3196.0, 3196.0, 3196.0, 3197.0, 3196.0, 3196.0, 3196.0, 3196.0, 3196.0, 3196.0, 3197.0, 3196.0, 3196.0, 3196.0, 3196.0, 3196.0, 3196.0, 3196.0, 3196.0, 3195.0, 3196.0, 3196.0, 3196.0, 3195.0, 3196.0, 3195.0, 3196.0, 3196.0, 3196.0, 3196.0, 3196.0, 3195.0, 3196.0, 3195.0, 3195.0, 3195.0, 3195.0, 3195.0, 3195.0, 3195.0, 3195.0, 3195.0, 3195.0, 3195.0, 3195.0, 3195.0, 3195.0, 3195.0, 3195.0, 3195.0, 3195.0, 3195.0, 3195.0, 3195.0, 3195.0, 3194.0, 3194.0, 3195.0, 3194.0, 3194.0, 3194.0, 3194.0, 3194.0, 3194.0, 3194.0, 3195.0, 3195.0, 3194.0, 3195.0, 3194.0, 3194.0, 3194.0, 3194.0, 3195.0, 3194.0, 3194.0, 3194.0, 3194.0, 3194.0, 3194.0, 3194.0, 3194.0, 3194.0, 3194.0, 3194.0, 3194.0, 3194.0, 3194.0, 3194.0, 3194.0, 3193.0, 3193.0, 3194.0, 3194.0, 3194.0, 3194.0, 3194.0, 3193.0, 3194.0, 3193.0, 3193.0, 3194.0, 3194.0, 3193.0, 3193.0, 3193.0, 3194.0, 3194.0, 3193.0, 3193.0, 3193.0, 3193.0, 3193.0, 3193.0, 3193.0, 3193.0, 3193.0, 3193.0, 3193.0, 3193.0, 3193.0, 3193.0, 3193.0, 3193.0, 3193.0, 3193.0, 3193.0, 3193.0, 3192.0, 3193.0, 3193.0, 3193.0, 3192.0, 3193.0, 3193.0, 3192.0, 3192.0, 3193.0, 3192.0, 3192.0, 3192.0, 3193.0, 3192.0, 3193.0, 3192.0, 3192.0, 3193.0]
    },
    "slices": {}
  }
}