{
  "AcquisitionMatrixPE": 80,
  "AcquisitionNumber": 1,
  "AcquisitionTime": "09:04:37.807500",
  "BandwidthPerPixelPhaseEncode": 48.077,
  "BaseResolution": 80,
  "BodyPartExamined": "BRAIN",
  "CoilCombinationMethod": "Sum of Squares",
  "ConsistencyInfo": "N4_VE11C_LATEST_20160120",
  "ConversionSoftware": "dcm2niix",
  "ConversionSoftwareVersion": "v1.0.20220720",
  "DerivedVendorReportedEchoSpacing": 0.000519999,
  "DeviceSerialNumber": "66112",
  "DwellTime": 2.7e-06,
  "EchoTime": 0.035,
  "EchoTrainLength": 39,
  "EffectiveEchoSpacing": 0.00026,
  "FlipAngle": 90,
  "HeudiconvVersion": "0.13.1",
  "ImageOrientationPatientDICOM": [0.988544, 0.150932, -0.000201315, -0.141923, 0.929993, 0.339074],
  "ImageOrientationText": "Tra>Cor(19.6)>Sag(-2.9)",
  "ImageType": [
    "ORIGINAL",
    "PRIMARY",
    "M",
    "ND",
    "NORM",
    "MOSAIC"
],
  "ImagingFrequency": 123.252,
  "InPlanePhaseEncodingDirectionDICOM": "COL",
  "InstitutionAddress": "Maynard 3,Hanover,NH,US,03755",
  "InstitutionName": "Dartmouth College - PBS",
  "InstitutionalDepartmentName": "Department",
  "MRAcquisitionType": "2D",
  "MagneticFieldStrength": 3,
  "Manufacturer": "Siemens",
  "ManufacturersModelName": "Prisma",
  "MatrixCoilMode": "GRAPPA",
  "Modality": "MR",
  "NonlinearGradientCorrection": false,
  "ParallelReductionFactorInPlane": 2,
  "PartialFourier": 1,
  "PatientPosition": "HFS",
  "PercentPhaseFOV": 100,
  "PercentSampling": 100,
  "PhaseEncodingDirection": "j-",
  "PhaseEncodingSteps": 79,
  "PhaseResolution": 1,
  "PixelBandwidth": 2315,
  "ProcedureStepDescription": "dbic^QA",
  "ProtocolName": "func-bold_task-rest_acq-p2",
  "PulseSequenceDetails": "%SiemensSeq%\\ep2d_bold",
  "ReceiveCoilActiveElements": "HC1-7;NC1,2",
  "ReceiveCoilName": "HeadNeck_64",
  "ReconMatrixPE": 80,
  "RefLinesPE": 24,
  "RepetitionTime": 2,
  "SAR": 0.0410444,
  "ScanOptions": "FS",
  "ScanningSequence": "EP",
  "SequenceName": "*epfid2d1_80",
  "SequenceVariant": "SK",
  "SeriesDescription": "func-bold_task-rest_acq-p2",
  "SeriesNumber": 5,
  "ShimSetting": [4140, -7710, -7512, 137, -98, -232, -51, 64],
  "SliceThickness": 3.5,
  "SliceTiming": [0.99, 0, 1.055, 0.065, 1.12, 0.1325, 1.1875, 0.1975, 1.2525, 0.2625, 1.32, 0.33, 1.385, 0.395, 1.45, 0.4625, 1.5175, 0.5275, 1.5825, 0.5925, 1.65, 0.66, 1.715, 0.725, 1.78, 0.7925, 1.8475, 0.8575, 1.9125, 0.9225],
  "SoftwareVersions": "syngo MR E11",
  "SpacingBetweenSlices": 3.99,
  "StationName": "AWP66112",
  "TaskName": "rest",
  "TotalReadoutTime": 0.02054,
  "TxRefAmp": 214.217,
  "dcmmeta_affine": [
    [-2.965632438659668, -0.4257693290710449, -0.20494326949119568, 141.34628295898438],
    [-0.45279544591903687, 2.7899787425994873, 1.3372913599014282, -96.53836822509766],
    [-0.0006039463332854211, -1.0172210931777954, 3.753631591796875, -6.784846305847168],
    [0.0, 0.0, 0.0, 1.0]
],
  "dcmmeta_reorient_transform": [
    [0.0, -1.0, 0.0, 79.0],
    [1.0, 0.0, 0.0, 0.0],
    [0.0, 0.0, 1.0, 0.0],
    [0.0, 0.0, 0.0, 1.0]
],
  "dcmmeta_shape": [80, 80, 30, 200],
  "dcmmeta_slice_dim": 2,
  "dcmmeta_version": 0.6,
  "global": {
    "const": {
      "AccessionNumber": "qa64",
      "AcquisitionMatrix": [80, 0, 0, 80],
      "AngioFlag": "N",
      "BitsAllocated": 16,
      "BitsStored": 12,
      "BodyPartExamined": "BRAIN",
      "Columns": 480,
      "EchoNumbers": 1,
      "EchoTime": 35.0,
      "EchoTrainLength": 39,
      "FlipAngle": 90.0,
      "HighBit": 11,
      "ImageOrientationPatient": [0.98854415518944, 0.15093181478038, -0.0002013154469, -0.1419231104832, 0.92999293971808, 0.33907368341599],
      "ImagePositionPatient": [-615.68313042945, -772.42480837683, -290.46873009035],
      "ImageType": [
        "ORIGINAL",
        "PRIMARY",
        "M",
        "ND",
        "NORM",
        "MOSAIC"
],
      "ImagedNucleus": "1H",
      "ImagingFrequency": 123.252426,
      "InPlanePhaseEncodingDirection": "COL",
      "MRAcquisitionType": "2D",
      "MagneticFieldStrength": 3.0,
      "Manufacturer": "SIEMENS",
      "ManufacturerModelName": "Prisma",
      "Modality": "MR",
      "NumberOfAverages": 1.0,
      "NumberOfPhaseEncodingSteps": 79,
      "PercentPhaseFieldOfView": 100.0,
      "PercentSampling": 100.0,
      "PerformedProcedureStepStartTime": "085927.679000",
      "PhotometricInterpretation": "MONOCHROME2",
      "PixelBandwidth": 2315.0,
      "PixelRepresentation": 0,
      "PixelSpacing": [3.0, 3.0],
      "ProtocolName": "func-bold_task-rest_acq-p2",
      "RepetitionTime": 2000.0,
      "Rows": 480,
      "SAR": 0.04104438237911,
      "SamplesPerPixel": 1,
      "ScanOptions": "FS",
      "ScanningSequence": "EP",
      "SequenceName": "*epfid2d1_80",
      "SequenceVariant": "SK",
      "SeriesDescription": "func-bold_task-rest_acq-p2",
      "SeriesNumber": 5,
      "SeriesTime": "090526.649000",
      "SliceLocation": -45.998924855056,
      "SliceThickness": 3.5,
      "SmallestImagePixelValue": 0,
      "SoftwareVersions": "syngo MR E11",
      "SpacingBetweenSlices": 3.9899999947391,
      "SpecificCharacterSet": "ISO_IR 100",
      "StudyID": "56",
      "StudyTime": "085927.604000",
      "TransmitCoilName": "Body",
      "VariableFlipAngleFlag": "N",
      "WindowCenterWidthExplanation": "Algo1",
      "dBdt": 0.0},
    "slices": {}
  },
  "time": {
    "samples": {
      "AcquisitionNumber": [1, 2, 3, 4, 5, 6, 7, 8, 9, 10, 11, 12, 13, 14, 15, 16, 17, 18, 19, 20, 21, 22, 23, 24, 25, 26, 27, 28, 29, 30, 31, 32, 33, 34, 35, 36, 37, 38, 39, 40, 41, 42, 43, 44, 45, 46, 47, 48, 49, 50, 51, 52, 53, 54, 55, 56, 57, 58, 59, 60, 61, 62, 63, 64, 65, 66, 67, 68, 69, 70, 71, 72, 73, 74, 75, 76, 77, 78, 79, 80, 81, 82, 83, 84, 85, 86, 87, 88, 89, 90, 91, 92, 93, 94, 95, 96, 97, 98, 99, 100, 101, 102, 103, 104, 105, 106, 107, 108, 109, 110, 111, 112, 113, 114, 115, 116, 117, 118, 119, 120, 121, 122, 123, 124, 125, 126, 127, 128, 129, 130, 131, 132, 133, 134, 135, 136, 137, 138, 139, 140, 141, 142, 143, 144, 145, 146, 147, 148, 149, 150, 151, 152, 153, 154, 155, 156, 157, 158, 159, 160, 161, 162, 163, 164, 165, 166, 167, 168, 169, 170, 171, 172, 173, 174, 175, 176, 177, 178, 179, 180, 181, 182, 183, 184, 185, 186, 187, 188, 189, 190, 191, 192, 193, 194, 195, 196, 197, 198, 199, 200],
      "AcquisitionTime": ["090437.807500", "090439.807500", "090441.807500", "090443.807500", "090445.807500", "090447.807500", "090449.807500", "090451.807500", "090453.807500", "090455.807500", "090457.807500", "090459.807500", "090501.807500", "090503.807500", "090505.807500", "090507.807500", "090509.807500", "090511.807500", "090513.807500", "090515.807500", "090517.807500", "090519.807500", "090521.807500", "090523.807500", "090525.807500", "090527.807500", "090529.807500", "090531.807500", "090533.807500", "090535.807500", "090537.807500", "090539.807500", "090541.807500", "090543.807500", "090545.807500", "090547.807500", "090549.807500", "090551.807500", "090553.807500", "090555.807500", "090557.807500", "090559.807500", "090601.807500", "090603.807500", "090605.807500", "090607.807500", "090609.807500", "090611.807500", "090613.807500", "090615.807500", "090617.807500", "090619.807500", "090621.807500", "090623.807500", "090625.807500", "090627.807500", "090629.807500", "090631.807500", "090633.807500", "090635.807500", "090637.807500", "090639.807500", "090641.807500", "090643.807500", "090645.807500", "090647.807500", "090649.807500", "090651.807500", "090653.807500", "090655.807500", "090657.807500", "090659.807500", "090701.807500", "090703.807500", "090705.807500", "090707.807500", "090709.807500", "090711.807500", "090713.807500", "090715.807500", "090717.807500", "090719.807500", "090721.807500", "090723.807500", "090725.807500", "090727.807500", "090729.807500", "090731.807500", "090733.807500", "090735.807500", "090737.807500", "090739.807500", "090741.807500", "090743.807500", "090745.807500", "090747.807500", "090749.807500", "090751.807500", "090753.807500", "090755.807500", "090757.807500", "090759.807500", "090801.807500", "090803.807500", "090805.807500", "090807.807500", "090809.807500", "090811.807500", "090813.807500", "090815.807500", "090817.807500", "090819.807500", "090821.807500", "090823.807500", "090825.807500", "090827.807500", "090829.807500", "090831.807500", "090833.807500", "090835.807500", "090837.807500", "090839.807500", "090841.807500", "090843.807500", "090845.807500", "090847.807500", "090849.807500", "090851.807500", "090853.807500", "090855.807500", "090857.807500", "090859.807500", "090901.807500", "090903.807500", "090905.807500", "090907.807500", "090909.807500", "090911.807500", "090913.807500", "090915.807500", "090917.807500", "090919.807500", "090921.807500", "090923.807500", "090925.807500", "090927.807500", "090929.807500", "090931.807500", "090933.807500", "090935.807500", "090937.807500", "090939.807500", "090941.807500", "090943.807500", "090945.807500", "090947.807500", "090949.807500", "090951.807500", "090953.807500", "090955.807500", "090957.807500", "090959.807500", "091001.807500", "091003.807500", "091005.807500", "091007.807500", "091009.807500", "091011.807500", "091013.807500", "091015.807500", "091017.807500", "091019.807500", "091021.807500", "091023.807500", "091025.807500", "091027.807500", "091029.807500", "091031.807500", "091033.807500", "091035.807500", "091037.807500", "091039.807500", "091041.807500", "091043.807500", "091045.807500", "091047.807500", "091049.807500", "091051.807500", "091053.807500", "091055.807500", "091057.807500", "091059.807500", "091101.807500", "091103.807500", "091105.807500", "091107.807500", "091109.807500", "091111.807500", "091113.807500", "091115.807500"],
      "ContentTime": ["090526.653000", "090526.656000", "090526.659000", "090526.661000", "090526.664000", "090526.667000", "090526.669000", "090526.679000", "090526.682000", "090526.684000", "090526.687000", "090526.689000", "090526.692000", "090526.694000", "090526.697000", "090526.699000", "090526.702000", "090526.705000", "090526.707000", "090526.710000", "090526.712000", "090526.715000", "090526.718000", "090526.720000", "090606.649000", "090606.651000", "090606.654000", "090606.657000", "090606.659000", "090606.662000", "090606.664000", "090606.667000", "090606.669000", "090606.672000", "090606.674000", "090606.677000", "090606.680000", "090606.682000", "090606.685000", "090606.687000", "090606.690000", "090606.692000", "090606.695000", "090606.697000", "090646.647000", "090646.650000", "090646.653000", "090646.655000", "090646.666000", "090646.668000", "090646.671000", "090646.673000", "090646.676000", "090646.678000", "090646.681000", "090646.684000", "090646.686000", "090646.689000", "090646.691000", "090646.694000", "090646.696000", "090646.699000", "090646.702000", "090646.704000", "090726.648000", "090726.650000", "090726.660000", "090726.663000", "090726.665000", "090726.668000", "090726.670000", "090726.673000", "090726.675000", "090726.678000", "090726.680000", "090726.683000", "090726.685000", "090726.688000", "090726.690000", "090726.693000", "090726.696000", "090726.698000", "090726.701000", "090726.703000", "090806.649000", "090806.652000", "090806.654000", "090806.657000", "090806.659000", "090806.662000", "090806.665000", "090806.667000", "090806.670000", "090806.672000", "090806.675000", "090806.677000", "090806.680000", "090806.682000", "090806.685000", "090806.688000", "090806.690000", "090806.693000", "090806.695000", "090806.698000", "090846.647000", "090846.650000", "090846.653000", "090846.656000", "090846.658000", "090846.661000", "090846.663000", "090846.666000", "090846.668000", "090846.671000", "090846.673000", "090846.676000", "090846.679000", "090846.681000", "090846.684000", "090846.686000", "090846.689000", "090846.691000", "090846.694000", "090846.696000", "090926.647000", "090926.650000", "090926.653000", "090926.655000", "090926.658000", "090926.661000", "090926.663000", "090926.666000", "090926.668000", "090926.671000", "090926.673000", "090926.676000", "090926.679000", "090926.681000", "090926.684000", "090926.686000", "090926.689000", "090926.691000", "090926.694000", "090926.696000", "091006.649000", "091006.651000", "091006.654000", "091006.657000", "091006.659000", "091006.662000", "091006.672000", "091006.675000", "091006.677000", "091006.680000", "091006.682000", "091006.685000", "091006.688000", "091006.690000", "091006.693000", "091006.695000", "091006.698000", "091006.700000", "091006.703000", "091006.705000", "091046.648000", "091046.651000", "091046.654000", "091046.656000", "091046.659000", "091046.661000", "091046.664000", "091046.667000", "091046.669000", "091046.672000", "091046.674000", "091046.677000", "091046.679000", "091046.682000", "091046.684000", "091046.687000", "091046.690000", "091046.692000", "091046.695000", "091046.697000", "091117.809000", "091117.828000", "091117.850000", "091117.854000", "091117.857000", "091117.860000", "091117.862000", "091117.866000", "091117.869000", "091117.871000", "091117.874000", "091117.877000", "091117.879000", "091117.882000", "091117.885000", "091117.887000"],
      "InstanceCreationTime": ["090526.653000", "090526.656000", "090526.659000", "090526.661000", "090526.664000", "090526.667000", "090526.669000", "090526.679000", "090526.682000", "090526.684000", "090526.687000", "090526.689000", "090526.692000", "090526.694000", "090526.697000", "090526.699000", "090526.702000", "090526.705000", "090526.707000", "090526.710000", "090526.712000", "090526.715000", "090526.718000", "090526.720000", "090606.649000", "090606.651000", "090606.654000", "090606.657000", "090606.659000", "090606.662000", "090606.664000", "090606.667000", "090606.669000", "090606.672000", "090606.674000", "090606.677000", "090606.680000", "090606.682000", "090606.685000", "090606.687000", "090606.690000", "090606.692000", "090606.695000", "090606.697000", "090646.647000", "090646.650000", "090646.653000", "090646.655000", "090646.666000", "090646.668000", "090646.671000", "090646.673000", "090646.676000", "090646.678000", "090646.681000", "090646.684000", "090646.686000", "090646.689000", "090646.691000", "090646.694000", "090646.696000", "090646.699000", "090646.702000", "090646.704000", "090726.648000", "090726.650000", "090726.660000", "090726.663000", "090726.665000", "090726.668000", "090726.670000", "090726.673000", "090726.675000", "090726.678000", "090726.680000", "090726.683000", "090726.685000", "090726.688000", "090726.690000", "090726.693000", "090726.696000", "090726.698000", "090726.701000", "090726.703000", "090806.649000", "090806.652000", "090806.654000", "090806.657000", "090806.659000", "090806.662000", "090806.665000", "090806.667000", "090806.670000", "090806.672000", "090806.675000", "090806.677000", "090806.680000", "090806.682000", "090806.685000", "090806.688000", "090806.690000", "090806.693000", "090806.695000", "090806.698000", "090846.647000", "090846.650000", "090846.653000", "090846.656000", "090846.658000", "090846.661000", "090846.663000", "090846.666000", "090846.668000", "090846.671000", "090846.673000", "090846.676000", "090846.679000", "090846.681000", "090846.684000", "090846.686000", "090846.689000", "090846.691000", "090846.694000", "090846.696000", "090926.647000", "090926.650000", "090926.653000", "090926.655000", "090926.658000", "090926.661000", "090926.663000", "090926.666000", "090926.668000", "090926.671000", "090926.673000", "090926.676000", "090926.679000", "090926.681000", "090926.684000", "090926.686000", "090926.689000", "090926.691000", "090926.694000", "090926.696000", "091006.649000", "091006.651000", "091006.654000", "091006.657000", "091006.659000", "091006.662000", "091006.672000", "091006.675000", "091006.677000", "091006.680000", "091006.682000", "091006.685000", "091006.688000", "091006.690000", "091006.693000", "091006.695000", "091006.698000", "091006.700000", "091006.703000", "091006.705000", "091046.648000", "091046.651000", "091046.654000", "091046.656000", "091046.659000", "091046.661000", "091046.664000", "091046.667000", "091046.669000", "091046.672000", "091046.674000", "091046.677000", "091046.679000", "091046.682000", "091046.684000", "091046.687000", "091046.690000", "091046.692000", "091046.695000", "091046.697000", "091117.809000", "091117.828000", "091117.850000", "091117.854000", "091117.857000", "091117.860000", "091117.862000", "091117.866000", "091117.869000", "091117.871000", "091117.874000", "091117.877000", "091117.879000", "091117.882000", "091117.885000", "091117.887000"],
      "InstanceNumber": [1, 2, 3, 4, 5, 6, 7, 8, 9, 10, 11, 12, 13, 14, 15, 16, 17, 18, 19, 20, 21, 22, 23, 24, 25, 26, 27, 28, 29, 30, 31, 32, 33, 34, 35, 36, 37, 38, 39, 40, 41, 42, 43, 44, 45, 46, 47, 48, 49, 50, 51, 52, 53, 54, 55, 56, 57, 58, 59, 60, 61, 62, 63, 64, 65, 66, 67, 68, 69, 70, 71, 72, 73, 74, 75, 76, 77, 78, 79, 80, 81, 82, 83, 84, 85, 86, 87, 88, 89, 90, 91, 92, 93, 94, 95, 96, 97, 98, 99, 100, 101, 102, 103, 104, 105, 106, 107, 108, 109, 110, 111, 112, 113, 114, 115, 116, 117, 118, 119, 120, 121, 122, 123, 124, 125, 126, 127, 128, 129, 130, 131, 132, 133, 134, 135, 136, 137, 138, 139, 140, 141, 142, 143, 144, 145, 146, 147, 148, 149, 150, 151, 152, 153, 154, 155, 156, 157, 158, 159, 160, 161, 162, 163, 164, 165, 166, 167, 168, 169, 170, 171, 172, 173, 174, 175, 176, 177, 178, 179, 180, 181, 182, 183, 184, 185, 186, 187, 188, 189, 190, 191, 192, 193, 194, 195, 196, 197, 198, 199, 200],
      "LargestImagePixelValue": [3746, 3741, 3755, 3742, 3743, 3744, 3743, 3742, 3751, 3742, 3740, 3748, 3743, 3746, 3744, 3741, 3730, 3735, 3735, 3739, 3724, 3734, 3735, 3746, 3736, 3735, 3735, 3748, 3738, 3742, 3744, 3742, 3748, 3740, 3754, 3738, 3739, 3738, 3748, 3741, 3742, 3740, 3741, 3750, 3746, 3737, 3742, 3730, 3731, 3739, 3749, 3745, 3754, 3748, 3745, 3734, 3734, 3738, 3735, 3738, 3744, 3753, 3739, 3754, 3749, 3755, 3741, 3751, 3741, 3742, 3743, 3741, 3746, 3747, 3748, 3744, 3728, 3740, 3737, 3741, 3736, 3732, 3731, 3729, 3734, 3738, 3747, 3733, 3736, 3750, 3742, 3738, 3742, 3753, 3734, 3744, 3728, 3753, 3750, 3733, 3731, 3734, 3737, 3738, 3746, 3745, 3748, 3737, 3743, 3731, 3747, 3738, 3735, 3731, 3743, 3737, 3737, 3734, 3736, 3741, 3734, 3741, 3733, 3733, 3743, 3735, 3741, 3748, 3744, 3736, 3738, 3748, 3738, 3750, 3751, 3742, 3746, 3730, 3739, 3742, 3733, 3740, 3738, 3754, 3728, 3743, 3737, 3735, 3750, 3743, 3734, 3738, 3735, 3737, 3732, 3733, 3745, 3731, 3744, 3742, 3742, 3733, 3738, 3741, 3742, 3736, 3727, 3732, 3750, 3731, 3739, 3735, 3744, 3735, 3738, 3748, 3742, 3731, 3724, 3731, 3732, 3732, 3741, 3733, 3724, 3748, 3740, 3738, 3740, 3743, 3730, 3741, 3731, 3734, 3738, 3742, 3734, 3732, 3735, 3735],
      "WindowCenter": [1397.0, 1397.0, 1395.0, 1396.0, 1396.0, 1395.0, 1395.0, 1396.0, 1396.0, 1396.0, 1395.0, 1396.0, 1396.0, 1395.0, 1395.0, 1395.0, 1395.0, 1396.0, 1395.0, 1395.0, 1395.0, 1396.0, 1395.0, 1396.0, 1395.0, 1395.0, 1395.0, 1394.0, 1395.0, 1395.0, 1394.0, 1395.0, 1395.0, 1395.0, 1395.0, 1395.0, 1395.0, 1395.0, 1395.0, 1395.0, 1395.0, 1395.0, 1395.0, 1395.0, 1395.0, 1395.0, 1395.0, 1395.0, 1395.0, 1394.0, 1395.0, 1395.0, 1395.0, 1395.0, 1395.0, 1395.0, 1395.0, 1395.0, 1395.0, 1394.0, 1395.0, 1395.0, 1395.0, 1395.0, 1395.0, 1395.0, 1395.0, 1395.0, 1395.0, 1395.0, 1394.0, 1395.0, 1394.0, 1395.0, 1394.0, 1394.0, 1395.0, 1394.0, 1394.0, 1394.0, 1394.0, 1394.0, 1394.0, 1394.0, 1394.0, 1394.0, 1394.0, 1394.0, 1394.0, 1394.0, 1393.0, 1394.0, 1394.0, 1394.0, 1394.0, 1393.0, 1394.0, 1394.0, 1394.0, 1394.0, 1394.0, 1394.0, 1394.0, 1394.0, 1393.0, 1393.0, 1393.0, 1394.0, 1393.0, 1393.0, 1393.0, 1393.0, 1394.0, 1393.0, 1393.0, 1393.0, 1394.0, 1393.0, 1393.0, 1393.0, 1392.0, 1394.0, 1393.0, 1392.0, 1393.0, 1393.0, 1393.0, 1393.0, 1393.0, 1393.0, 1393.0, 1393.0, 1392.0, 1392.0, 1393.0, 1392.0, 1392.0, 1392.0, 1392.0, 1392.0, 1393.0, 1392.0, 1392.0, 1393.0, 1392.0, 1392.0, 1392.0, 1392.0, 1392.0, 1392.0, 1392.0, 1392.0, 1392.0, 1391.0, 1392.0, 1392.0, 1392.0, 1392.0, 1391.0, 1393.0, 1391.0, 1391.0, 1391.0, 1392.0, 1391.0, 1391.0, 1391.0, 1392.0, 1391.0, 1391.0, 1391.0, 1392.0, 1392.0, 1392.0, 1391.0, 1392.0, 1391.0, 1392.0, 1391.0, 1391.0, 1391.0, 1391.0, 1391.0, 1391.0, 1391.0, 1390.0, 1391.0, 1391.0, 1391.0, 1391.0, 1390.0, 1391.0, 1390.0, 1391.0, 1391.0, 1391.0, 1391.0, 1391.0, 1391.0, 1391.0],
      "WindowWidth": [3243.0, 3242.0, 3242.0, 3242.0, 3242.0, 3242.0, 3241.0, 3241.0, 3241.0, 3241.0, 3241.0, 3241.0, 3241.0, 3241.0, 3241.0, 3241.0, 3241.0, 3240.0, 3241.0, 3241.0, 3241.0, 3240.0, 3240.0, 3240.0, 3240.0, 3240.0, 3241.0, 3240.0, 3241.0, 3240.0, 3240.0, 3240.0, 3240.0, 3240.0, 3240.0, 3240.0, 3240.0, 3240.0, 3240.0, 3240.0, 3240.0, 3240.0, 3240.0, 3239.0, 3239.0, 3239.0, 3239.0, 3239.0, 3239.0, 3239.0, 3239.0, 3239.0, 3239.0, 3239.0, 3239.0, 3239.0, 3239.0, 3239.0, 3239.0, 3239.0, 3239.0, 3239.0, 3239.0, 3239.0, 3238.0, 3238.0, 3238.0, 3238.0, 3238.0, 3238.0, 3239.0, 3238.0, 3238.0, 3238.0, 3238.0, 3238.0, 3238.0, 3238.0, 3238.0, 3238.0, 3238.0, 3238.0, 3238.0, 3238.0, 3238.0, 3238.0, 3238.0, 3238.0, 3238.0, 3238.0, 3238.0, 3238.0, 3238.0, 3238.0, 3238.0, 3238.0, 3238.0, 3238.0, 3238.0, 3238.0, 3238.0, 3238.0, 3238.0, 3238.0, 3238.0, 3238.0, 3238.0, 3237.0, 3238.0, 3238.0, 3238.0, 3238.0, 3237.0, 3238.0, 3238.0, 3238.0, 3237.0, 3238.0, 3238.0, 3238.0, 3238.0, 3237.0, 3237.0, 3237.0, 3237.0, 3237.0, 3238.0, 3238.0, 3237.0, 3238.0, 3237.0, 3237.0, 3237.0, 3237.0, 3237.0, 3237.0, 3237.0, 3237.0, 3237.0, 3237.0, 3237.0, 3237.0, 3237.0, 3237.0, 3237.0, 3237.0, 3237.0, 3237.0, 3237.0, 3237.0, 3237.0, 3237.0, 3237.0, 3237.0, 3237.0, 3237.0, 3237.0, 3237.0, 3237.0, 3237.0, 3237.0, 3237.0, 3237.0, 3237.0, 3237.0, 3237.0, 3237.0, 3237.0, 3237.0, 3237.0, 3237.0, 3237.0, 3237.0, 3237.0, 3236.0, 3237.0, 3237.0, 3237.0, 3236.0, 3237.0, 3237.0, 3236.0, 3236.0, 3236.0, 3236.0, 3237.0, 3236.0, 3236.0, 3236.0, 3236.0, 3237.0, 3236.0, 3237.0, 3236.0, 3236.0, 3236.0, 3236.0, 3236.0, 3236.0, 3236.0]
    },
    "slices": {}
  }
}