{
  "AcquisitionMatrixPE": 122,
  "AcquisitionNumber": 1,
  "AcquisitionTime": "10:31:17.437500",
  "BandwidthPerPixelPhaseEncode": 27.785,
  "BaseResolution": 122,
  "BodyPartExamined": "BRAIN",
  "CoilCombinationMethod": "Adaptive Combine",
  "ConsistencyInfo": "N4_VE11C_LATEST_20160120",
  "ConversionSoftware": "dcm2niix",
  "ConversionSoftwareVersion": "v1.0.20220720",
  "DerivedVendorReportedEchoSpacing": 0.000590011,
  "DeviceSerialNumber": "66112",
  "DiffusionScheme": "Monopolar",
  "DwellTime": 2e-06,
  "EchoTime": 0.068,
  "EchoTrainLength": 61,
  "EffectiveEchoSpacing": 0.000295005,
  "FlipAngle": 90,
  "HeudiconvVersion": "0.13.1",
  "ImageOrientationPatientDICOM": [0.97648, -0.215582, 0.00325506, 0.204353, 0.93022, 0.304845],
  "ImageOrientationText": "Tra>Cor(17.3)>Sag(3.9)",
  "ImageType": [
    "ORIGINAL",
    "PRIMARY",
    "DIFFUSION",
    "NONE",
    "ND",
    "NORM"
],
  "ImagingFrequency": 123.252,
  "InPlanePhaseEncodingDirectionDICOM": "COL",
  "InstitutionAddress": "Maynard 3,Hanover,NH,US,03755",
  "InstitutionName": "Dartmouth College - PBS",
  "InstitutionalDepartmentName": "Department",
  "MRAcquisitionType": "2D",
  "MagneticFieldStrength": 3,
  "Manufacturer": "Siemens",
  "ManufacturersModelName": "Prisma",
  "Modality": "MR",
  "MultibandAccelerationFactor": 4,
  "NonlinearGradientCorrection": false,
  "ParallelReductionFactorInPlane": 2,
  "PartialFourier": 1,
  "PatientPosition": "HFS",
  "PercentPhaseFOV": 100,
  "PercentSampling": 100,
  "PhaseEncodingDirection": "j-",
  "PhaseEncodingSteps": 122,
  "PhaseResolution": 1,
  "PixelBandwidth": 2050,
  "ProcedureStepDescription": "dbic^QA",
  "ProtocolName": "dwi_acq-DTI-30-p2-s4",
  "PulseSequenceDetails": "%SiemensSeq%\\ep2d_diff",
  "ReceiveCoilActiveElements": "HEA;HEP",
  "ReceiveCoilName": "Head_32",
  "ReconMatrixPE": 122,
  "RefLinesPE": 38,
  "RepetitionTime": 3.6,
  "SAR": 0.1603,
  "ScanOptions": "FS",
  "ScanningSequence": "EP",
  "SequenceName": "*ep_b0",
  "SequenceVariant": "SK\\SP",
  "SeriesDescription": "dwi_acq-DTI-30-p2-s4",
  "SeriesNumber": 13,
  "ShimSetting": [4144, -7691, -7515, 238, -80, -60, -29, 53],
  "SliceThickness": 2,
  "SliceTiming": [2.58594, 0, 1.78906, 0.20312, 1.99219, 0.39844, 2.1875, 0.60156, 2.39062, 0.99219, 2.78906, 1.19531, 2.98438, 1.39062, 3.17969, 1.59375, 3.38281, 0.79688, 2.58594, 0, 1.78906, 0.20312, 1.99219, 0.39844, 2.1875, 0.60156, 2.39062, 0.99219, 2.78906, 1.19531, 2.98438, 1.39062, 3.17969, 1.59375, 3.38281, 0.79688, 2.58594, 0, 1.78906, 0.20312, 1.99219, 0.39844, 2.1875, 0.60156, 2.39062, 0.99219, 2.78906, 1.19531, 2.98438, 1.39062, 3.17969, 1.59375, 3.38281, 0.79688, 2.58594, 0, 1.78906, 0.20312, 1.99219, 0.39844, 2.1875, 0.60156, 2.39062, 0.99219, 2.78906, 1.19531, 2.98438, 1.39062, 3.17969, 1.59375, 3.38281, 0.79688],
  "SoftwareVersions": "syngo MR E11",
  "SpacingBetweenSlices": 2,
  "SpoilingState": true,
  "StationName": "AWP66112",
  "TotalReadoutTime": 0.0356956,
  "TxRefAmp": 226.235,
  "dcmmeta_affine": [
    [-1.9209448099136353, 0.4020061194896698, 0.13749408721923828, 92.21869659423828],
    [0.4240964651107788, 1.8299412727355957, 0.5940170288085938, -145.19580078125],
    [0.0064033945091068745, -0.599694550037384, 1.9047927856445312, -23.355276107788086],
    [0.0, 0.0, 0.0, 1.0]
],
  "dcmmeta_reorient_transform": [
    [0.0, -1.0, 0.0, 121.0],
    [1.0, 0.0, 0.0, 0.0],
    [0.0, 0.0, -1.0, 71.0],
    [0.0, 0.0, 0.0, 1.0]
],
  "dcmmeta_shape": [122, 122, 72, 31],
  "dcmmeta_slice_dim": 2,
  "dcmmeta_version": 0.6,
  "global": {
    "const": {
      "AccessionNumber": "qa",
      "AcquisitionMatrix": [122, 0, 0, 122],
      "AngioFlag": "N",
      "BitsAllocated": 16,
      "BitsStored": 12,
      "BodyPartExamined": "BRAIN",
      "Columns": 122,
      "EchoNumbers": 1,
      "EchoTime": 68.0,
      "EchoTrainLength": 61,
      "FlipAngle": 90.0,
      "HighBit": 11,
      "ImageOrientationPatient": [0.97648023472492, -0.2155823642697, 0.00325505875034, 0.2043531058417, 0.93022013617933, 0.30484472503124],
      "ImageType": [
        "ORIGINAL",
        "PRIMARY",
        "DIFFUSION",
        "NONE",
        "ND",
        "NORM"
],
      "ImagedNucleus": "1H",
      "ImagingFrequency": 123.252386,
      "InPlanePhaseEncodingDirection": "COL",
      "MRAcquisitionType": "2D",
      "MagneticFieldStrength": 3.0,
      "Manufacturer": "SIEMENS",
      "ManufacturerModelName": "Prisma",
      "Modality": "MR",
      "NumberOfAverages": 1.0,
      "NumberOfPhaseEncodingSteps": 122,
      "PercentPhaseFieldOfView": 100.0,
      "PercentSampling": 100.0,
      "PerformedProcedureStepStartTime": "095451.635000",
      "PhotometricInterpretation": "MONOCHROME2",
      "PixelBandwidth": 2050.0,
      "PixelRepresentation": 0,
      "PixelSpacing": [1.9672131538391, 1.9672131538391],
      "ProtocolName": "dwi_acq-DTI-30-p2-s4",
      "RepetitionTime": 3600.0,
      "Rows": 122,
      "SAR": 0.16030028754529,
      "SamplesPerPixel": 1,
      "ScanOptions": "FS",
      "ScanningSequence": "EP",
      "SequenceVariant": [
        "SK",
        "SP"
],
      "SeriesDescription": "dwi_acq-DTI-30-p2-s4",
      "SeriesNumber": 13,
      "SeriesTime": "103126.511000",
      "SliceThickness": 2.0,
      "SmallestImagePixelValue": 0,
      "SoftwareVersions": "syngo MR E11",
      "SpacingBetweenSlices": 2.0,
      "SpecificCharacterSet": "ISO_IR 100",
      "StudyID": "27",
      "StudyTime": "095451.590000",
      "TransmitCoilName": "Body",
      "VariableFlipAngleFlag": "N",
      "WindowCenterWidthExplanation": "Algo1",
      "dBdt": 0.0},
    "slices": {
      "AcquisitionTime": ["103117.437500", "103114.852500", "103116.642500", "103115.052500", "103116.842500", "103115.250000", "103117.040000", "103115.450000", "103117.240000", "103115.847500", "103117.637500", "103116.045000", "103117.835000", "103116.245000", "103118.035000", "103116.445000", "103118.235000", "103115.647500", "103117.437500", "103114.852500", "103116.642500", "103115.052500", "103116.842500", "103115.250000", "103117.040000", "103115.450000", "103117.240000", "103115.847500", "103117.637500", "103116.045000", "103117.835000", "103116.245000", "103118.035000", "103116.445000", "103118.235000", "103115.647500", "103117.437500", "103114.852500", "103116.642500", "103115.052500", "103116.842500", "103115.250000", "103117.040000", "103115.450000", "103117.240000", "103115.847500", "103117.637500", "103116.045000", "103117.835000", "103116.245000", "103118.035000", "103116.445000", "103118.235000", "103115.647500", "103117.437500", "103114.852500", "103116.642500", "103115.052500", "103116.842500", "103115.250000", "103117.040000", "103115.450000", "103117.240000", "103115.847500", "103117.637500", "103116.045000", "103117.835000", "103116.245000", "103118.035000", "103116.445000", "103118.235000", "103115.647500", "103121.037500", "103118.452500", "103120.242500", "103118.652500", "103120.442500", "103118.850000", "103120.640000", "103119.050000", "103120.840000", "103119.447500", "103121.237500", "103119.645000", "103121.435000", "103119.845000", "103121.635000", "103120.045000", "103121.835000", "103119.247500", "103121.037500", "103118.452500", "103120.242500", "103118.652500", "103120.442500", "103118.850000", "103120.640000", "103119.050000", "103120.840000", "103119.447500", "103121.237500", "103119.645000", "103121.435000", "103119.845000", "103121.635000", "103120.045000", "103121.835000", "103119.247500", "103121.037500", "103118.452500", "103120.242500", "103118.652500", "103120.442500", "103118.850000", "103120.640000", "103119.050000", "103120.840000", "103119.447500", "103121.237500", "103119.645000", "103121.435000", "103119.845000", "103121.635000", "103120.045000", "103121.835000", "103119.247500", "103121.037500", "103118.452500", "103120.242500", "103118.652500", "103120.442500", "103118.850000", "103120.640000", "103119.050000", "103120.840000", "103119.447500", "103121.237500", "103119.645000", "103121.435000", "103119.845000", "103121.635000", "103120.045000", "103121.835000", "103119.247500", "103124.637500", "103122.052500", "103123.842500", "103122.252500", "103124.042500", "103122.450000", "103124.240000", "103122.650000", "103124.440000", "103123.047500", "103124.837500", "103123.245000", "103125.035000", "103123.445000", "103125.235000", "103123.645000", "103125.435000", "103122.847500", "103124.637500", "103122.052500", "103123.842500", "103122.252500", "103124.042500", "103122.450000", "103124.240000", "103122.650000", "103124.440000", "103123.047500", "103124.837500", "103123.245000", "103125.035000", "103123.445000", "103125.235000", "103123.645000", "103125.435000", "103122.847500", "103124.637500", "103122.052500", "103123.842500", "103122.252500", "103124.042500", "103122.450000", "103124.240000", "103122.650000", "103124.440000", "103123.047500", "103124.837500", "103123.245000", "103125.035000", "103123.445000", "103125.235000", "103123.645000", "103125.435000", "103122.847500", "103124.637500", "103122.052500", "103123.842500", "103122.252500", "103124.042500", "103122.450000", "103124.240000", "103122.650000", "103124.440000", "103123.047500", "103124.837500", "103123.245000", "103125.035000", "103123.445000", "103125.235000", "103123.645000", "103125.435000", "103122.847500", "103128.237500", "103125.652500", "103127.442500", "103125.852500", "103127.642500", "103126.050000", "103127.840000", "103126.250000", "103128.040000", "103126.647500", "103128.437500", "103126.845000", "103128.635000", "103127.045000", "103128.835000", "103127.245000", "103129.035000", "103126.447500", "103128.237500", "103125.652500", "103127.442500", "103125.852500", "103127.642500", "103126.050000", "103127.840000", "103126.250000", "103128.040000", "103126.647500", "103128.437500", "103126.845000", "103128.635000", "103127.045000", "103128.835000", "103127.245000", "103129.035000", "103126.447500", "103128.237500", "103125.652500", "103127.442500", "103125.852500", "103127.642500", "103126.050000", "103127.840000", "103126.250000", "103128.040000", "103126.647500", "103128.437500", "103126.845000", "103128.635000", "103127.045000", "103128.835000", "103127.245000", "103129.035000", "103126.447500", "103128.237500", "103125.652500", "103127.442500", "103125.852500", "103127.642500", "103126.050000", "103127.840000", "103126.250000", "103128.040000", "103126.647500", "103128.437500", "103126.845000", "103128.635000", "103127.045000", "103128.835000", "103127.245000", "103129.035000", "103126.447500", "103131.837500", "103129.252500", "103131.042500", "103129.452500", "103131.242500", "103129.650000", "103131.440000", "103129.850000", "103131.640000", "103130.247500", "103132.037500", "103130.445000", "103132.235000", "103130.645000", "103132.435000", "103130.845000", "103132.635000", "103130.047500", "103131.837500", "103129.252500", "103131.042500", "103129.452500", "103131.242500", "103129.650000", "103131.440000", "103129.850000", "103131.640000", "103130.247500", "103132.037500", "103130.445000", "103132.235000", "103130.645000", "103132.435000", "103130.845000", "103132.635000", "103130.047500", "103131.837500", "103129.252500", "103131.042500", "103129.452500", "103131.242500", "103129.650000", "103131.440000", "103129.850000", "103131.640000", "103130.247500", "103132.037500", "103130.445000", "103132.235000", "103130.645000", "103132.435000", "103130.845000", "103132.635000", "103130.047500", "103131.837500", "103129.252500", "103131.042500", "103129.452500", "103131.242500", "103129.650000", "103131.440000", "103129.850000", "103131.640000", "103130.247500", "103132.037500", "103130.445000", "103132.235000", "103130.645000", "103132.435000", "103130.845000", "103132.635000", "103130.047500", "103135.437500", "103132.852500", "103134.642500", "103133.052500", "103134.842500", "103133.250000", "103135.040000", "103133.450000", "103135.240000", "103133.847500", "103135.637500", "103134.045000", "103135.835000", "103134.245000", "103136.035000", "103134.445000", "103136.235000", "103133.647500", "103135.437500", "103132.852500", "103134.642500", "103133.052500", "103134.842500", "103133.250000", "103135.040000", "103133.450000", "103135.240000", "103133.847500", "103135.637500", "103134.045000", "103135.835000", "103134.245000", "103136.035000", "103134.445000", "103136.235000", "103133.647500", "103135.437500", "103132.852500", "103134.642500", "103133.052500", "103134.842500", "103133.250000", "103135.040000", "103133.450000", "103135.240000", "103133.847500", "103135.637500", "103134.045000", "103135.835000", "103134.245000", "103136.035000", "103134.445000", "103136.235000", "103133.647500", "103135.437500", "103132.852500", "103134.642500", "103133.052500", "103134.842500", "103133.250000", "103135.040000", "103133.450000", "103135.240000", "103133.847500", "103135.637500", "103134.045000", "103135.835000", "103134.245000", "103136.035000", "103134.445000", "103136.235000", "103133.647500", "103139.037500", "103136.452500", "103138.242500", "103136.652500", "103138.442500", "103136.850000", "103138.640000", "103137.050000", "103138.840000", "103137.447500", "103139.237500", "103137.645000", "103139.435000", "103137.845000", "103139.635000", "103138.045000", "103139.835000", "103137.247500", "103139.037500", "103136.452500", "103138.242500", "103136.652500", "103138.442500", "103136.850000", "103138.640000", "103137.050000", "103138.840000", "103137.447500", "103139.237500", "103137.645000", "103139.435000", "103137.845000", "103139.635000", "103138.045000", "103139.835000", "103137.247500", "103139.037500", "103136.452500", "103138.242500", "103136.652500", "103138.442500", "103136.850000", "103138.640000", "103137.050000", "103138.840000", "103137.447500", "103139.237500", "103137.645000", "103139.435000", "103137.845000", "103139.635000", "103138.045000", "103139.835000", "103137.247500", "103139.037500", "103136.452500", "103138.242500", "103136.652500", "103138.442500", "103136.850000", "103138.640000", "103137.050000", "103138.840000", "103137.447500", "103139.237500", "103137.645000", "103139.435000", "103137.845000", "103139.635000", "103138.045000", "103139.835000", "103137.247500", "103142.637500", "103140.052500", "103141.842500", "103140.252500", "103142.042500", "103140.450000", "103142.240000", "103140.650000", "103142.440000", "103141.047500", "103142.837500", "103141.245000", "103143.035000", "103141.445000", "103143.235000", "103141.645000", "103143.435000", "103140.847500", "103142.637500", "103140.052500", "103141.842500", "103140.252500", "103142.042500", "103140.450000", "103142.240000", "103140.650000", "103142.440000", "103141.047500", "103142.837500", "103141.245000", "103143.035000", "103141.445000", "103143.235000", "103141.645000", "103143.435000", "103140.847500", "103142.637500", "103140.052500", "103141.842500", "103140.252500", "103142.042500", "103140.450000", "103142.240000", "103140.650000", "103142.440000", "103141.047500", "103142.837500", "103141.245000", "103143.035000", "103141.445000", "103143.235000", "103141.645000", "103143.435000", "103140.847500", "103142.637500", "103140.052500", "103141.842500", "103140.252500", "103142.042500", "103140.450000", "103142.240000", "103140.650000", "103142.440000", "103141.047500", "103142.837500", "103141.245000", "103143.035000", "103141.445000", "103143.235000", "103141.645000", "103143.435000", "103140.847500", "103146.237500", "103143.652500", "103145.442500", "103143.852500", "103145.642500", "103144.050000", "103145.840000", "103144.250000", "103146.040000", "103144.647500", "103146.437500", "103144.845000", "103146.635000", "103145.045000", "103146.835000", "103145.245000", "103147.035000", "103144.447500", "103146.237500", "103143.652500", "103145.442500", "103143.852500", "103145.642500", "103144.050000", "103145.840000", "103144.250000", "103146.040000", "103144.647500", "103146.437500", "103144.845000", "103146.635000", "103145.045000", "103146.835000", "103145.245000", "103147.035000", "103144.447500", "103146.237500", "103143.652500", "103145.442500", "103143.852500", "103145.642500", "103144.050000", "103145.840000", "103144.250000", "103146.040000", "103144.647500", "103146.437500", "103144.845000", "103146.635000", "103145.045000", "103146.835000", "103145.245000", "103147.035000", "103144.447500", "103146.237500", "103143.652500", "103145.442500", "103143.852500", "103145.642500", "103144.050000", "103145.840000", "103144.250000", "103146.040000", "103144.647500", "103146.437500", "103144.845000", "103146.635000", "103145.045000", "103146.835000", "103145.245000", "103147.035000", "103144.447500", "103149.837500", "103147.252500", "103149.042500", "103147.452500", "103149.242500", "103147.650000", "103149.440000", "103147.850000", "103149.640000", "103148.247500", "103150.037500", "103148.445000", "103150.235000", "103148.645000", "103150.435000", "103148.845000", "103150.635000", "103148.047500", "103149.837500", "103147.252500", "103149.042500", "103147.452500", "103149.242500", "103147.650000", "103149.440000", "103147.850000", "103149.640000", "103148.247500", "103150.037500", "103148.445000", "103150.235000", "103148.645000", "103150.435000", "103148.845000", "103150.635000", "103148.047500", "103149.837500", "103147.252500", "103149.042500", "103147.452500", "103149.242500", "103147.650000", "103149.440000", "103147.850000", "103149.640000", "103148.247500", "103150.037500", "103148.445000", "103150.235000", "103148.645000", "103150.435000", "103148.845000", "103150.635000", "103148.047500", "103149.837500", "103147.252500", "103149.042500", "103147.452500", "103149.242500", "103147.650000", "103149.440000", "103147.850000", "103149.640000", "103148.247500", "103150.037500", "103148.445000", "103150.235000", "103148.645000", "103150.435000", "103148.845000", "103150.635000", "103148.047500", "103153.437500", "103150.852500", "103152.642500", "103151.052500", "103152.842500", "103151.250000", "103153.040000", "103151.450000", "103153.240000", "103151.847500", "103153.637500", "103152.045000", "103153.835000", "103152.245000", "103154.035000", "103152.445000", "103154.235000", "103151.647500", "103153.437500", "103150.852500", "103152.642500", "103151.052500", "103152.842500", "103151.250000", "103153.040000", "103151.450000", "103153.240000", "103151.847500", "103153.637500", "103152.045000", "103153.835000", "103152.245000", "103154.035000", "103152.445000", "103154.235000", "103151.647500", "103153.437500", "103150.852500", "103152.642500", "103151.052500", "103152.842500", "103151.250000", "103153.040000", "103151.450000", "103153.240000", "103151.847500", "103153.637500", "103152.045000", "103153.835000", "103152.245000", "103154.035000", "103152.445000", "103154.235000", "103151.647500", "103153.437500", "103150.852500", "103152.642500", "103151.052500", "103152.842500", "103151.250000", "103153.040000", "103151.450000", "103153.240000", "103151.847500", "103153.637500", "103152.045000", "103153.835000", "103152.245000", "103154.035000", "103152.445000", "103154.235000", "103151.647500", "103157.037500", "103154.452500", "103156.242500", "103154.652500", "103156.442500", "103154.850000", "103156.640000", "103155.050000", "103156.840000", "103155.447500", "103157.237500", "103155.645000", "103157.435000", "103155.845000", "103157.635000", "103156.045000", "103157.835000", "103155.247500", "103157.037500", "103154.452500", "103156.242500", "103154.652500", "103156.442500", "103154.850000", "103156.640000", "103155.050000", "103156.840000", "103155.447500", "103157.237500", "103155.645000", "103157.435000", "103155.845000", "103157.635000", "103156.045000", "103157.835000", "103155.247500", "103157.037500", "103154.452500", "103156.242500", "103154.652500", "103156.442500", "103154.850000", "103156.640000", "103155.050000", "103156.840000", "103155.447500", "103157.237500", "103155.645000", "103157.435000", "103155.845000", "103157.635000", "103156.045000", "103157.835000", "103155.247500", "103157.037500", "103154.452500", "103156.242500", "103154.652500", "103156.442500", "103154.850000", "103156.640000", "103155.050000", "103156.840000", "103155.447500", "103157.237500", "103155.645000", "103157.435000", "103155.845000", "103157.635000", "103156.045000", "103157.835000", "103155.247500", "103200.637500", "103158.052500", "103159.842500", "103158.252500", "103200.042500", "103158.450000", "103200.240000", "103158.650000", "103200.440000", "103159.047500", "103200.837500", "103159.245000", "103201.035000", "103159.445000", "103201.235000", "103159.645000", "103201.435000", "103158.847500", "103200.637500", "103158.052500", "103159.842500", "103158.252500", "103200.042500", "103158.450000", "103200.240000", "103158.650000", "103200.440000", "103159.047500", "103200.837500", "103159.245000", "103201.035000", "103159.445000", "103201.235000", "103159.645000", "103201.435000", "103158.847500", "103200.637500", "103158.052500", "103159.842500", "103158.252500", "103200.042500", "103158.450000", "103200.240000", "103158.650000", "103200.440000", "103159.047500", "103200.837500", "103159.245000", "103201.035000", "103159.445000", "103201.235000", "103159.645000", "103201.435000", "103158.847500", "103200.637500", "103158.052500", "103159.842500", "103158.252500", "103200.042500", "103158.450000", "103200.240000", "103158.650000", "103200.440000", "103159.047500", "103200.837500", "103159.245000", "103201.035000", "103159.445000", "103201.235000", "103159.645000", "103201.435000", "103158.847500", "103204.237500", "103201.652500", "103203.442500", "103201.852500", "103203.642500", "103202.050000", "103203.840000", "103202.250000", "103204.040000", "103202.647500", "103204.437500", "103202.845000", "103204.635000", "103203.045000", "103204.835000", "103203.245000", "103205.035000", "103202.447500", "103204.237500", "103201.652500", "103203.442500", "103201.852500", "103203.642500", "103202.050000", "103203.840000", "103202.250000", "103204.040000", "103202.647500", "103204.437500", "103202.845000", "103204.635000", "103203.045000", "103204.835000", "103203.245000", "103205.035000", "103202.447500", "103204.237500", "103201.652500", "103203.442500", "103201.852500", "103203.642500", "103202.050000", "103203.840000", "103202.250000", "103204.040000", "103202.647500", "103204.437500", "103202.845000", "103204.635000", "103203.045000", "103204.835000", "103203.245000", "103205.035000", "103202.447500", "103204.237500", "103201.652500", "103203.442500", "103201.852500", "103203.642500", "103202.050000", "103203.840000", "103202.250000", "103204.040000", "103202.647500", "103204.437500", "103202.845000", "103204.635000", "103203.045000", "103204.835000", "103203.245000", "103205.035000", "103202.447500", "103207.837500", "103205.252500", "103207.042500", "103205.452500", "103207.242500", "103205.650000", "103207.440000", "103205.850000", "103207.640000", "103206.247500", "103208.037500", "103206.445000", "103208.235000", "103206.645000", "103208.435000", "103206.845000", "103208.635000", "103206.047500", "103207.837500", "103205.252500", "103207.042500", "103205.452500", "103207.242500", "103205.650000", "103207.440000", "103205.850000", "103207.640000", "103206.247500", "103208.037500", "103206.445000", "103208.235000", "103206.645000", "103208.435000", "103206.845000", "103208.635000", "103206.047500", "103207.837500", "103205.252500", "103207.042500", "103205.452500", "103207.242500", "103205.650000", "103207.440000", "103205.850000", "103207.640000", "103206.247500", "103208.037500", "103206.445000", "103208.235000", "103206.645000", "103208.435000", "103206.845000", "103208.635000", "103206.047500", "103207.837500", "103205.252500", "103207.042500", "103205.452500", "103207.242500", "103205.650000", "103207.440000", "103205.850000", "103207.640000", "103206.247500", "103208.037500", "103206.445000", "103208.235000", "103206.645000", "103208.435000", "103206.845000", "103208.635000", "103206.047500", "103211.437500", "103208.852500", "103210.642500", "103209.052500", "103210.842500", "103209.250000", "103211.040000", "103209.450000", "103211.240000", "103209.847500", "103211.637500", "103210.045000", "103211.835000", "103210.245000", "103212.035000", "103210.445000", "103212.235000", "103209.647500", "103211.437500", "103208.852500", "103210.642500", "103209.052500", "103210.842500", "103209.250000", "103211.040000", "103209.450000", "103211.240000", "103209.847500", "103211.637500", "103210.045000", "103211.835000", "103210.245000", "103212.035000", "103210.445000", "103212.235000", "103209.647500", "103211.437500", "103208.852500", "103210.642500", "103209.052500", "103210.842500", "103209.250000", "103211.040000", "103209.450000", "103211.240000", "103209.847500", "103211.637500", "103210.045000", "103211.835000", "103210.245000", "103212.035000", "103210.445000", "103212.235000", "103209.647500", "103211.437500", "103208.852500", "103210.642500", "103209.052500", "103210.842500", "103209.250000", "103211.040000", "103209.450000", "103211.240000", "103209.847500", "103211.637500", "103210.045000", "103211.835000", "103210.245000", "103212.035000", "103210.445000", "103212.235000", "103209.647500", "103215.037500", "103212.452500", "103214.242500", "103212.652500", "103214.442500", "103212.850000", "103214.640000", "103213.050000", "103214.840000", "103213.447500", "103215.237500", "103213.645000", "103215.435000", "103213.845000", "103215.635000", "103214.045000", "103215.835000", "103213.247500", "103215.037500", "103212.452500", "103214.242500", "103212.652500", "103214.442500", "103212.850000", "103214.640000", "103213.050000", "103214.840000", "103213.447500", "103215.237500", "103213.645000", "103215.435000", "103213.845000", "103215.635000", "103214.045000", "103215.835000", "103213.247500", "103215.037500", "103212.452500", "103214.242500", "103212.652500", "103214.442500", "103212.850000", "103214.640000", "103213.050000", "103214.840000", "103213.447500", "103215.237500", "103213.645000", "103215.435000", "103213.845000", "103215.635000", "103214.045000", "103215.835000", "103213.247500", "103215.037500", "103212.452500", "103214.242500", "103212.652500", "103214.442500", "103212.850000", "103214.640000", "103213.050000", "103214.840000", "103213.447500", "103215.237500", "103213.645000", "103215.435000", "103213.845000", "103215.635000", "103214.045000", "103215.835000", "103213.247500", "103218.637500", "103216.052500", "103217.842500", "103216.252500", "103218.042500", "103216.450000", "103218.240000", "103216.650000", "103218.440000", "103217.047500", "103218.837500", "103217.245000", "103219.035000", "103217.445000", "103219.235000", "103217.645000", "103219.435000", "103216.847500", "103218.637500", "103216.052500", "103217.842500", "103216.252500", "103218.042500", "103216.450000", "103218.240000", "103216.650000", "103218.440000", "103217.047500", "103218.837500", "103217.245000", "103219.035000", "103217.445000", "103219.235000", "103217.645000", "103219.435000", "103216.847500", "103218.637500", "103216.052500", "103217.842500", "103216.252500", "103218.042500", "103216.450000", "103218.240000", "103216.650000", "103218.440000", "103217.047500", "103218.837500", "103217.245000", "103219.035000", "103217.445000", "103219.235000", "103217.645000", "103219.435000", "103216.847500", "103218.637500", "103216.052500", "103217.842500", "103216.252500", "103218.042500", "103216.450000", "103218.240000", "103216.650000", "103218.440000", "103217.047500", "103218.837500", "103217.245000", "103219.035000", "103217.445000", "103219.235000", "103217.645000", "103219.435000", "103216.847500", "103222.237500", "103219.652500", "103221.442500", "103219.852500", "103221.642500", "103220.050000", "103221.840000", "103220.250000", "103222.040000", "103220.647500", "103222.437500", "103220.845000", "103222.635000", "103221.045000", "103222.835000", "103221.245000", "103223.035000", "103220.447500", "103222.237500", "103219.652500", "103221.442500", "103219.852500", "103221.642500", "103220.050000", "103221.840000", "103220.250000", "103222.040000", "103220.647500", "103222.437500", "103220.845000", "103222.635000", "103221.045000", "103222.835000", "103221.245000", "103223.035000", "103220.447500", "103222.237500", "103219.652500", "103221.442500", "103219.852500", "103221.642500", "103220.050000", "103221.840000", "103220.250000", "103222.040000", "103220.647500", "103222.437500", "103220.845000", "103222.635000", "103221.045000", "103222.835000", "103221.245000", "103223.035000", "103220.447500", "103222.237500", "103219.652500", "103221.442500", "103219.852500", "103221.642500", "103220.050000", "103221.840000", "103220.250000", "103222.040000", "103220.647500", "103222.437500", "103220.845000", "103222.635000", "103221.045000", "103222.835000", "103221.245000", "103223.035000", "103220.447500", "103225.837500", "103223.252500", "103225.042500", "103223.452500", "103225.242500", "103223.650000", "103225.440000", "103223.850000", "103225.640000", "103224.247500", "103226.037500", "103224.445000", "103226.235000", "103224.645000", "103226.435000", "103224.845000", "103226.635000", "103224.047500", "103225.837500", "103223.252500", "103225.042500", "103223.452500", "103225.242500", "103223.650000", "103225.440000", "103223.850000", "103225.640000", "103224.247500", "103226.037500", "103224.445000", "103226.235000", "103224.645000", "103226.435000", "103224.845000", "103226.635000", "103224.047500", "103225.837500", "103223.252500", "103225.042500", "103223.452500", "103225.242500", "103223.650000", "103225.440000", "103223.850000", "103225.640000", "103224.247500", "103226.037500", "103224.445000", "103226.235000", "103224.645000", "103226.435000", "103224.845000", "103226.635000", "103224.047500", "103225.837500", "103223.252500", "103225.042500", "103223.452500", "103225.242500", "103223.650000", "103225.440000", "103223.850000", "103225.640000", "103224.247500", "103226.037500", "103224.445