{
  "AcquisitionMatrixPE": 80,
  "AcquisitionNumber": 1,
  "AcquisitionTime": "09:52:50.582500",
  "BandwidthPerPixelPhaseEncode": 48.077,
  "BaseResolution": 80,
  "BodyPartExamined": "BRAIN",
  "CoilCombinationMethod": "Sum of Squares",
  "ConsistencyInfo": "N4_VE11E_LATEST_20181129",
  "ConversionSoftware": "dcm2niix",
  "ConversionSoftwareVersion": "v1.0.20220720",
  "DerivedVendorReportedEchoSpacing": 0.000519999,
  "DeviceSerialNumber": "66112",
  "DwellTime": 2.7e-06,
  "EchoTime": 0.035,
  "EchoTrainLength": 39,
  "EffectiveEchoSpacing": 0.00026,
  "FlipAngle": 90,
  "HeudiconvVersion": "0.13.1",
  "ImageOrientationPatientDICOM": [0.999965, 0.00789576, 0.00282736, -0.00837742, 0.956254, 0.292417],
  "ImageOrientationText": "Tra>Cor(17.0)>Sag(0.0)",
  "ImageType": [
    "ORIGINAL",
    "PRIMARY",
    "M",
    "ND",
    "NORM",
    "MOSAIC"
],
  "ImagingFrequency": 123.261,
  "InPlanePhaseEncodingDirectionDICOM": "COL",
  "InstitutionAddress": "Maynard 3,Hanover,NH,US,03755",
  "InstitutionName": "Dartmouth College - PBS",
  "InstitutionalDepartmentName": "Department",
  "MRAcquisitionType": "2D",
  "MagneticFieldStrength": 3,
  "Manufacturer": "Siemens",
  "ManufacturersModelName": "Prisma",
  "MatrixCoilMode": "GRAPPA",
  "Modality": "MR",
  "NonlinearGradientCorrection": false,
  "ParallelReductionFactorInPlane": 2,
  "PartialFourier": 1,
  "PatientPosition": "HFS",
  "PercentPhaseFOV": 100,
  "PercentSampling": 100,
  "PhaseEncodingDirection": "j-",
  "PhaseEncodingSteps": 79,
  "PhaseResolution": 1,
  "PixelBandwidth": 2315,
  "ProcedureStepDescription": "dbic^QA",
  "ProtocolName": "func-bold_task-rest_acq-p2",
  "PulseSequenceDetails": "%SiemensSeq%\\ep2d_bold",
  "ReceiveCoilActiveElements": "HC1-7;NC1,2",
  "ReceiveCoilName": "HeadNeck_64",
  "ReconMatrixPE": 80,
  "RefLinesPE": 24,
  "RepetitionTime": 2,
  "SAR": 0.0359322,
  "ScanOptions": "FS",
  "ScanningSequence": "EP",
  "SequenceName": "*epfid2d1_80",
  "SequenceVariant": "SK",
  "SeriesDescription": "func-bold_task-rest_acq-p2",
  "SeriesNumber": 5,
  "ShimSetting": [4246, -7719, -7484, -131, -209, -305, -68, 86],
  "SliceThickness": 3.5,
  "SliceTiming": [0.99, 0, 1.0575, 0.0675, 1.1225, 0.1325, 1.19, 0.2, 1.255, 0.265, 1.32, 0.33, 1.3875, 0.3975, 1.4525, 0.4625, 1.52, 0.53, 1.585, 0.595, 1.65, 0.66, 1.7175, 0.7275, 1.7825, 0.7925, 1.85, 0.86, 1.915, 0.925],
  "SoftwareVersions": "syngo MR E11",
  "SpacingBetweenSlices": 3.99,
  "StationName": "AWP66112",
  "TaskName": "rest",
  "TotalReadoutTime": 0.02054,
  "TxRefAmp": 214.825,
  "dcmmeta_affine": [
    [-2.999894380569458, -0.025132255628705025, 0.0015753473853692412, 123.17750549316406],
    [-0.02368728443980217, 2.868762969970703, 1.1667962074279785, -127.6471176147461],
    [0.008482084609568119, -0.8772501945495605, 3.815584182739258, -36.23486328125],
    [0.0, 0.0, 0.0, 1.0]
],
  "dcmmeta_reorient_transform": [
    [0.0, -1.0, 0.0, 79.0],
    [1.0, 0.0, 0.0, 0.0],
    [0.0, 0.0, 1.0, 0.0],
    [0.0, 0.0, 0.0, 1.0]
],
  "dcmmeta_shape": [80, 80, 30, 200],
  "dcmmeta_slice_dim": 2,
  "dcmmeta_version": 0.6,
  "global": {
    "const": {
      "AccessionNumber": "qa64",
      "AcquisitionMatrix": [80, 0, 0, 80],
      "AngioFlag": "N",
      "BitsAllocated": 16,
      "BitsStored": 12,
      "BodyPartExamined": "BRAIN",
      "Columns": 480,
      "EchoNumbers": 1,
      "EchoTime": 35.0,
      "EchoTrainLength": 39,
      "FlipAngle": 90.0,
      "HighBit": 11,
      "ImageOrientationPatient": [0.99996483086986, 0.00789576152384, 0.00282736155831, -0.0083774183073, 0.95625429595285, 0.29241672375948],
      "ImagePositionPatient": [-716.14450231072, -677.4751850905, -282.68407883115],
      "ImageType": [
        "ORIGINAL",
        "PRIMARY",
        "M",
        "ND",
        "NORM",
        "MOSAIC"
],
      "ImagedNucleus": "1H",
      "ImagingFrequency": 123.26128,
      "InPlanePhaseEncodingDirection": "COL",
      "LargestImagePixelValue": 4095,
      "MRAcquisitionType": "2D",
      "MagneticFieldStrength": 3.0,
      "Manufacturer": "SIEMENS",
      "ManufacturerModelName": "Prisma",
      "Modality": "MR",
      "NumberOfAverages": 1.0,
      "NumberOfPhaseEncodingSteps": 79,
      "PercentPhaseFieldOfView": 100.0,
      "PercentSampling": 100.0,
      "PerformedProcedureStepStartTime": "095033.522000",
      "PhotometricInterpretation": "MONOCHROME2",
      "PixelBandwidth": 2315.0,
      "PixelRepresentation": 0,
      "PixelSpacing": [3.0, 3.0],
      "ProtocolName": "func-bold_task-rest_acq-p2",
      "RepetitionTime": 2000.0,
      "Rows": 480,
      "SAR": 0.03593218365158,
      "SamplesPerPixel": 1,
      "ScanOptions": "FS",
      "ScanningSequence": "EP",
      "SequenceName": "*epfid2d1_80",
      "SequenceVariant": "SK",
      "SeriesDescription": "func-bold_task-rest_acq-p2",
      "SeriesNumber": 5,
      "SeriesTime": "095340.630000",
      "SliceLocation": -71.930151864314,
      "SliceThickness": 3.5,
      "SmallestImagePixelValue": 0,
      "SoftwareVersions": "syngo MR E11",
      "SpacingBetweenSlices": 3.989999873479,
      "SpecificCharacterSet": "ISO_IR 100",
      "StudyID": "14",
      "StudyTime": "095033.427000",
      "TransmitCoilName": "Body",
      "VariableFlipAngleFlag": "N",
      "WindowCenterWidthExplanation": "Algo1"
    },
    "slices": {}
  },
  "time": {
    "samples": {
      "AcquisitionNumber": [1, 2, 3, 4, 5, 6, 7, 8, 9, 10, 11, 12, 13, 14, 15, 16, 17, 18, 19, 20, 21, 22, 23, 24, 25, 26, 27, 28, 29, 30, 31, 32, 33, 34, 35, 36, 37, 38, 39, 40, 41, 42, 43, 44, 45, 46, 47, 48, 49, 50, 51, 52, 53, 54, 55, 56, 57, 58, 59, 60, 61, 62, 63, 64, 65, 66, 67, 68, 69, 70, 71, 72, 73, 74, 75, 76, 77, 78, 79, 80, 81, 82, 83, 84, 85, 86, 87, 88, 89, 90, 91, 92, 93, 94, 95, 96, 97, 98, 99, 100, 101, 102, 103, 104, 105, 106, 107, 108, 109, 110, 111, 112, 113, 114, 115, 116, 117, 118, 119, 120, 121, 122, 123, 124, 125, 126, 127, 128, 129, 130, 131, 132, 133, 134, 135, 136, 137, 138, 139, 140, 141, 142, 143, 144, 145, 146, 147, 148, 149, 150, 151, 152, 153, 154, 155, 156, 157, 158, 159, 160, 161, 162, 163, 164, 165, 166, 167, 168, 169, 170, 171, 172, 173, 174, 175, 176, 177, 178, 179, 180, 181, 182, 183, 184, 185, 186, 187, 188, 189, 190, 191, 192, 193, 194, 195, 196, 197, 198, 199, 200],
      "AcquisitionTime": ["095250.582500", "095252.582500", "095254.582500", "095256.582500", "095258.582500", "095300.582500", "095302.582500", "095304.582500", "095306.582500", "095308.582500", "095310.582500", "095312.582500", "095314.582500", "095316.582500", "095318.582500", "095320.582500", "095322.582500", "095324.582500", "095326.582500", "095328.582500", "095330.582500", "095332.582500", "095334.582500", "095336.582500", "095338.582500", "095340.582500", "095342.582500", "095344.582500", "095346.582500", "095348.582500", "095350.582500", "095352.582500", "095354.582500", "095356.582500", "095358.582500", "095400.582500", "095402.582500", "095404.582500", "095406.582500", "095408.582500", "095410.582500", "095412.582500", "095414.582500", "095416.582500", "095418.582500", "095420.582500", "095422.582500", "095424.582500", "095426.582500", "095428.582500", "095430.582500", "095432.582500", "095434.582500", "095436.582500", "095438.582500", "095440.582500", "095442.582500", "095444.582500", "095446.582500", "095448.582500", "095450.582500", "095452.582500", "095454.582500", "095456.582500", "095458.582500", "095500.582500", "095502.582500", "095504.582500", "095506.582500", "095508.582500", "095510.582500", "095512.582500", "095514.582500", "095516.582500", "095518.582500", "095520.582500", "095522.582500", "095524.582500", "095526.582500", "095528.582500", "095530.582500", "095532.582500", "095534.582500", "095536.582500", "095538.582500", "095540.582500", "095542.582500", "095544.582500", "095546.582500", "095548.582500", "095550.582500", "095552.582500", "095554.582500", "095556.582500", "095558.582500", "095600.582500", "095602.582500", "095604.582500", "095606.582500", "095608.582500", "095610.582500", "095612.582500", "095614.582500", "095616.582500", "095618.582500", "095620.582500", "095622.582500", "095624.582500", "095626.582500", "095628.582500", "095630.582500", "095632.582500", "095634.582500", "095636.582500", "095638.582500", "095640.582500", "095642.582500", "095644.582500", "095646.582500", "095648.582500", "095650.582500", "095652.582500", "095654.582500", "095656.582500", "095658.582500", "095700.582500", "095702.582500", "095704.582500", "095706.582500", "095708.582500", "095710.582500", "095712.582500", "095714.582500", "095716.582500", "095718.582500", "095720.582500", "095722.582500", "095724.582500", "095726.582500", "095728.582500", "095730.582500", "095732.582500", "095734.582500", "095736.582500", "095738.582500", "095740.582500", "095742.582500", "095744.582500", "095746.582500", "095748.582500", "095750.582500", "095752.582500", "095754.582500", "095756.582500", "095758.582500", "095800.582500", "095802.582500", "095804.582500", "095806.582500", "095808.582500", "095810.582500", "095812.582500", "095814.582500", "095816.582500", "095818.582500", "095820.582500", "095822.582500", "095824.582500", "095826.582500", "095828.582500", "095830.582500", "095832.582500", "095834.582500", "095836.582500", "095838.582500", "095840.582500", "095842.582500", "095844.582500", "095846.582500", "095848.582500", "095850.582500", "095852.582500", "095854.582500", "095856.582500", "095858.582500", "095900.582500", "095902.582500", "095904.582500", "095906.582500", "095908.582500", "095910.582500", "095912.582500", "095914.582500", "095916.582500", "095918.582500", "095920.582500", "095922.582500", "095924.582500", "095926.582500", "095928.582500"],
      "ContentTime": ["095340.634000", "095340.637000", "095340.639000", "095340.642000", "095340.644000", "095340.647000", "095340.649000", "095340.651000", "095340.654000", "095340.656000", "095340.658000", "095340.661000", "095340.672000", "095340.675000", "095340.677000", "095340.683000", "095340.686000", "095340.688000", "095340.691000", "095340.693000", "095340.695000", "095340.706000", "095340.709000", "095340.711000", "095340.713000", "095420.628000", "095420.631000", "095420.634000", "095420.636000", "095420.638000", "095420.641000", "095420.643000", "095420.646000", "095420.648000", "095420.650000", "095420.653000", "095420.655000", "095420.657000", "095420.660000", "095420.662000", "095420.665000", "095420.667000", "095420.669000", "095420.672000", "095420.674000", "095500.629000", "095500.632000", "095500.634000", "095500.637000", "095500.648000", "095500.650000", "095500.653000", "095500.655000", "095500.657000", "095500.660000", "095500.662000", "095500.665000", "095500.667000", "095500.669000", "095500.672000", "095500.674000", "095500.677000", "095500.679000", "095500.681000", "095500.684000", "095540.628000", "095540.631000", "095540.633000", "095540.636000", "095540.638000", "095540.640000", "095540.643000", "095540.645000", "095540.648000", "095540.650000", "095540.652000", "095540.655000", "095540.657000", "095540.659000", "095540.662000", "095540.664000", "095540.666000", "095540.669000", "095540.672000", "095540.674000", "095620.629000", "095620.631000", "095620.634000", "095620.636000", "095620.638000", "095620.640000", "095620.643000", "095620.645000", "095620.648000", "095620.650000", "095620.652000", "095620.655000", "095620.657000", "095620.660000", "095620.662000", "095620.665000", "095620.667000", "095620.669000", "095620.672000", "095620.674000", "095700.628000", "095700.631000", "095700.633000", "095700.636000", "095700.638000", "095700.640000", "095700.643000", "095700.645000", "095700.648000", "095700.650000", "095700.653000", "095700.655000", "095700.657000", "095700.660000", "095700.662000", "095700.665000", "095700.667000", "095700.669000", "095700.672000", "095700.674000", "095740.628000", "095740.631000", "095740.633000", "095740.636000", "095740.638000", "095740.640000", "095740.643000", "095740.645000", "095740.647000", "095740.650000", "095740.652000", "095740.655000", "095740.657000", "095740.659000", "095740.662000", "095740.664000", "095740.666000", "095740.669000", "095740.671000", "095740.673000", "095820.628000", "095820.631000", "095820.634000", "095820.636000", "095820.638000", "095820.641000", "095820.643000", "095820.645000", "095820.648000", "095820.650000", "095820.653000", "095820.655000", "095820.657000", "095820.660000", "095820.662000", "095820.665000", "095820.667000", "095820.669000", "095820.672000", "095820.674000", "095900.628000", "095900.631000", "095900.634000", "095900.636000", "095900.639000", "095900.641000", "095900.644000", "095900.646000", "095900.648000", "095900.651000", "095900.653000", "095900.655000", "095900.658000", "095900.660000", "095900.662000", "095900.665000", "095900.667000", "095900.670000", "095900.672000", "095900.674000", "095929.703000", "095929.705000", "095929.708000", "095929.710000", "095929.712000", "095929.715000", "095929.736000", "095929.740000", "095929.744000", "095929.750000", "095929.754000", "095929.756000", "095929.759000", "095929.762000", "095929.765000"],
      "InstanceCreationTime": ["095340.634000", "095340.637000", "095340.639000", "095340.642000", "095340.644000", "095340.647000", "095340.649000", "095340.651000", "095340.654000", "095340.656000", "095340.658000", "095340.661000", "095340.672000", "095340.675000", "095340.677000", "095340.683000", "095340.686000", "095340.688000", "095340.691000", "095340.693000", "095340.695000", "095340.706000", "095340.709000", "095340.711000", "095340.713000", "095420.628000", "095420.631000", "095420.634000", "095420.636000", "095420.638000", "095420.641000", "095420.643000", "095420.646000", "095420.648000", "095420.650000", "095420.653000", "095420.655000", "095420.657000", "095420.660000", "095420.662000", "095420.665000", "095420.667000", "095420.669000", "095420.672000", "095420.674000", "095500.629000", "095500.632000", "095500.634000", "095500.637000", "095500.648000", "095500.650000", "095500.653000", "095500.655000", "095500.657000", "095500.660000", "095500.662000", "095500.665000", "095500.667000", "095500.669000", "095500.672000", "095500.674000", "095500.677000", "095500.679000", "095500.681000", "095500.684000", "095540.628000", "095540.631000", "095540.633000", "095540.636000", "095540.638000", "095540.640000", "095540.643000", "095540.645000", "095540.648000", "095540.650000", "095540.652000", "095540.655000", "095540.657000", "095540.659000", "095540.662000", "095540.664000", "095540.666000", "095540.669000", "095540.672000", "095540.674000", "095620.629000", "095620.631000", "095620.634000", "095620.636000", "095620.638000", "095620.640000", "095620.643000", "095620.645000", "095620.648000", "095620.650000", "095620.652000", "095620.655000", "095620.657000", "095620.660000", "095620.662000", "095620.665000", "095620.667000", "095620.669000", "095620.672000", "095620.674000", "095700.628000", "095700.631000", "095700.633000", "095700.636000", "095700.638000", "095700.640000", "095700.643000", "095700.645000", "095700.648000", "095700.650000", "095700.653000", "095700.655000", "095700.657000", "095700.660000", "095700.662000", "095700.665000", "095700.667000", "095700.669000", "095700.672000", "095700.674000", "095740.628000", "095740.631000", "095740.633000", "095740.636000", "095740.638000", "095740.640000", "095740.643000", "095740.645000", "095740.647000", "095740.650000", "095740.652000", "095740.655000", "095740.657000", "095740.659000", "095740.662000", "095740.664000", "095740.666000", "095740.669000", "095740.671000", "095740.673000", "095820.628000", "095820.631000", "095820.634000", "095820.636000", "095820.638000", "095820.641000", "095820.643000", "095820.645000", "095820.648000", "095820.650000", "095820.653000", "095820.655000", "095820.657000", "095820.660000", "095820.662000", "095820.665000", "095820.667000", "095820.669000", "095820.672000", "095820.674000", "095900.628000", "095900.631000", "095900.634000", "095900.636000", "095900.639000", "095900.641000", "095900.644000", "095900.646000", "095900.648000", "095900.651000", "095900.653000", "095900.655000", "095900.658000", "095900.660000", "095900.662000", "095900.665000", "095900.667000", "095900.670000", "095900.672000", "095900.674000", "095929.703000", "095929.705000", "095929.708000", "095929.710000", "095929.712000", "095929.715000", "095929.736000", "095929.740000", "095929.744000", "095929.750000", "095929.754000", "095929.756000", "095929.759000", "095929.762000", "095929.765000"],
      "InstanceNumber": [1, 2, 3, 4, 5, 6, 7, 8, 9, 10, 11, 12, 13, 14, 15, 16, 17, 18, 19, 20, 21, 22, 23, 24, 25, 26, 27, 28, 29, 30, 31, 32, 33, 34, 35, 36, 37, 38, 39, 40, 41, 42, 43, 44, 45, 46, 47, 48, 49, 50, 51, 52, 53, 54, 55, 56, 57, 58, 59, 60, 61, 62, 63, 64, 65, 66, 67, 68, 69, 70, 71, 72, 73, 74, 75, 76, 77, 78, 79, 80, 81, 82, 83, 84, 85, 86, 87, 88, 89, 90, 91, 92, 93, 94, 95, 96, 97, 98, 99, 100, 101, 102, 103, 104, 105, 106, 107, 108, 109, 110, 111, 112, 113, 114, 115, 116, 117, 118, 119, 120, 121, 122, 123, 124, 125, 126, 127, 128, 129, 130, 131, 132, 133, 134, 135, 136, 137, 138, 139, 140, 141, 142, 143, 144, 145, 146, 147, 148, 149, 150, 151, 152, 153, 154, 155, 156, 157, 158, 159, 160, 161, 162, 163, 164, 165, 166, 167, 168, 169, 170, 171, 172, 173, 174, 175, 176, 177, 178, 179, 180, 181, 182, 183, 184, 185, 186, 187, 188, 189, 190, 191, 192, 193, 194, 195, 196, 197, 198, 199, 200],
      "WindowCenter": [1556.0, 1555.0, 1555.0, 1554.0, 1554.0, 1553.0, 1554.0, 1554.0, 1555.0, 1555.0, 1554.0, 1554.0, 1554.0, 1553.0, 1554.0, 1554.0, 1554.0, 1554.0, 1554.0, 1554.0, 1555.0, 1553.0, 1553.0, 1552.0, 1552.0, 1554.0, 1552.0, 1553.0, 1553.0, 1553.0, 1552.0, 1552.0, 1552.0, 1553.0, 1552.0, 1552.0, 1552.0, 1552.0, 1553.0, 1553.0, 1553.0, 1552.0, 1552.0, 1552.0, 1552.0, 1552.0, 1551.0, 1553.0, 1552.0, 1552.0, 1552.0, 1550.0, 1552.0, 1551.0, 1552.0, 1551.0, 1551.0, 1552.0, 1552.0, 1551.0, 1551.0, 1552.0, 1551.0, 1551.0, 1551.0, 1551.0, 1551.0, 1551.0, 1551.0, 1551.0, 1551.0, 1550.0, 1551.0, 1551.0, 1550.0, 1550.0, 1550.0, 1550.0, 1551.0, 1551.0, 1551.0, 1550.0, 1551.0, 1549.0, 1550.0, 1550.0, 1551.0, 1551.0, 1551.0, 1551.0, 1550.0, 1551.0, 1551.0, 1550.0, 1550.0, 1550.0, 1549.0, 1550.0, 1550.0, 1550.0, 1551.0, 1549.0, 1549.0, 1549.0, 1549.0, 1549.0, 1550.0, 1549.0, 1550.0, 1549.0, 1550.0, 1550.0, 1550.0, 1550.0, 1550.0, 1549.0, 1549.0, 1549.0, 1549.0, 1549.0, 1549.0, 1549.0, 1549.0, 1550.0, 1548.0, 1549.0, 1549.0, 1549.0, 1549.0, 1549.0, 1548.0, 1549.0, 1549.0, 1549.0, 1549.0, 1549.0, 1548.0, 1549.0, 1548.0, 1548.0, 1549.0, 1548.0, 1548.0, 1548.0, 1549.0, 1548.0, 1547.0, 1548.0, 1548.0, 1548.0, 1548.0, 1549.0, 1548.0, 1548.0, 1547.0, 1548.0, 1548.0, 1548.0, 1548.0, 1547.0, 1548.0, 1548.0, 1548.0, 1548.0, 1548.0, 1548.0, 1547.0, 1547.0, 1547.0, 1547.0, 1547.0, 1548.0, 1547.0, 1547.0, 1547.0, 1548.0, 1548.0, 1547.0, 1548.0, 1548.0, 1547.0, 1547.0, 1547.0, 1547.0, 1547.0, 1548.0, 1548.0, 1546.0, 1547.0, 1547.0, 1547.0, 1547.0, 1547.0, 1547.0, 1547.0, 1547.0, 1547.0, 1546.0, 1546.0, 1547.0],
      "WindowWidth": [3462.0, 3461.0, 3461.0, 3461.0, 3461.0, 3461.0, 3461.0, 3461.0, 3460.0, 3460.0, 3460.0, 3461.0, 3460.0, 3460.0, 3460.0, 3460.0, 3460.0, 3460.0, 3460.0, 3460.0, 3459.0, 3460.0, 3460.0, 3460.0, 3460.0, 3459.0, 3460.0, 3460.0, 3460.0, 3460.0, 3460.0, 3459.0, 3460.0, 3459.0, 3460.0, 3460.0, 3459.0, 3459.0, 3459.0, 3459.0, 3459.0, 3459.0, 3459.0, 3459.0, 3459.0, 3459.0, 3459.0, 3459.0, 3459.0, 3459.0, 3459.0, 3460.0, 3459.0, 3459.0, 3459.0, 3459.0, 3459.0, 3459.0, 3459.0, 3459.0, 3459.0, 3458.0, 3459.0, 3459.0, 3459.0, 3459.0, 3459.0, 3459.0, 3459.0, 3459.0, 3459.0, 3458.0, 3458.0, 3458.0, 3458.0, 3458.0, 3458.0, 3458.0, 3458.0, 3458.0, 3458.0, 3458.0, 3458.0, 3458.0, 3458.0, 3458.0, 3458.0, 3458.0, 3458.0, 3458.0, 3458.0, 3458.0, 3458.0, 3458.0, 3458.0, 3458.0, 3458.0, 3458.0, 3458.0, 3458.0, 3457.0, 3458.0, 3458.0, 3458.0, 3458.0, 3458.0, 3458.0, 3458.0, 3458.0, 3458.0, 3458.0, 3458.0, 3457.0, 3457.0, 3457.0, 3458.0, 3458.0, 3458.0, 3457.0, 3457.0, 3458.0, 3458.0, 3457.0, 3457.0, 3457.0, 3457.0, 3457.0, 3457.0, 3457.0, 3457.0, 3457.0, 3457.0, 3457.0, 3457.0, 3457.0, 3457.0, 3457.0, 3457.0, 3457.0, 3457.0, 3457.0, 3457.0, 3457.0, 3457.0, 3457.0, 3457.0, 3457.0, 3457.0, 3457.0, 3457.0, 3457.0, 3457.0, 3457.0, 3457.0, 3457.0, 3457.0, 3457.0, 3457.0, 3457.0, 3457.0, 3457.0, 3456.0, 3457.0, 3457.0, 3456.0, 3456.0, 3457.0, 3457.0, 3457.0, 3456.0, 3456.0, 3456.0, 3456.0, 3456.0, 3456.0, 3456.0, 3456.0, 3456.0, 3456.0, 3456.0, 3456.0, 3456.0, 3456.0, 3456.0, 3456.0, 3456.0, 3456.0, 3456.0, 3456.0, 3456.0, 3456.0, 3456.0, 3456.0, 3456.0, 3456.0, 3456.0, 3456.0, 3456.0, 3456.0, 3456.0]
    },
    "slices": {}
  }
}