{
  "AcquisitionMatrixPE": 80,
  "AcquisitionNumber": 1,
  "AcquisitionTime": "10:06:27.480000",
  "BandwidthPerPixelPhaseEncode": 25,
  "BaseResolution": 80,
  "BodyPartExamined": "BRAIN",
  "CoilCombinationMethod": "Sum of Squares",
  "ConsistencyInfo": "N4_VE11E_LATEST_20181129",
  "ConversionSoftware": "dcm2niix",
  "ConversionSoftwareVersion": "v1.0.20220720",
  "DerivedVendorReportedEchoSpacing": 0.0005,
  "DeviceSerialNumber": "66112",
  "DwellTime": 2.7e-06,
  "EchoTime": 0.03,
  "EchoTrainLength": 80,
  "EffectiveEchoSpacing": 0.0005,
  "FlipAngle": 10,
  "HeudiconvVersion": "0.13.1",
  "ImageOrientationPatientDICOM": [0.999965, 0.00789576, 0.00282736, -0.00837742, 0.956254, 0.292417],
  "ImageOrientationText": "Tra>Cor(17.0)>Sag(0.0)",
  "ImageType": [
    "ORIGINAL",
    "PRIMARY",
    "M",
    "ND",
    "NORM",
    "MOSAIC"
],
  "ImagingFrequency": 123.261,
  "InPlanePhaseEncodingDirectionDICOM": "COL",
  "InstitutionAddress": "Maynard 3,Hanover,NH,US,03755",
  "InstitutionName": "Dartmouth College - PBS",
  "InstitutionalDepartmentName": "Department",
  "MRAcquisitionType": "2D",
  "MagneticFieldStrength": 3,
  "Manufacturer": "Siemens",
  "ManufacturersModelName": "Prisma",
  "MatrixCoilMode": "SENSE",
  "Modality": "MR",
  "NonlinearGradientCorrection": false,
  "PartialFourier": 1,
  "PatientPosition": "HFS",
  "PercentPhaseFOV": 100,
  "PercentSampling": 100,
  "PhaseEncodingDirection": "j-",
  "PhaseEncodingSteps": 80,
  "PhaseResolution": 1,
  "PixelBandwidth": 2315,
  "ProcedureStepDescription": "dbic^QA",
  "ProtocolName": "func-bold_fa-10",
  "PulseSequenceDetails": "%SiemensSeq%\\ep2d_bold",
  "ReceiveCoilActiveElements": "HC1-7;NC1,2",
  "ReceiveCoilName": "HeadNeck_64",
  "ReconMatrixPE": 80,
  "RepetitionTime": 2,
  "SAR": 0.00757463,
  "ScanOptions": "FS",
  "ScanningSequence": "EP",
  "SequenceName": "*epfid2d1_80",
  "SequenceVariant": "SK",
  "SeriesDescription": "func-bold_fa-10",
  "SeriesNumber": 7,
  "ShimSetting": [4246, -7719, -7484, -127, -209, -305, -67, 86],
  "SliceThickness": 3.5,
  "SliceTiming": [0.99, 0, 1.055, 0.0675, 1.1225, 0.1325, 1.1875, 0.1975, 1.255, 0.265, 1.32, 0.33, 1.385, 0.3975, 1.4525, 0.4625, 1.5175, 0.5275, 1.585, 0.595, 1.65, 0.66, 1.715, 0.7275, 1.7825, 0.7925, 1.8475, 0.8575, 1.915, 0.925],
  "SoftwareVersions": "syngo MR E11",
  "SpacingBetweenSlices": 3.99,
  "StationName": "AWP66112",
  "TotalReadoutTime": 0.0395,
  "TxRefAmp": 214.825,
  "dcmmeta_affine": [
    [-2.999894380569458, -0.025132255628705025, 0.0015753473853692412, 121.24198913574219],
    [-0.02368728443980217, 2.868762969970703, 1.1667962074279785, -125.45124053955078],
    [0.008482084609568119, -0.8772501945495605, 3.815584421157837, -35.56866455078125],
    [0.0, 0.0, 0.0, 1.0]
],
  "dcmmeta_reorient_transform": [
    [0.0, -1.0, 0.0, 79.0],
    [1.0, 0.0, 0.0, 0.0],
    [0.0, 0.0, 1.0, 0.0],
    [0.0, 0.0, 0.0, 1.0]
],
  "dcmmeta_shape": [80, 80, 30, 200],
  "dcmmeta_slice_dim": 2,
  "dcmmeta_version": 0.6,
  "global": {
    "const": {
      "AccessionNumber": "qa64",
      "AcquisitionMatrix": [80, 0, 0, 80],
      "AngioFlag": "N",
      "BitsAllocated": 16,
      "BitsStored": 12,
      "BodyPartExamined": "BRAIN",
      "Columns": 480,
      "EchoNumbers": 1,
      "EchoTime": 30.0,
      "EchoTrainLength": 80,
      "FlipAngle": 10.0,
      "HighBit": 11,
      "ImageOrientationPatient": [0.99996483086986, 0.00789576152384, 0.00282736155831, -0.0083774183073, 0.95625429595285, 0.29241672375948],
      "ImagePositionPatient": [-714.20899170514, -679.67106407304, -282.01788010068],
      "ImageType": [
        "ORIGINAL",
        "PRIMARY",
        "M",
        "ND",
        "NORM",
        "MOSAIC"
],
      "ImagedNucleus": "1H",
      "ImagingFrequency": 123.261279,
      "InPlanePhaseEncodingDirection": "COL",
      "MRAcquisitionType": "2D",
      "MagneticFieldStrength": 3.0,
      "Manufacturer": "SIEMENS",
      "ManufacturerModelName": "Prisma",
      "Modality": "MR",
      "NumberOfAverages": 1.0,
      "NumberOfPhaseEncodingSteps": 80,
      "PercentPhaseFieldOfView": 100.0,
      "PercentSampling": 100.0,
      "PerformedProcedureStepStartTime": "095033.522000",
      "PhotometricInterpretation": "MONOCHROME2",
      "PixelBandwidth": 2315.0,
      "PixelRepresentation": 0,
      "PixelSpacing": [3.0, 3.0],
      "ProtocolName": "func-bold_fa-10",
      "RepetitionTime": 2000.0,
      "Rows": 480,
      "SAR": 0.00757463156619,
      "SamplesPerPixel": 1,
      "ScanOptions": "FS",
      "ScanningSequence": "EP",
      "SequenceName": "*epfid2d1_80",
      "SequenceVariant": "SK",
      "SeriesDescription": "func-bold_fa-10",
      "SeriesNumber": 7,
      "SeriesTime": "100720.543000",
      "SliceLocation": -70.651697823563,
      "SliceThickness": 3.5,
      "SmallestImagePixelValue": 0,
      "SoftwareVersions": "syngo MR E11",
      "SpacingBetweenSlices": 3.9899999992694,
      "SpecificCharacterSet": "ISO_IR 100",
      "StudyID": "14",
      "StudyTime": "095033.427000",
      "TransmitCoilName": "Body",
      "VariableFlipAngleFlag": "N",
      "WindowCenterWidthExplanation": "Algo1"
    },
    "slices": {}
  },
  "time": {
    "samples": {
      "AcquisitionNumber": [1, 2, 3, 4, 5, 6, 7, 8, 9, 10, 11, 12, 13, 14, 15, 16, 17, 18, 19, 20, 21, 22, 23, 24, 25, 26, 27, 28, 29, 30, 31, 32, 33, 34, 35, 36, 37, 38, 39, 40, 41, 42, 43, 44, 45, 46, 47, 48, 49, 50, 51, 52, 53, 54, 55, 56, 57, 58, 59, 60, 61, 62, 63, 64, 65, 66, 67, 68, 69, 70, 71, 72, 73, 74, 75, 76, 77, 78, 79, 80, 81, 82, 83, 84, 85, 86, 87, 88, 89, 90, 91, 92, 93, 94, 95, 96, 97, 98, 99, 100, 101, 102, 103, 104, 105, 106, 107, 108, 109, 110, 111, 112, 113, 114, 115, 116, 117, 118, 119, 120, 121, 122, 123, 124, 125, 126, 127, 128, 129, 130, 131, 132, 133, 134, 135, 136, 137, 138, 139, 140, 141, 142, 143, 144, 145, 146, 147, 148, 149, 150, 151, 152, 153, 154, 155, 156, 157, 158, 159, 160, 161, 162, 163, 164, 165, 166, 167, 168, 169, 170, 171, 172, 173, 174, 175, 176, 177, 178, 179, 180, 181, 182, 183, 184, 185, 186, 187, 188, 189, 190, 191, 192, 193, 194, 195, 196, 197, 198, 199, 200],
      "AcquisitionTime": ["100627.480000", "100629.480000", "100631.480000", "100633.480000", "100635.480000", "100637.480000", "100639.480000", "100641.480000", "100643.480000", "100645.480000", "100647.480000", "100649.480000", "100651.480000", "100653.480000", "100655.480000", "100657.480000", "100659.480000", "100701.480000", "100703.480000", "100705.480000", "100707.480000", "100709.480000", "100711.480000", "100713.480000", "100715.480000", "100717.480000", "100719.480000", "100721.480000", "100723.480000", "100725.480000", "100727.480000", "100729.480000", "100731.480000", "100733.480000", "100735.480000", "100737.480000", "100739.480000", "100741.480000", "100743.480000", "100745.480000", "100747.480000", "100749.480000", "100751.480000", "100753.480000", "100755.480000", "100757.480000", "100759.480000", "100801.480000", "100803.480000", "100805.480000", "100807.480000", "100809.480000", "100811.480000", "100813.480000", "100815.480000", "100817.480000", "100819.480000", "100821.480000", "100823.480000", "100825.480000", "100827.480000", "100829.480000", "100831.480000", "100833.480000", "100835.480000", "100837.480000", "100839.480000", "100841.480000", "100843.480000", "100845.480000", "100847.480000", "100849.480000", "100851.480000", "100853.480000", "100855.480000", "100857.480000", "100859.480000", "100901.480000", "100903.480000", "100905.480000", "100907.480000", "100909.480000", "100911.480000", "100913.480000", "100915.480000", "100917.480000", "100919.480000", "100921.480000", "100923.480000", "100925.480000", "100927.480000", "100929.480000", "100931.480000", "100933.480000", "100935.480000", "100937.480000", "100939.480000", "100941.480000", "100943.480000", "100945.480000", "100947.480000", "100949.480000", "100951.480000", "100953.480000", "100955.480000", "100957.480000", "100959.480000", "101001.480000", "101003.480000", "101005.480000", "101007.480000", "101009.480000", "101011.480000", "101013.480000", "101015.480000", "101017.480000", "101019.480000", "101021.480000", "101023.480000", "101025.480000", "101027.480000", "101029.480000", "101031.480000", "101033.480000", "101035.480000", "101037.480000", "101039.480000", "101041.480000", "101043.480000", "101045.480000", "101047.480000", "101049.480000", "101051.480000", "101053.480000", "101055.480000", "101057.480000", "101059.480000", "101101.480000", "101103.480000", "101105.480000", "101107.480000", "101109.480000", "101111.480000", "101113.480000", "101115.480000", "101117.480000", "101119.480000", "101121.480000", "101123.480000", "101125.480000", "101127.480000", "101129.480000", "101131.480000", "101133.480000", "101135.480000", "101137.480000", "101139.480000", "101141.480000", "101143.480000", "101145.480000", "101147.480000", "101149.480000", "101151.480000", "101153.480000", "101155.480000", "101157.480000", "101159.480000", "101201.480000", "101203.480000", "101205.480000", "101207.480000", "101209.480000", "101211.480000", "101213.480000", "101215.480000", "101217.480000", "101219.480000", "101221.480000", "101223.480000", "101225.480000", "101227.480000", "101229.480000", "101231.480000", "101233.480000", "101235.480000", "101237.480000", "101239.480000", "101241.480000", "101243.480000", "101245.480000", "101247.480000", "101249.480000", "101251.480000", "101253.480000", "101255.480000", "101257.480000", "101259.480000", "101301.480000", "101303.480000", "101305.480000"],
      "ContentTime": ["100720.547000", "100720.550000", "100720.553000", "100720.555000", "100720.557000", "100720.560000", "100720.562000", "100720.571000", "100720.574000", "100720.576000", "100720.578000", "100720.581000", "100720.583000", "100720.593000", "100720.596000", "100720.598000", "100720.600000", "100720.602000", "100720.605000", "100720.607000", "100720.609000", "100720.612000", "100720.614000", "100720.616000", "100720.619000", "100720.621000", "100800.542000", "100800.545000", "100800.547000", "100800.550000", "100800.552000", "100800.554000", "100800.557000", "100800.559000", "100800.561000", "100800.564000", "100800.566000", "100800.568000", "100800.571000", "100800.573000", "100800.575000", "100800.578000", "100800.580000", "100800.583000", "100800.592000", "100800.594000", "100840.542000", "100840.545000", "100840.547000", "100840.550000", "100840.552000", "100840.554000", "100840.556000", "100840.559000", "100840.561000", "100840.563000", "100840.566000", "100840.568000", "100840.570000", "100840.573000", "100840.575000", "100840.578000", "100840.580000", "100840.582000", "100840.585000", "100840.587000", "100920.542000", "100920.545000", "100920.547000", "100920.550000", "100920.552000", "100920.554000", "100920.557000", "100920.559000", "100920.561000", "100920.564000", "100920.566000", "100920.569000", "100920.571000", "100920.573000", "100920.575000", "100920.578000", "100920.580000", "100920.583000", "100920.585000", "100920.587000", "101000.542000", "101000.545000", "101000.547000", "101000.550000", "101000.552000", "101000.554000", "101000.557000", "101000.559000", "101000.561000", "101000.564000", "101000.566000", "101000.568000", "101000.571000", "101000.573000", "101000.575000", "101000.578000", "101000.580000", "101000.582000", "101000.585000", "101000.587000", "101040.542000", "101040.545000", "101040.547000", "101040.550000", "101040.552000", "101040.555000", "101040.557000", "101040.559000", "101040.562000", "101040.564000", "101040.566000", "101040.569000", "101040.571000", "101040.573000", "101040.576000", "101040.578000", "101040.580000", "101040.583000", "101040.585000", "101040.587000", "101120.542000", "101120.545000", "101120.547000", "101120.550000", "101120.552000", "101120.554000", "101120.556000", "101120.559000", "101120.561000", "101120.564000", "101120.566000", "101120.568000", "101120.571000", "101120.573000", "101120.575000", "101120.578000", "101120.580000", "101120.582000", "101120.585000", "101120.587000", "101200.542000", "101200.545000", "101200.547000", "101200.549000", "101200.552000", "101200.554000", "101200.556000", "101200.559000", "101200.561000", "101200.564000", "101200.566000", "101200.568000", "101200.571000", "101200.573000", "101200.575000", "101200.578000", "101200.580000", "101200.583000", "101200.585000", "101200.587000", "101240.542000", "101240.545000", "101240.547000", "101240.549000", "101240.552000", "101240.554000", "101240.556000", "101240.558000", "101240.561000", "101240.563000", "101240.565000", "101240.575000", "101240.577000", "101240.579000", "101240.582000", "101240.584000", "101240.586000", "101240.589000", "101240.591000", "101240.593000", "101306.990000", "101306.992000", "101306.995000", "101306.997000", "101307.001000", "101307.003000", "101307.006000", "101307.008000", "101307.010000", "101307.013000", "101307.015000", "101307.018000", "101307.028000", "101307.034000"],
      "InstanceCreationTime": ["100720.547000", "100720.550000", "100720.553000", "100720.555000", "100720.557000", "100720.560000", "100720.562000", "100720.571000", "100720.574000", "100720.576000", "100720.578000", "100720.581000", "100720.583000", "100720.593000", "100720.596000", "100720.598000", "100720.600000", "100720.602000", "100720.605000", "100720.607000", "100720.609000", "100720.612000", "100720.614000", "100720.616000", "100720.619000", "100720.621000", "100800.542000", "100800.545000", "100800.547000", "100800.550000", "100800.552000", "100800.554000", "100800.557000", "100800.559000", "100800.561000", "100800.564000", "100800.566000", "100800.568000", "100800.571000", "100800.573000", "100800.575000", "100800.578000", "100800.580000", "100800.583000", "100800.592000", "100800.594000", "100840.542000", "100840.545000", "100840.547000", "100840.550000", "100840.552000", "100840.554000", "100840.556000", "100840.559000", "100840.561000", "100840.563000", "100840.566000", "100840.568000", "100840.570000", "100840.573000", "100840.575000", "100840.578000", "100840.580000", "100840.582000", "100840.585000", "100840.587000", "100920.542000", "100920.545000", "100920.547000", "100920.550000", "100920.552000", "100920.554000", "100920.557000", "100920.559000", "100920.561000", "100920.564000", "100920.566000", "100920.569000", "100920.571000", "100920.573000", "100920.575000", "100920.578000", "100920.580000", "100920.583000", "100920.585000", "100920.587000", "101000.542000", "101000.545000", "101000.547000", "101000.550000", "101000.552000", "101000.554000", "101000.557000", "101000.559000", "101000.561000", "101000.564000", "101000.566000", "101000.568000", "101000.571000", "101000.573000", "101000.575000", "101000.578000", "101000.580000", "101000.582000", "101000.585000", "101000.587000", "101040.542000", "101040.545000", "101040.547000", "101040.550000", "101040.552000", "101040.555000", "101040.557000", "101040.559000", "101040.562000", "101040.564000", "101040.566000", "101040.569000", "101040.571000", "101040.573000", "101040.576000", "101040.578000", "101040.580000", "101040.583000", "101040.585000", "101040.587000", "101120.542000", "101120.545000", "101120.547000", "101120.550000", "101120.552000", "101120.554000", "101120.556000", "101120.559000", "101120.561000", "101120.564000", "101120.566000", "101120.568000", "101120.571000", "101120.573000", "101120.575000", "101120.578000", "101120.580000", "101120.582000", "101120.585000", "101120.587000", "101200.542000", "101200.545000", "101200.547000", "101200.549000", "101200.552000", "101200.554000", "101200.556000", "101200.559000", "101200.561000", "101200.564000", "101200.566000", "101200.568000", "101200.571000", "101200.573000", "101200.575000", "101200.578000", "101200.580000", "101200.583000", "101200.585000", "101200.587000", "101240.542000", "101240.545000", "101240.547000", "101240.549000", "101240.552000", "101240.554000", "101240.556000", "101240.558000", "101240.561000", "101240.563000", "101240.565000", "101240.575000", "101240.577000", "101240.579000", "101240.582000", "101240.584000", "101240.586000", "101240.589000", "101240.591000", "101240.593000", "101306.990000", "101306.992000", "101306.995000", "101306.997000", "101307.001000", "101307.003000", "101307.006000", "101307.008000", "101307.010000", "101307.013000", "101307.015000", "101307.018000", "101307.028000", "101307.034000"],
      "InstanceNumber": [1, 2, 3, 4, 5, 6, 7, 8, 9, 10, 11, 12, 13, 14, 15, 16, 17, 18, 19, 20, 21, 22, 23, 24, 25, 26, 27, 28, 29, 30, 31, 32, 33, 34, 35, 36, 37, 38, 39, 40, 41, 42, 43, 44, 45, 46, 47, 48, 49, 50, 51, 52, 53, 54, 55, 56, 57, 58, 59, 60, 61, 62, 63, 64, 65, 66, 67, 68, 69, 70, 71, 72, 73, 74, 75, 76, 77, 78, 79, 80, 81, 82, 83, 84, 85, 86, 87, 88, 89, 90, 91, 92, 93, 94, 95, 96, 97, 98, 99, 100, 101, 102, 103, 104, 105, 106, 107, 108, 109, 110, 111, 112, 113, 114, 115, 116, 117, 118, 119, 120, 121, 122, 123, 124, 125, 126, 127, 128, 129, 130, 131, 132, 133, 134, 135, 136, 137, 138, 139, 140, 141, 142, 143, 144, 145, 146, 147, 148, 149, 150, 151, 152, 153, 154, 155, 156, 157, 158, 159, 160, 161, 162, 163, 164, 165, 166, 167, 168, 169, 170, 171, 172, 173, 174, 175, 176, 177, 178, 179, 180, 181, 182, 183, 184, 185, 186, 187, 188, 189, 190, 191, 192, 193, 194, 195, 196, 197, 198, 199, 200],
      "LargestImagePixelValue": [705, 708, 707, 706, 705, 704, 707, 707, 704, 703, 708, 705, 709, 707, 707, 709, 705, 706, 706, 705, 704, 705, 705, 707, 703, 704, 705, 704, 708, 704, 704, 704, 708, 704, 704, 702, 703, 705, 703, 704, 705, 704, 708, 704, 706, 706, 704, 705, 707, 704, 704, 704, 705, 704, 703, 701, 704, 704, 707, 703, 705, 701, 706, 709, 704, 701, 704, 704, 703, 704, 703, 702, 705, 703, 702, 704, 703, 705, 704, 706, 704, 701, 703, 705, 706, 704, 704, 703, 705, 705, 706, 701, 703, 705, 701, 704, 700, 703, 704, 704, 705, 704, 701, 705, 704, 703, 702, 701, 701, 702, 701, 705, 703, 705, 705, 704, 706, 703, 708, 706, 707, 701, 703, 703, 703, 704, 702, 704, 703, 705, 705, 704, 703, 704, 703, 707, 702, 701, 701, 703, 706, 701, 700, 702, 705, 704, 704, 704, 701, 705, 705, 701, 703, 700, 704, 702, 705, 701, 700, 704, 701, 703, 699, 702, 701, 706, 704, 702, 701, 704, 702, 702, 703, 701, 705, 705, 703, 702, 699, 703, 705, 705, 704, 701, 703, 701, 704, 704, 702, 701, 702, 704, 701, 702, 702, 704, 704, 701, 703, 701],
      "WindowCenter": [474.0, 474.0, 474.0, 474.0, 474.0, 474.0, 474.0, 474.0, 474.0, 474.0, 474.0, 474.0, 474.0, 474.0, 474.0, 474.0, 474.0, 474.0, 474.0, 473.0, 474.0, 474.0, 474.0, 473.0, 474.0, 474.0, 474.0, 474.0, 474.0, 474.0, 474.0, 473.0, 474.0, 474.0, 473.0, 474.0, 473.0, 474.0, 474.0, 474.0, 473.0, 473.0, 474.0, 474.0, 474.0, 473.0, 474.0, 474.0, 474.0, 473.0, 473.0, 473.0, 473.0, 473.0, 473.0, 473.0, 473.0, 474.0, 473.0, 473.0, 474.0, 473.0, 473.0, 473.0, 473.0, 473.0, 473.0, 473.0, 473.0, 473.0, 473.0, 473.0, 473.0, 473.0, 473.0, 473.0, 473.0, 473.0, 473.0, 473.0, 473.0, 473.0, 473.0, 473.0, 473.0, 473.0, 473.0, 473.0, 473.0, 473.0, 473.0, 473.0, 473.0, 473.0, 473.0, 473.0, 473.0, 473.0, 473.0, 473.0, 473.0, 473.0, 473.0, 473.0, 473.0, 473.0, 473.0, 473.0, 473.0, 473.0, 473.0, 473.0, 473.0, 473.0, 473.0, 473.0, 473.0, 473.0, 473.0, 473.0, 473.0, 473.0, 473.0, 473.0, 473.0, 473.0, 473.0, 473.0, 472.0, 473.0, 473.0, 473.0, 473.0, 473.0, 473.0, 473.0, 473.0, 472.0, 473.0, 472.0, 473.0, 472.0, 472.0, 473.0, 472.0, 472.0, 473.0, 472.0, 473.0, 472.0, 472.0, 472.0, 472.0, 472.0, 472.0, 472.0, 473.0, 473.0, 472.0, 472.0, 472.0, 472.0, 473.0, 472.0, 472.0, 472.0, 472.0, 472.0, 472.0, 472.0, 472.0, 472.0, 472.0, 472.0, 472.0, 473.0, 472.0, 472.0, 472.0, 472.0, 472.0, 472.0, 472.0, 472.0, 472.0, 472.0, 472.0, 472.0, 472.0, 472.0, 472.0, 472.0, 472.0, 472.0, 472.0, 472.0, 472.0, 472.0, 472.0, 472.0],
      "WindowWidth": [982.0, 982.0, 982.0, 982.0, 982.0, 982.0, 982.0, 982.0, 982.0, 982.0, 982.0, 982.0, 982.0, 982.0, 982.0, 982.0, 982.0, 982.0, 982.0, 981.0, 982.0, 982.0, 982.0, 981.0, 982.0, 982.0, 982.0, 982.0, 982.0, 982.0, 982.0, 981.0, 982.0, 982.0, 981.0, 982.0, 981.0, 982.0, 982.0, 982.0, 981.0, 981.0, 982.0, 982.0, 982.0, 981.0, 982.0, 982.0, 982.0, 981.0, 981.0, 981.0, 981.0, 981.0, 981.0, 981.0, 981.0, 981.0, 981.0, 981.0, 981.0, 981.0, 981.0, 981.0, 981.0, 981.0, 981.0, 981.0, 981.0, 981.0, 981.0, 981.0, 981.0, 981.0, 981.0, 981.0, 981.0, 981.0, 981.0, 981.0, 981.0, 981.0, 981.0, 981.0, 981.0, 981.0, 981.0, 981.0, 981.0, 981.0, 981.0, 980.0, 980.0, 980.0, 981.0, 981.0, 980.0, 980.0, 980.0, 981.0, 981.0, 980.0, 980.0, 980.0, 980.0, 980.0, 980.0, 980.0, 980.0, 980.0, 980.0, 980.0, 980.0, 980.0, 980.0, 980.0, 980.0, 980.0, 980.0, 980.0, 980.0, 980.0, 980.0, 980.0, 980.0, 980.0, 980.0, 980.0, 979.0, 980.0, 980.0, 980.0, 980.0, 980.0, 980.0, 980.0, 980.0, 979.0, 980.0, 979.0, 980.0, 979.0, 979.0, 980.0, 979.0, 980.0, 980.0, 979.0, 980.0, 979.0, 979.0, 979.0, 979.0, 979.0, 979.0, 979.0, 980.0, 980.0, 979.0, 979.0, 979.0, 979.0, 980.0, 979.0, 979.0, 979.0, 979.0, 979.0, 979.0, 979.0, 979.0, 979.0, 979.0, 979.0, 979.0, 980.0, 979.0, 979.0, 979.0, 979.0, 979.0, 979.0, 979.0, 979.0, 979.0, 979.0, 979.0, 979.0, 979.0, 979.0, 979.0, 979.0, 979.0, 979.0, 979.0, 979.0, 979.0, 979.0, 979.0, 979.0]
    },
    "slices": {}
  }
}