{
  "AcquisitionMatrixPE": 80,
  "AcquisitionNumber": 1,
  "AcquisitionTime": "09:10:40.525000",
  "BandwidthPerPixelPhaseEncode": 25,
  "BaseResolution": 80,
  "BodyPartExamined": "BRAIN",
  "CoilCombinationMethod": "Sum of Squares",
  "ConsistencyInfo": "N4_VE11C_LATEST_20160120",
  "ConversionSoftware": "dcm2niix",
  "ConversionSoftwareVersion": "v1.0.20220720",
  "DerivedVendorReportedEchoSpacing": 0.0005,
  "DeviceSerialNumber": "66112",
  "DwellTime": 2.7e-06,
  "EchoTime": 0.03,
  "EchoTrainLength": 80,
  "EffectiveEchoSpacing": 0.0005,
  "FlipAngle": 77,
  "HeudiconvVersion": "0.13.1",
  "ImageOrientationPatientDICOM": [0.999943, 0.0102693, 0.00283718, -0.0106463, 0.952956, 0.302921],
  "ImageOrientationText": "Tra>Cor(17.6)>Sag(-0.0)",
  "ImageType": [
    "ORIGINAL",
    "PRIMARY",
    "M",
    "ND",
    "NORM",
    "MOSAIC"
],
  "ImagingFrequency": 123.252,
  "InPlanePhaseEncodingDirectionDICOM": "COL",
  "InstitutionAddress": "Maynard 3,Hanover,NH,US,03755",
  "InstitutionName": "Dartmouth College - PBS",
  "InstitutionalDepartmentName": "Department",
  "MRAcquisitionType": "2D",
  "MagneticFieldStrength": 3,
  "Manufacturer": "Siemens",
  "ManufacturersModelName": "Prisma",
  "MatrixCoilMode": "SENSE",
  "Modality": "MR",
  "NonlinearGradientCorrection": false,
  "PartialFourier": 1,
  "PatientPosition": "HFS",
  "PercentPhaseFOV": 100,
  "PercentSampling": 100,
  "PhaseEncodingDirection": "j-",
  "PhaseEncodingSteps": 80,
  "PhaseResolution": 1,
  "PixelBandwidth": 2315,
  "ProcedureStepDescription": "dbic^QA",
  "ProtocolName": "func-bold_fa-77",
  "PulseSequenceDetails": "%SiemensSeq%\\ep2d_bold",
  "ReceiveCoilActiveElements": "HC1-7;NC1,2",
  "ReceiveCoilName": "HeadNeck_64",
  "ReconMatrixPE": 80,
  "RepetitionTime": 2,
  "SAR": 0.0321814,
  "ScanOptions": "FS",
  "ScanningSequence": "EP",
  "SequenceName": "*epfid2d1_80",
  "SequenceVariant": "SK",
  "SeriesDescription": "func-bold_fa-77",
  "SeriesNumber": 7,
  "ShimSetting": [4139, -7715, -7515, 168, -85, -200, -61, 110],
  "SliceThickness": 3.5,
  "SliceTiming": [0.99, 0, 1.055, 0.065, 1.12, 0.13, 1.1875, 0.1975, 1.2525, 0.2625, 1.32, 0.33, 1.385, 0.395, 1.45, 0.46, 1.5175, 0.5275, 1.5825, 0.5925, 1.65, 0.66, 1.715, 0.725, 1.78, 0.79, 1.8475, 0.8575, 1.9125, 0.9225],
  "SoftwareVersions": "syngo MR E11",
  "SpacingBetweenSlices": 3.99,
  "StationName": "AWP66112",
  "TotalReadoutTime": 0.0395,
  "TxRefAmp": 211.055,
  "dcmmeta_affine": [
    [-2.9998297691345215, -0.03193875402212143, -0.001624224940314889, 121.01118469238281],
    [-0.03080793283879757, 2.8588688373565674, 1.2087054252624512, -115.26380157470703],
    [0.008511552587151527, -0.9087619781494141, 3.802516222000122, -25.24198341369629],
    [0.0, 0.0, 0.0, 1.0]
],
  "dcmmeta_reorient_transform": [
    [0.0, -1.0, 0.0, 79.0],
    [1.0, 0.0, 0.0, 0.0],
    [0.0, 0.0, 1.0, 0.0],
    [0.0, 0.0, 0.0, 1.0]
],
  "dcmmeta_shape": [80, 80, 30, 200],
  "dcmmeta_slice_dim": 2,
  "dcmmeta_version": 0.6,
  "global": {
    "const": {
      "AccessionNumber": "qa64",
      "AcquisitionMatrix": [80, 0, 0, 80],
      "AngioFlag": "N",
      "BitsAllocated": 16,
      "BitsStored": 12,
      "BodyPartExamined": "BRAIN",
      "Columns": 480,
      "EchoNumbers": 1,
      "EchoTime": 30.0,
      "EchoTrainLength": 80,
      "FlipAngle": 77.0,
      "HighBit": 11,
      "ImageOrientationPatient": [0.99994324420636, 0.01026931116294, 0.00283718421947, -0.0106462508366, 0.95295631070418, 0.30292066161325],
      "ImagePositionPatient": [-712.06621961646, -688.52221409412, -280.48888783012],
      "ImageType": [
        "ORIGINAL",
        "PRIMARY",
        "M",
        "ND",
        "NORM",
        "MOSAIC"
],
      "ImagedNucleus": "1H",
      "ImagingFrequency": 123.252352,
      "InPlanePhaseEncodingDirection": "COL",
      "MRAcquisitionType": "2D",
      "MagneticFieldStrength": 3.0,
      "Manufacturer": "SIEMENS",
      "ManufacturerModelName": "Prisma",
      "Modality": "MR",
      "NumberOfAverages": 1.0,
      "NumberOfPhaseEncodingSteps": 80,
      "PercentPhaseFieldOfView": 100.0,
      "PercentSampling": 100.0,
      "PerformedProcedureStepStartTime": "085327.483000",
      "PhotometricInterpretation": "MONOCHROME2",
      "PixelBandwidth": 2315.0,
      "PixelRepresentation": 0,
      "PixelSpacing": [3.0, 3.0],
      "ProtocolName": "func-bold_fa-77",
      "RepetitionTime": 2000.0,
      "Rows": 480,
      "SAR": 0.03218144619031,
      "SamplesPerPixel": 1,
      "ScanOptions": "FS",
      "ScanningSequence": "EP",
      "SequenceName": "*epfid2d1_80",
      "SequenceVariant": "SK",
      "SeriesDescription": "func-bold_fa-77",
      "SeriesNumber": 7,
      "SeriesTime": "091122.397000",
      "SliceLocation": -59.022450342574,
      "SliceThickness": 3.5,
      "SmallestImagePixelValue": 0,
      "SoftwareVersions": "syngo MR E11",
      "SpacingBetweenSlices": 3.9900000376486,
      "SpecificCharacterSet": "ISO_IR 100",
      "StudyID": "51",
      "StudyTime": "085327.411000",
      "TransmitCoilName": "Body",
      "VariableFlipAngleFlag": "N",
      "WindowCenterWidthExplanation": "Algo1",
      "dBdt": 0.0},
    "slices": {}
  },
  "time": {
    "samples": {
      "AcquisitionNumber": [1, 2, 3, 4, 5, 6, 7, 8, 9, 10, 11, 12, 13, 14, 15, 16, 17, 18, 19, 20, 21, 22, 23, 24, 25, 26, 27, 28, 29, 30, 31, 32, 33, 34, 35, 36, 37, 38, 39, 40, 41, 42, 43, 44, 45, 46, 47, 48, 49, 50, 51, 52, 53, 54, 55, 56, 57, 58, 59, 60, 61, 62, 63, 64, 65, 66, 67, 68, 69, 70, 71, 72, 73, 74, 75, 76, 77, 78, 79, 80, 81, 82, 83, 84, 85, 86, 87, 88, 89, 90, 91, 92, 93, 94, 95, 96, 97, 98, 99, 100, 101, 102, 103, 104, 105, 106, 107, 108, 109, 110, 111, 112, 113, 114, 115, 116, 117, 118, 119, 120, 121, 122, 123, 124, 125, 126, 127, 128, 129, 130, 131, 132, 133, 134, 135, 136, 137, 138, 139, 140, 141, 142, 143, 144, 145, 146, 147, 148, 149, 150, 151, 152, 153, 154, 155, 156, 157, 158, 159, 160, 161, 162, 163, 164, 165, 166, 167, 168, 169, 170, 171, 172, 173, 174, 175, 176, 177, 178, 179, 180, 181, 182, 183, 184, 185, 186, 187, 188, 189, 190, 191, 192, 193, 194, 195, 196, 197, 198, 199, 200],
      "AcquisitionTime": ["091040.525000", "091042.525000", "091044.525000", "091046.525000", "091048.525000", "091050.525000", "091052.525000", "091054.525000", "091056.525000", "091058.525000", "091100.525000", "091102.525000", "091104.525000", "091106.525000", "091108.525000", "091110.525000", "091112.525000", "091114.525000", "091116.525000", "091118.525000", "091120.525000", "091122.525000", "091124.525000", "091126.525000", "091128.525000", "091130.525000", "091132.525000", "091134.525000", "091136.525000", "091138.525000", "091140.525000", "091142.525000", "091144.525000", "091146.525000", "091148.525000", "091150.525000", "091152.525000", "091154.525000", "091156.525000", "091158.525000", "091200.525000", "091202.525000", "091204.525000", "091206.525000", "091208.525000", "091210.525000", "091212.525000", "091214.525000", "091216.525000", "091218.525000", "091220.525000", "091222.525000", "091224.525000", "091226.525000", "091228.525000", "091230.525000", "091232.525000", "091234.525000", "091236.525000", "091238.525000", "091240.525000", "091242.525000", "091244.525000", "091246.525000", "091248.525000", "091250.525000", "091252.525000", "091254.525000", "091256.525000", "091258.525000", "091300.525000", "091302.525000", "091304.525000", "091306.525000", "091308.525000", "091310.525000", "091312.525000", "091314.525000", "091316.525000", "091318.525000", "091320.525000", "091322.525000", "091324.525000", "091326.525000", "091328.525000", "091330.525000", "091332.525000", "091334.525000", "091336.525000", "091338.525000", "091340.525000", "091342.525000", "091344.525000", "091346.525000", "091348.525000", "091350.525000", "091352.525000", "091354.525000", "091356.525000", "091358.525000", "091400.525000", "091402.525000", "091404.525000", "091406.525000", "091408.525000", "091410.525000", "091412.525000", "091414.525000", "091416.525000", "091418.525000", "091420.525000", "091422.525000", "091424.525000", "091426.525000", "091428.525000", "091430.525000", "091432.525000", "091434.525000", "091436.525000", "091438.525000", "091440.525000", "091442.525000", "091444.525000", "091446.525000", "091448.525000", "091450.525000", "091452.525000", "091454.525000", "091456.525000", "091458.525000", "091500.525000", "091502.525000", "091504.525000", "091506.525000", "091508.525000", "091510.525000", "091512.525000", "091514.525000", "091516.525000", "091518.525000", "091520.525000", "091522.525000", "091524.525000", "091526.525000", "091528.525000", "091530.525000", "091532.525000", "091534.525000", "091536.525000", "091538.525000", "091540.525000", "091542.525000", "091544.525000", "091546.525000", "091548.525000", "091550.525000", "091552.525000", "091554.525000", "091556.525000", "091558.525000", "091600.525000", "091602.525000", "091604.525000", "091606.525000", "091608.525000", "091610.525000", "091612.525000", "091614.525000", "091616.525000", "091618.525000", "091620.525000", "091622.525000", "091624.525000", "091626.525000", "091628.525000", "091630.525000", "091632.525000", "091634.525000", "091636.525000", "091638.525000", "091640.525000", "091642.525000", "091644.525000", "091646.525000", "091648.525000", "091650.525000", "091652.525000", "091654.525000", "091656.525000", "091658.525000", "091700.525000", "091702.525000", "091704.525000", "091706.525000", "091708.525000", "091710.525000", "091712.525000", "091714.525000", "091716.525000", "091718.525000"],
      "ContentTime": ["091122.400000", "091122.406000", "091122.408000", "091122.411000", "091122.413000", "091122.416000", "091122.419000", "091122.421000", "091122.424000", "091122.426000", "091122.429000", "091122.431000", "091122.434000", "091122.437000", "091122.439000", "091122.442000", "091122.444000", "091122.447000", "091122.449000", "091122.452000", "091122.455000", "091202.383000", "091202.386000", "091202.389000", "091202.391000", "091202.394000", "091202.397000", "091202.399000", "091202.402000", "091202.412000", "091202.415000", "091202.417000", "091202.420000", "091202.423000", "091202.425000", "091202.428000", "091202.430000", "091202.433000", "091202.435000", "091202.438000", "091202.440000", "091242.383000", "091242.387000", "091242.389000", "091242.392000", "091242.394000", "091242.397000", "091242.400000", "091242.402000", "091242.405000", "091242.407000", "091242.410000", "091242.412000", "091242.415000", "091242.418000", "091242.420000", "091242.423000", "091242.425000", "091242.428000", "091242.430000", "091242.433000", "091322.384000", "091322.388000", "091322.390000", "091322.393000", "091322.395000", "091322.398000", "091322.401000", "091322.403000", "091322.406000", "091322.408000", "091322.411000", "091322.414000", "091322.416000", "091322.419000", "091322.421000", "091322.424000", "091322.426000", "091322.429000", "091322.432000", "091322.434000", "091402.384000", "091402.387000", "091402.390000", "091402.393000", "091402.395000", "091402.398000", "091402.400000", "091402.403000", "091402.406000", "091402.408000", "091402.411000", "091402.414000", "091402.416000", "091402.419000", "091402.421000", "091402.424000", "091402.427000", "091402.429000", "091402.432000", "091402.434000", "091442.383000", "091442.386000", "091442.389000", "091442.392000", "091442.394000", "091442.397000", "091442.399000", "091442.402000", "091442.405000", "091442.407000", "091442.410000", "091442.412000", "091442.415000", "091442.417000", "091442.420000", "091442.423000", "091442.425000", "091442.428000", "091442.430000", "091442.433000", "091522.383000", "091522.386000", "091522.389000", "091522.392000", "091522.394000", "091522.397000", "091522.399000", "091522.402000", "091522.405000", "091522.407000", "091522.410000", "091522.412000", "091522.415000", "091522.417000", "091522.420000", "091522.423000", "091522.425000", "091522.428000", "091522.430000", "091522.433000", "091602.385000", "091602.388000", "091602.390000", "091602.393000", "091602.395000", "091602.398000", "091602.400000", "091602.403000", "091602.406000", "091602.408000", "091602.415000", "091602.417000", "091602.420000", "091602.423000", "091602.425000", "091602.428000", "091602.430000", "091602.433000", "091602.436000", "091602.438000", "091642.383000", "091642.386000", "091642.389000", "091642.392000", "091642.394000", "091642.397000", "091642.399000", "091642.402000", "091642.405000", "091642.407000", "091642.410000", "091642.412000", "091642.415000", "091642.417000", "091642.420000", "091642.423000", "091642.425000", "091642.428000", "091642.430000", "091642.433000", "091719.909000", "091719.912000", "091719.915000", "091719.918000", "091719.920000", "091719.923000", "091719.925000", "091719.928000", "091719.931000", "091719.933000", "091719.936000", "091719.939000", "091719.946000", "091719.949000", "091719.952000", "091719.955000", "091719.958000", "091719.961000", "091719.967000"],
      "InstanceCreationTime": ["091122.400000", "091122.406000", "091122.408000", "091122.411000", "091122.413000", "091122.416000", "091122.419000", "091122.421000", "091122.424000", "091122.426000", "091122.429000", "091122.431000", "091122.434000", "091122.437000", "091122.439000", "091122.442000", "091122.444000", "091122.447000", "091122.449000", "091122.452000", "091122.455000", "091202.383000", "091202.386000", "091202.389000", "091202.391000", "091202.394000", "091202.397000", "091202.399000", "091202.402000", "091202.412000", "091202.415000", "091202.417000", "091202.420000", "091202.423000", "091202.425000", "091202.428000", "091202.430000", "091202.433000", "091202.435000", "091202.438000", "091202.440000", "091242.383000", "091242.387000", "091242.389000", "091242.392000", "091242.394000", "091242.397000", "091242.400000", "091242.402000", "091242.405000", "091242.407000", "091242.410000", "091242.412000", "091242.415000", "091242.418000", "091242.420000", "091242.423000", "091242.425000", "091242.428000", "091242.430000", "091242.433000", "091322.384000", "091322.388000", "091322.390000", "091322.393000", "091322.395000", "091322.398000", "091322.401000", "091322.403000", "091322.406000", "091322.408000", "091322.411000", "091322.414000", "091322.416000", "091322.419000", "091322.421000", "091322.424000", "091322.426000", "091322.429000", "091322.432000", "091322.434000", "091402.384000", "091402.387000", "091402.390000", "091402.393000", "091402.395000", "091402.398000", "091402.400000", "091402.403000", "091402.406000", "091402.408000", "091402.411000", "091402.414000", "091402.416000", "091402.419000", "091402.421000", "091402.424000", "091402.427000", "091402.429000", "091402.432000", "091402.434000", "091442.383000", "091442.386000", "091442.389000", "091442.392000", "091442.394000", "091442.397000", "091442.399000", "091442.402000", "091442.405000", "091442.407000", "091442.410000", "091442.412000", "091442.415000", "091442.417000", "091442.420000", "091442.423000", "091442.425000", "091442.428000", "091442.430000", "091442.433000", "091522.383000", "091522.386000", "091522.389000", "091522.392000", "091522.394000", "091522.397000", "091522.399000", "091522.402000", "091522.405000", "091522.407000", "091522.410000", "091522.412000", "091522.415000", "091522.417000", "091522.420000", "091522.423000", "091522.425000", "091522.428000", "091522.430000", "091522.433000", "091602.385000", "091602.388000", "091602.390000", "091602.393000", "091602.395000", "091602.398000", "091602.400000", "091602.403000", "091602.406000", "091602.408000", "091602.415000", "091602.417000", "091602.420000", "091602.423000", "091602.425000", "091602.428000", "091602.430000", "091602.433000", "091602.436000", "091602.438000", "091642.383000", "091642.386000", "091642.389000", "091642.392000", "091642.394000", "091642.397000", "091642.399000", "091642.402000", "091642.405000", "091642.407000", "091642.410000", "091642.412000", "091642.415000", "091642.417000", "091642.420000", "091642.423000", "091642.425000", "091642.428000", "091642.430000", "091642.433000", "091719.909000", "091719.912000", "091719.915000", "091719.918000", "091719.920000", "091719.923000", "091719.925000", "091719.928000", "091719.931000", "091719.933000", "091719.936000", "091719.939000", "091719.946000", "091719.949000", "091719.952000", "091719.955000", "091719.958000", "091719.961000", "091719.967000"],
      "InstanceNumber": [1, 2, 3, 4, 5, 6, 7, 8, 9, 10, 11, 12, 13, 14, 15, 16, 17, 18, 19, 20, 21, 22, 23, 24, 25, 26, 27, 28, 29, 30, 31, 32, 33, 34, 35, 36, 37, 38, 39, 40, 41, 42, 43, 44, 45, 46, 47, 48, 49, 50, 51, 52, 53, 54, 55, 56, 57, 58, 59, 60, 61, 62, 63, 64, 65, 66, 67, 68, 69, 70, 71, 72, 73, 74, 75, 76, 77, 78, 79, 80, 81, 82, 83, 84, 85, 86, 87, 88, 89, 90, 91, 92, 93, 94, 95, 96, 97, 98, 99, 100, 101, 102, 103, 104, 105, 106, 107, 108, 109, 110, 111, 112, 113, 114, 115, 116, 117, 118, 119, 120, 121, 122, 123, 124, 125, 126, 127, 128, 129, 130, 131, 132, 133, 134, 135, 136, 137, 138, 139, 140, 141, 142, 143, 144, 145, 146, 147, 148, 149, 150, 151, 152, 153, 154, 155, 156, 157, 158, 159, 160, 161, 162, 163, 164, 165, 166, 167, 168, 169, 170, 171, 172, 173, 174, 175, 176, 177, 178, 179, 180, 181, 182, 183, 184, 185, 186, 187, 188, 189, 190, 191, 192, 193, 194, 195, 196, 197, 198, 199, 200],
      "LargestImagePixelValue": [3569, 3568, 3570, 3571, 3569, 3567, 3569, 3567, 3567, 3569, 3564, 3567, 3568, 3564, 3570, 3569, 3569, 3567, 3573, 3571, 3569, 3568, 3565, 3565, 3568, 3565, 3562, 3566, 3564, 3568, 3564, 3565, 3568, 3567, 3565, 3562, 3564, 3567, 3564, 3568, 3566, 3567, 3565, 3569, 3568, 3566, 3566, 3564, 3566, 3562, 3567, 3568, 3567, 3562, 3568, 3566, 3567, 3564, 3562, 3565, 3566, 3565, 3564, 3566, 3562, 3565, 3566, 3565, 3566, 3567, 3571, 3567, 3569, 3564, 3563, 3566, 3565, 3563, 3562, 3568, 3561, 3565, 3559, 3565, 3565, 3565, 3564, 3568, 3564, 3566, 3566, 3562, 3564, 3565, 3563, 3561, 3562, 3563, 3561, 3566, 3564, 3562, 3564, 3563, 3565, 3563, 3563, 3566, 3564, 3561, 3562, 3561, 3565, 3566, 3567, 3564, 3564, 3559, 3560, 3556, 3561, 3556, 3559, 3564, 3560, 3560, 3562, 3559, 3561, 3562, 3560, 3561, 3561, 3560, 3563, 3562, 3562, 3561, 3561, 3563, 3559, 3562, 3562, 3561, 3559, 3562, 3561, 3557, 3559, 3556, 3564, 3562, 3563, 3564, 3560, 3560, 3555, 3562, 3558, 3555, 3554, 3556, 3556, 3556, 3557, 3559, 3557, 3560, 3561, 3558, 3556, 3554, 3556, 3560, 3562, 3562, 3564, 3558, 3553, 3556, 3550, 3555, 3551, 3555, 3556, 3552, 3558, 3555, 3555, 3555, 3555, 3558, 3556, 3557, 3556, 3556, 3556, 3558, 3558, 3558],
      "WindowCenter": [1330.0, 1331.0, 1330.0, 1330.0, 1331.0, 1330.0, 1330.0, 1330.0, 1330.0, 1330.0, 1330.0, 1330.0, 1330.0, 1331.0, 1330.0, 1330.0, 1329.0, 1329.0, 1330.0, 1330.0, 1330.0, 1330.0, 1330.0, 1330.0, 1330.0, 1330.0, 1330.0, 1330.0, 1329.0, 1329.0, 1329.0, 1330.0, 1329.0, 1330.0, 1329.0, 1329.0, 1329.0, 1329.0, 1328.0, 1329.0, 1329.0, 1329.0, 1329.0, 1329.0, 1329.0, 1329.0, 1328.0, 1329.0, 1329.0, 1328.0, 1328.0, 1328.0, 1329.0, 1329.0, 1329.0, 1329.0, 1328.0, 1329.0, 1328.0, 1328.0, 1328.0, 1328.0, 1329.0, 1328.0, 1328.0, 1328.0, 1328.0, 1328.0, 1328.0, 1328.0, 1328.0, 1328.0, 1328.0, 1328.0, 1328.0, 1328.0, 1328.0, 1328.0, 1328.0, 1329.0, 1327.0, 1328.0, 1328.0, 1328.0, 1328.0, 1328.0, 1328.0, 1328.0, 1328.0, 1328.0, 1328.0, 1328.0, 1328.0, 1328.0, 1328.0, 1328.0, 1328.0, 1328.0, 1327.0, 1327.0, 1327.0, 1327.0, 1328.0, 1327.0, 1327.0, 1327.0, 1327.0, 1328.0, 1327.0, 1327.0, 1327.0, 1328.0, 1327.0, 1328.0, 1327.0, 1327.0, 1328.0, 1327.0, 1327.0, 1327.0, 1327.0, 1327.0, 1327.0, 1327.0, 1327.0, 1326.0, 1327.0, 1327.0, 1327.0, 1327.0, 1327.0, 1327.0, 1327.0, 1327.0, 1327.0, 1327.0, 1327.0, 1327.0, 1327.0, 1327.0, 1327.0, 1327.0, 1327.0, 1326.0, 1326.0, 1326.0, 1326.0, 1326.0, 1326.0, 1327.0, 1327.0, 1326.0, 1326.0, 1327.0, 1327.0, 1326.0, 1326.0, 1326.0, 1326.0, 1326.0, 1326.0, 1326.0, 1326.0, 1326.0, 1326.0, 1326.0, 1326.0, 1326.0, 1326.0, 1326.0, 1326.0, 1326.0, 1326.0, 1326.0, 1326.0, 1326.0, 1326.0, 1326.0, 1326.0, 1326.0, 1326.0, 1326.0, 1325.0, 1325.0, 1326.0, 1325.0, 1326.0, 1326.0, 1326.0, 1326.0, 1326.0, 1325.0, 1326.0, 1326.0, 1326.0, 1326.0, 1326.0, 1326.0, 1325.0, 1325.0],
      "WindowWidth": [3193.0, 3193.0, 3193.0, 3193.0, 3193.0, 3193.0, 3193.0, 3193.0, 3193.0, 3193.0, 3193.0, 3193.0, 3193.0, 3193.0, 3193.0, 3193.0, 3193.0, 3193.0, 3192.0, 3192.0, 3192.0, 3192.0, 3192.0, 3192.0, 3192.0, 3192.0, 3192.0, 3192.0, 3192.0, 3192.0, 3192.0, 3192.0, 3193.0, 3192.0, 3192.0, 3192.0, 3192.0, 3192.0, 3192.0, 3191.0, 3191.0, 3191.0, 3191.0, 3191.0, 3191.0, 3191.0, 3192.0, 3191.0, 3191.0, 3191.0, 3191.0, 3191.0, 3191.0, 3192.0, 3191.0, 3191.0, 3191.0, 3191.0, 3191.0, 3191.0, 3191.0, 3191.0, 3191.0, 3191.0, 3191.0, 3191.0, 3191.0, 3191.0, 3191.0, 3191.0, 3191.0, 3191.0, 3191.0, 3191.0, 3191.0, 3191.0, 3191.0, 3191.0, 3191.0, 3190.0, 3191.0, 3190.0, 3191.0, 3190.0, 3190.0, 3190.0, 3190.0, 3190.0, 3190.0, 3190.0, 3190.0, 3190.0, 3190.0, 3190.0, 3190.0, 3190.0, 3190.0, 3190.0, 3191.0, 3190.0, 3190.0, 3190.0, 3190.0, 3190.0, 3190.0, 3190.0, 3190.0, 3190.0, 3190.0, 3190.0, 3190.0, 3189.0, 3190.0, 3189.0, 3190.0, 3189.0, 3189.0, 3189.0, 3189.0, 3189.0, 3189.0, 3190.0, 3189.0, 3189.0, 3189.0, 3190.0, 3189.0, 3189.0, 3189.0, 3189.0, 3189.0, 3189.0, 3189.0, 3189.0, 3189.0, 3189.0, 3189.0, 3189.0, 3189.0, 3189.0, 3189.0, 3189.0, 3189.0, 3189.0, 3189.0, 3189.0, 3189.0, 3189.0, 3189.0, 3189.0, 3189.0, 3189.0, 3189.0, 3188.0, 3188.0, 3189.0, 3189.0, 3188.0, 3188.0, 3188.0, 3188.0, 3188.0, 3188.0, 3188.0, 3188.0, 3188.0, 3188.0, 3188.0, 3188.0, 3188.0, 3188.0, 3188.0, 3188.0, 3188.0, 3188.0, 3188.0, 3188.0, 3188.0, 3188.0, 3188.0, 3188.0, 3188.0, 3188.0, 3188.0, 3188.0, 3188.0, 3187.0, 3187.0, 3187.0, 3187.0, 3187.0, 3188.0, 3187.0, 3187.0, 3187.0, 3187.0, 3187.0, 3187.0, 3187.0, 3187.0]
    },
    "slices": {}
  }
}