{
  "AcquisitionMatrixPE": 80,
  "AcquisitionNumber": 1,
  "AcquisitionTime": "09:03:51.837500",
  "BandwidthPerPixelPhaseEncode": 48.077,
  "BaseResolution": 80,
  "BodyPartExamined": "BRAIN",
  "CoilCombinationMethod": "Sum of Squares",
  "ConsistencyInfo": "N4_VE11C_LATEST_20160120",
  "ConversionSoftware": "dcm2niix",
  "ConversionSoftwareVersion": "v1.0.20220720",
  "DerivedVendorReportedEchoSpacing": 0.000519999,
  "DeviceSerialNumber": "66112",
  "DwellTime": 2.7e-06,
  "EchoTime": 0.035,
  "EchoTrainLength": 39,
  "EffectiveEchoSpacing": 0.00026,
  "FlipAngle": 90,
  "HeudiconvVersion": "0.13.1",
  "ImageOrientationPatientDICOM": [0.999945, 0.0101031, 0.00278432, -0.0104718, 0.952958, 0.302921],
  "ImageOrientationText": "Tra>Cor(17.6)>Sag(-0.0)",
  "ImageType": [
    "ORIGINAL",
    "PRIMARY",
    "M",
    "ND",
    "NORM",
    "MOSAIC"
],
  "ImagingFrequency": 123.252,
  "InPlanePhaseEncodingDirectionDICOM": "COL",
  "InstitutionAddress": "Maynard 3,Hanover,NH,US,03755",
  "InstitutionName": "Dartmouth College - PBS",
  "InstitutionalDepartmentName": "Department",
  "MRAcquisitionType": "2D",
  "MagneticFieldStrength": 3,
  "Manufacturer": "Siemens",
  "ManufacturersModelName": "Prisma",
  "MatrixCoilMode": "GRAPPA",
  "Modality": "MR",
  "NonlinearGradientCorrection": false,
  "ParallelReductionFactorInPlane": 2,
  "PartialFourier": 1,
  "PatientPosition": "HFS",
  "PercentPhaseFOV": 100,
  "PercentSampling": 100,
  "PhaseEncodingDirection": "j-",
  "PhaseEncodingSteps": 79,
  "PhaseResolution": 1,
  "PixelBandwidth": 2315,
  "ProcedureStepDescription": "dbic^QA",
  "ProtocolName": "func-bold_task-rest_acq-p2",
  "PulseSequenceDetails": "%SiemensSeq%\\ep2d_bold",
  "ReceiveCoilActiveElements": "HC1-7;NC1,2",
  "ReceiveCoilName": "HeadNeck_64",
  "ReconMatrixPE": 80,
  "RefLinesPE": 24,
  "RepetitionTime": 2,
  "SAR": 0.0409511,
  "ScanOptions": "FS",
  "ScanningSequence": "EP",
  "SequenceName": "*epfid2d1_80",
  "SequenceVariant": "SK",
  "SeriesDescription": "func-bold_task-rest_acq-p2",
  "SeriesNumber": 5,
  "ShimSetting": [4139, -7715, -7515, 169, -87, -200, -62, 111],
  "SliceThickness": 3.5,
  "SliceTiming": [0.99, 0, 1.0575, 0.0675, 1.1225, 0.1325, 1.1875, 0.1975, 1.255, 0.265, 1.32, 0.33, 1.3875, 0.3975, 1.4525, 0.4625, 1.5175, 0.5275, 1.585, 0.595, 1.65, 0.66, 1.7175, 0.7275, 1.7825, 0.7925, 1.8475, 0.8575, 1.915, 0.925],
  "SoftwareVersions": "syngo MR E11",
  "SpacingBetweenSlices": 3.99,
  "StationName": "AWP66112",
  "TaskName": "rest",
  "TotalReadoutTime": 0.02054,
  "TxRefAmp": 211.055,
  "dcmmeta_affine": [
    [-2.999835252761841, -0.031415436416864395, -0.0016243231948465109, 122.9316177368164],
    [-0.030309230089187622, 2.8588743209838867, 1.2087053060531616, -117.48242950439453],
    [0.00835295021533966, -0.9087634682655334, 3.802516222000122, -25.877317428588867],
    [0.0, 0.0, 0.0, 1.0]
],
  "dcmmeta_reorient_transform": [
    [0.0, -1.0, 0.0, 79.0],
    [1.0, 0.0, 0.0, 0.0],
    [0.0, 0.0, 1.0, 0.0],
    [0.0, 0.0, 0.0, 1.0]
],
  "dcmmeta_shape": [80, 80, 30, 200],
  "dcmmeta_slice_dim": 2,
  "dcmmeta_version": 0.6,
  "global": {
    "const": {
      "AccessionNumber": "qa64",
      "AcquisitionMatrix": [80, 0, 0, 80],
      "AngioFlag": "N",
      "BitsAllocated": 16,
      "BitsStored": 12,
      "BodyPartExamined": "BRAIN",
      "Columns": 480,
      "EchoNumbers": 1,
      "EchoTime": 35.0,
      "EchoTrainLength": 39,
      "FlipAngle": 90.0,
      "HighBit": 11,
      "ImageOrientationPatient": [0.99994508620165, 0.01010307684301, 0.00278431669732, -0.0104718122572, 0.95295808838502, 0.30292114969018],
      "ImagePositionPatient": [-714.13376635907, -686.20533805933, -281.09290970647],
      "ImageType": [
        "ORIGINAL",
        "PRIMARY",
        "M",
        "ND",
        "NORM",
        "MOSAIC"
],
      "ImagedNucleus": "1H",
      "ImagingFrequency": 123.252355,
      "InPlanePhaseEncodingDirection": "COL",
      "MRAcquisitionType": "2D",
      "MagneticFieldStrength": 3.0,
      "Manufacturer": "SIEMENS",
      "ManufacturerModelName": "Prisma",
      "Modality": "MR",
      "NumberOfAverages": 1.0,
      "NumberOfPhaseEncodingSteps": 79,
      "PercentPhaseFieldOfView": 100.0,
      "PercentSampling": 100.0,
      "PerformedProcedureStepStartTime": "085327.483000",
      "PhotometricInterpretation": "MONOCHROME2",
      "PixelBandwidth": 2315.0,
      "PixelRepresentation": 0,
      "PixelSpacing": [3.0, 3.0],
      "ProtocolName": "func-bold_task-rest_acq-p2",
      "RepetitionTime": 2000.0,
      "Rows": 480,
      "SAR": 0.04095113837849,
      "SamplesPerPixel": 1,
      "ScanOptions": "FS",
      "ScanningSequence": "EP",
      "SequenceName": "*epfid2d1_80",
      "SequenceVariant": "SK",
      "SeriesDescription": "func-bold_task-rest_acq-p2",
      "SeriesNumber": 5,
      "SeriesTime": "090442.316000",
      "SliceLocation": -60.300811099288,
      "SliceThickness": 3.5,
      "SmallestImagePixelValue": 0,
      "SoftwareVersions": "syngo MR E11",
      "SpacingBetweenSlices": 3.9900000376488,
      "SpecificCharacterSet": "ISO_IR 100",
      "StudyID": "51",
      "StudyTime": "085327.411000",
      "TransmitCoilName": "Body",
      "VariableFlipAngleFlag": "N",
      "WindowCenterWidthExplanation": "Algo1",
      "dBdt": 0.0},
    "slices": {}
  },
  "time": {
    "samples": {
      "AcquisitionNumber": [1, 2, 3, 4, 5, 6, 7, 8, 9, 10, 11, 12, 13, 14, 15, 16, 17, 18, 19, 20, 21, 22, 23, 24, 25, 26, 27, 28, 29, 30, 31, 32, 33, 34, 35, 36, 37, 38, 39, 40, 41, 42, 43, 44, 45, 46, 47, 48, 49, 50, 51, 52, 53, 54, 55, 56, 57, 58, 59, 60, 61, 62, 63, 64, 65, 66, 67, 68, 69, 70, 71, 72, 73, 74, 75, 76, 77, 78, 79, 80, 81, 82, 83, 84, 85, 86, 87, 88, 89, 90, 91, 92, 93, 94, 95, 96, 97, 98, 99, 100, 101, 102, 103, 104, 105, 106, 107, 108, 109, 110, 111, 112, 113, 114, 115, 116, 117, 118, 119, 120, 121, 122, 123, 124, 125, 126, 127, 128, 129, 130, 131, 132, 133, 134, 135, 136, 137, 138, 139, 140, 141, 142, 143, 144, 145, 146, 147, 148, 149, 150, 151, 152, 153, 154, 155, 156, 157, 158, 159, 160, 161, 162, 163, 164, 165, 166, 167, 168, 169, 170, 171, 172, 173, 174, 175, 176, 177, 178, 179, 180, 181, 182, 183, 184, 185, 186, 187, 188, 189, 190, 191, 192, 193, 194, 195, 196, 197, 198, 199, 200],
      "AcquisitionTime": ["090351.837500", "090353.837500", "090355.837500", "090357.837500", "090359.837500", "090401.837500", "090403.837500", "090405.837500", "090407.837500", "090409.837500", "090411.837500", "090413.837500", "090415.837500", "090417.837500", "090419.837500", "090421.837500", "090423.837500", "090425.837500", "090427.837500", "090429.837500", "090431.837500", "090433.837500", "090435.837500", "090437.837500", "090439.837500", "090441.837500", "090443.837500", "090445.837500", "090447.837500", "090449.837500", "090451.837500", "090453.837500", "090455.837500", "090457.837500", "090459.837500", "090501.837500", "090503.837500", "090505.837500", "090507.837500", "090509.837500", "090511.837500", "090513.837500", "090515.837500", "090517.837500", "090519.837500", "090521.837500", "090523.837500", "090525.837500", "090527.837500", "090529.837500", "090531.837500", "090533.837500", "090535.837500", "090537.837500", "090539.837500", "090541.837500", "090543.837500", "090545.837500", "090547.837500", "090549.837500", "090551.837500", "090553.837500", "090555.837500", "090557.837500", "090559.837500", "090601.837500", "090603.837500", "090605.837500", "090607.837500", "090609.837500", "090611.837500", "090613.837500", "090615.837500", "090617.837500", "090619.837500", "090621.837500", "090623.837500", "090625.837500", "090627.837500", "090629.837500", "090631.837500", "090633.837500", "090635.837500", "090637.837500", "090639.837500", "090641.837500", "090643.837500", "090645.837500", "090647.837500", "090649.837500", "090651.837500", "090653.837500", "090655.837500", "090657.837500", "090659.837500", "090701.837500", "090703.837500", "090705.837500", "090707.837500", "090709.837500", "090711.837500", "090713.837500", "090715.837500", "090717.837500", "090719.837500", "090721.837500", "090723.837500", "090725.837500", "090727.837500", "090729.837500", "090731.837500", "090733.837500", "090735.837500", "090737.837500", "090739.837500", "090741.837500", "090743.837500", "090745.837500", "090747.837500", "090749.837500", "090751.837500", "090753.837500", "090755.837500", "090757.837500", "090759.837500", "090801.837500", "090803.837500", "090805.837500", "090807.837500", "090809.837500", "090811.837500", "090813.837500", "090815.837500", "090817.837500", "090819.837500", "090821.837500", "090823.837500", "090825.837500", "090827.837500", "090829.837500", "090831.837500", "090833.837500", "090835.837500", "090837.837500", "090839.837500", "090841.837500", "090843.837500", "090845.837500", "090847.837500", "090849.837500", "090851.837500", "090853.837500", "090855.837500", "090857.837500", "090859.837500", "090901.837500", "090903.837500", "090905.837500", "090907.837500", "090909.837500", "090911.837500", "090913.837500", "090915.837500", "090917.837500", "090919.837500", "090921.837500", "090923.837500", "090925.837500", "090927.837500", "090929.837500", "090931.837500", "090933.837500", "090935.837500", "090937.837500", "090939.837500", "090941.837500", "090943.837500", "090945.837500", "090947.837500", "090949.837500", "090951.837500", "090953.837500", "090955.837500", "090957.837500", "090959.837500", "091001.837500", "091003.837500", "091005.837500", "091007.837500", "091009.837500", "091011.837500", "091013.837500", "091015.837500", "091017.837500", "091019.837500", "091021.837500", "091023.837500", "091025.837500", "091027.837500", "091029.837500"],
      "ContentTime": ["090442.320000", "090442.323000", "090442.326000", "090442.328000", "090442.331000", "090442.346000", "090442.349000", "090442.352000", "090442.354000", "090442.357000", "090442.360000", "090442.362000", "090442.365000", "090442.367000", "090442.370000", "090442.373000", "090442.375000", "090442.378000", "090442.380000", "090442.383000", "090442.390000", "090442.393000", "090442.396000", "090442.398000", "090442.401000", "090522.313000", "090522.317000", "090522.319000", "090522.322000", "090522.324000", "090522.327000", "090522.330000", "090522.332000", "090522.335000", "090522.338000", "090522.340000", "090522.343000", "090522.345000", "090522.348000", "090522.351000", "090522.353000", "090522.356000", "090522.359000", "090522.369000", "090522.372000", "090602.314000", "090602.316000", "090602.319000", "090602.322000", "090602.324000", "090602.327000", "090602.329000", "090602.332000", "090602.335000", "090602.337000", "090602.340000", "090602.342000", "090602.345000", "090602.348000", "090602.350000", "090602.353000", "090602.355000", "090602.358000", "090602.361000", "090602.363000", "090642.314000", "090642.317000", "090642.320000", "090642.323000", "090642.325000", "090642.328000", "090642.331000", "090642.333000", "090642.336000", "090642.338000", "090642.341000", "090642.344000", "090642.346000", "090642.349000", "090642.351000", "090642.354000", "090642.357000", "090642.359000", "090642.362000", "090642.365000", "090722.313000", "090722.316000", "090722.319000", "090722.322000", "090722.324000", "090722.327000", "090722.329000", "090722.332000", "090722.335000", "090722.337000", "090722.340000", "090722.343000", "090722.345000", "090722.348000", "090722.351000", "090722.353000", "090722.356000", "090722.358000", "090722.361000", "090722.364000", "090802.313000", "090802.316000", "090802.319000", "090802.322000", "090802.324000", "090802.327000", "090802.330000", "090802.332000", "090802.335000", "090802.337000", "090802.340000", "090802.343000", "090802.345000", "090802.348000", "090802.351000", "090802.353000", "090802.356000", "090802.359000", "090802.361000", "090802.364000", "090842.315000", "090842.317000", "090842.320000", "090842.323000", "090842.325000", "090842.328000", "090842.330000", "090842.333000", "090842.336000", "090842.338000", "090842.341000", "090842.344000", "090842.346000", "090842.349000", "090842.352000", "090842.354000", "090842.357000", "090842.360000", "090842.362000", "090842.365000", "090922.314000", "090922.317000", "090922.320000", "090922.323000", "090922.325000", "090922.328000", "090922.331000", "090922.333000", "090922.336000", "090922.338000", "090922.341000", "090922.344000", "090922.346000", "090922.349000", "090922.352000", "090922.354000", "090922.357000", "090922.359000", "090922.362000", "090922.365000", "091002.313000", "091002.316000", "091002.319000", "091002.322000", "091002.324000", "091002.327000", "091002.329000", "091002.332000", "091002.335000", "091002.337000", "091002.340000", "091002.343000", "091002.345000", "091002.348000", "091002.351000", "091002.353000", "091002.356000", "091002.358000", "091002.361000", "091002.364000", "091031.110000", "091031.112000", "091031.115000", "091031.118000", "091031.120000", "091031.123000", "091031.126000", "091031.129000", "091031.131000", "091031.134000", "091031.137000", "091031.143000", "091031.147000", "091031.151000", "091031.154000"],
      "InstanceCreationTime": ["090442.320000", "090442.323000", "090442.326000", "090442.328000", "090442.331000", "090442.346000", "090442.349000", "090442.352000", "090442.354000", "090442.357000", "090442.360000", "090442.362000", "090442.365000", "090442.367000", "090442.370000", "090442.373000", "090442.375000", "090442.378000", "090442.380000", "090442.383000", "090442.390000", "090442.393000", "090442.396000", "090442.398000", "090442.401000", "090522.313000", "090522.317000", "090522.319000", "090522.322000", "090522.324000", "090522.327000", "090522.330000", "090522.332000", "090522.335000", "090522.338000", "090522.340000", "090522.343000", "090522.345000", "090522.348000", "090522.351000", "090522.353000", "090522.356000", "090522.359000", "090522.369000", "090522.372000", "090602.314000", "090602.316000", "090602.319000", "090602.322000", "090602.324000", "090602.327000", "090602.329000", "090602.332000", "090602.335000", "090602.337000", "090602.340000", "090602.342000", "090602.345000", "090602.348000", "090602.350000", "090602.353000", "090602.355000", "090602.358000", "090602.361000", "090602.363000", "090642.314000", "090642.317000", "090642.320000", "090642.323000", "090642.325000", "090642.328000", "090642.331000", "090642.333000", "090642.336000", "090642.338000", "090642.341000", "090642.344000", "090642.346000", "090642.349000", "090642.351000", "090642.354000", "090642.357000", "090642.359000", "090642.362000", "090642.365000", "090722.313000", "090722.316000", "090722.319000", "090722.322000", "090722.324000", "090722.327000", "090722.329000", "090722.332000", "090722.335000", "090722.337000", "090722.340000", "090722.343000", "090722.345000", "090722.348000", "090722.351000", "090722.353000", "090722.356000", "090722.358000", "090722.361000", "090722.364000", "090802.313000", "090802.316000", "090802.319000", "090802.322000", "090802.324000", "090802.327000", "090802.330000", "090802.332000", "090802.335000", "090802.337000", "090802.340000", "090802.343000", "090802.345000", "090802.348000", "090802.351000", "090802.353000", "090802.356000", "090802.359000", "090802.361000", "090802.364000", "090842.315000", "090842.317000", "090842.320000", "090842.323000", "090842.325000", "090842.328000", "090842.330000", "090842.333000", "090842.336000", "090842.338000", "090842.341000", "090842.344000", "090842.346000", "090842.349000", "090842.352000", "090842.354000", "090842.357000", "090842.360000", "090842.362000", "090842.365000", "090922.314000", "090922.317000", "090922.320000", "090922.323000", "090922.325000", "090922.328000", "090922.331000", "090922.333000", "090922.336000", "090922.338000", "090922.341000", "090922.344000", "090922.346000", "090922.349000", "090922.352000", "090922.354000", "090922.357000", "090922.359000", "090922.362000", "090922.365000", "091002.313000", "091002.316000", "091002.319000", "091002.322000", "091002.324000", "091002.327000", "091002.329000", "091002.332000", "091002.335000", "091002.337000", "091002.340000", "091002.343000", "091002.345000", "091002.348000", "091002.351000", "091002.353000", "091002.356000", "091002.358000", "091002.361000", "091002.364000", "091031.110000", "091031.112000", "091031.115000", "091031.118000", "091031.120000", "091031.123000", "091031.126000", "091031.129000", "091031.131000", "091031.134000", "091031.137000", "091031.143000", "091031.147000", "091031.151000", "091031.154000"],
      "InstanceNumber": [1, 2, 3, 4, 5, 6, 7, 8, 9, 10, 11, 12, 13, 14, 15, 16, 17, 18, 19, 20, 21, 22, 23, 24, 25, 26, 27, 28, 29, 30, 31, 32, 33, 34, 35, 36, 37, 38, 39, 40, 41, 42, 43, 44, 45, 46, 47, 48, 49, 50, 51, 52, 53, 54, 55, 56, 57, 58, 59, 60, 61, 62, 63, 64, 65, 66, 67, 68, 69, 70, 71, 72, 73, 74, 75, 76, 77, 78, 79, 80, 81, 82, 83, 84, 85, 86, 87, 88, 89, 90, 91, 92, 93, 94, 95, 96, 97, 98, 99, 100, 101, 102, 103, 104, 105, 106, 107, 108, 109, 110, 111, 112, 113, 114, 115, 116, 117, 118, 119, 120, 121, 122, 123, 124, 125, 126, 127, 128, 129, 130, 131, 132, 133, 134, 135, 136, 137, 138, 139, 140, 141, 142, 143, 144, 145, 146, 147, 148, 149, 150, 151, 152, 153, 154, 155, 156, 157, 158, 159, 160, 161, 162, 163, 164, 165, 166, 167, 168, 169, 170, 171, 172, 173, 174, 175, 176, 177, 178, 179, 180, 181, 182, 183, 184, 185, 186, 187, 188, 189, 190, 191, 192, 193, 194, 195, 196, 197, 198, 199, 200],
      "LargestImagePixelValue": [3730, 3737, 3735, 3724, 3738, 3740, 3743, 3733, 3732, 3736, 3736, 3732, 3734, 3730, 3743, 3747, 3742, 3741, 3735, 3730, 3757, 3733, 3728, 3739, 3749, 3743, 3727, 3736, 3732, 3737, 3724, 3741, 3753, 3725, 3727, 3736, 3732, 3736, 3742, 3737, 3728, 3737, 3728, 3731, 3741, 3730, 3731, 3732, 3723, 3726, 3736, 3712, 3736, 3728, 3725, 3724, 3718, 3731, 3727, 3730, 3731, 3719, 3733, 3732, 3729, 3730, 3741, 3724, 3729, 3731, 3721, 3738, 3722, 3722, 3741, 3739, 3727, 3730, 3740, 3722, 3732, 3733, 3726, 3727, 3720, 3725, 3730, 3723, 3733, 3727, 3729, 3727, 3734, 3716, 3723, 3724, 3722, 3743, 3729, 3718, 3734, 3729, 3735, 3739, 3729, 3724, 3723, 3730, 3737, 3725, 3728, 3732, 3717, 3713, 3739, 3734, 3726, 3727, 3731, 3734, 3740, 3724, 3726, 3719, 3723, 3737, 3732, 3730, 3734, 3743, 3725, 3731, 3742, 3715, 3717, 3732, 3726, 3728, 3723, 3730, 3723, 3733, 3716, 3725, 3731, 3726, 3727, 3729, 3723, 3719, 3733, 3720, 3734, 3723, 3741, 3739, 3731, 3717, 3729, 3736, 3724, 3723, 3729, 3729, 3749, 3721, 3732, 3730, 3717, 3732, 3725, 3725, 3714, 3730, 3731, 3719, 3721, 3721, 3714, 3717, 3730, 3721, 3719, 3720, 3720, 3726, 3721, 3713, 3720, 3730, 3713, 3734, 3729, 3725, 3722, 3731, 3736, 3721, 3733, 3735],
      "WindowCenter": [1394.0, 1392.0, 1392.0, 1393.0, 1392.0, 1393.0, 1392.0, 1392.0, 1392.0, 1393.0, 1392.0, 1392.0, 1392.0, 1391.0, 1392.0, 1391.0, 1392.0, 1392.0, 1392.0, 1392.0, 1391.0, 1392.0, 1392.0, 1392.0, 1392.0, 1392.0, 1391.0, 1392.0, 1391.0, 1392.0, 1392.0, 1392.0, 1392.0, 1392.0, 1392.0, 1392.0, 1392.0, 1392.0, 1391.0, 1391.0, 1391.0, 1391.0, 1391.0, 1391.0, 1391.0, 1391.0, 1391.0, 1391.0, 1391.0, 1391.0, 1391.0, 1391.0, 1391.0, 1391.0, 1391.0, 1391.0, 1391.0, 1391.0, 1391.0, 1391.0, 1391.0, 1391.0, 1391.0, 1390.0, 1391.0, 1390.0, 1390.0, 1391.0, 1390.0, 1391.0, 1390.0, 1390.0, 1390.0, 1391.0, 1391.0, 1391.0, 1390.0, 1391.0, 1390.0, 1390.0, 1391.0, 1391.0, 1390.0, 1390.0, 1390.0, 1390.0, 1390.0, 1390.0, 1390.0, 1390.0, 1390.0, 1390.0, 1390.0, 1390.0, 1390.0, 1390.0, 1390.0, 1390.0, 1389.0, 1390.0, 1390.0, 1390.0, 1390.0, 1390.0, 1390.0, 1389.0, 1389.0, 1390.0, 1389.0, 1389.0, 1389.0, 1389.0, 1389.0, 1389.0, 1389.0, 1389.0, 1389.0, 1390.0, 1390.0, 1389.0, 1389.0, 1390.0, 1390.0, 1389.0, 1390.0, 1390.0, 1389.0, 1389.0, 1389.0, 1390.0, 1390.0, 1390.0, 1390.0, 1389.0, 1389.0, 1389.0, 1389.0, 1388.0, 1390.0, 1389.0, 1389.0, 1389.0, 1389.0, 1389.0, 1389.0, 1389.0, 1389.0, 1389.0, 1389.0, 1389.0, 1389.0, 1388.0, 1389.0, 1389.0, 1389.0, 1389.0, 1388.0, 1389.0, 1389.0, 1389.0, 1389.0, 1389.0, 1389.0, 1389.0, 1389.0, 1389.0, 1389.0, 1389.0, 1389.0, 1388.0, 1389.0, 1389.0, 1388.0, 1388.0, 1389.0, 1388.0, 1388.0, 1388.0, 1388.0, 1388.0, 1388.0, 1389.0, 1388.0, 1389.0, 1389.0, 1388.0, 1388.0, 1388.0, 1389.0, 1389.0, 1388.0, 1388.0, 1388.0, 1389.0, 1388.0, 1388.0, 1388.0, 1388.0, 1387.0, 1388.0],
      "WindowWidth": [3239.0, 3238.0, 3238.0, 3237.0, 3237.0, 3237.0, 3237.0, 3237.0, 3237.0, 3236.0, 3237.0, 3237.0, 3237.0, 3237.0, 3236.0, 3236.0, 3237.0, 3237.0, 3236.0, 3236.0, 3237.0, 3236.0, 3237.0, 3236.0, 3237.0, 3237.0, 3237.0, 3236.0, 3237.0, 3236.0, 3236.0, 3236.0, 3236.0, 3236.0, 3236.0, 3236.0, 3236.0, 3236.0, 3236.0, 3236.0, 3236.0, 3236.0, 3236.0, 3236.0, 3236.0, 3236.0, 3236.0, 3236.0, 3236.0, 3236.0, 3236.0, 3236.0, 3236.0, 3236.0, 3236.0, 3236.0, 3236.0, 3236.0, 3236.0, 3236.0, 3236.0, 3236.0, 3236.0, 3236.0, 3236.0, 3236.0, 3236.0, 3236.0, 3236.0, 3235.0, 3235.0, 3235.0, 3235.0, 3235.0, 3235.0, 3235.0, 3235.0, 3235.0, 3235.0, 3235.0, 3235.0, 3235.0, 3235.0, 3235.0, 3235.0, 3235.0, 3235.0, 3235.0, 3235.0, 3235.0, 3235.0, 3235.0, 3235.0, 3235.0, 3235.0, 3235.0, 3235.0, 3235.0, 3235.0, 3235.0, 3235.0, 3235.0, 3235.0, 3235.0, 3234.0, 3235.0, 3235.0, 3235.0, 3234.0, 3235.0, 3235.0, 3235.0, 3235.0, 3235.0, 3234.0, 3234.0, 3234.0, 3235.0, 3234.0, 3234.0, 3234.0, 3234.0, 3234.0, 3234.0, 3234.0, 3233.0, 3234.0, 3234.0, 3234.0, 3234.0, 3234.0, 3234.0, 3234.0, 3234.0, 3234.0, 3234.0, 3234.0, 3234.0, 3234.0, 3235.0, 3235.0, 3234.0, 3234.0, 3234.0, 3234.0, 3234.0, 3234.0, 3234.0, 3234.0, 3234.0, 3234.0, 3234.0, 3234.0, 3234.0, 3234.0, 3234.0, 3234.0, 3234.0, 3234.0, 3234.0, 3234.0, 3234.0, 3234.0, 3234.0, 3234.0, 3234.0, 3234.0, 3234.0, 3234.0, 3234.0, 3234.0, 3233.0, 3234.0, 3234.0, 3234.0, 3234.0, 3234.0, 3234.0, 3234.0, 3233.0, 3233.0, 3233.0, 3233.0, 3233.0, 3233.0, 3233.0, 3233.0, 3233.0, 3233.0, 3233.0, 3233.0, 3233.0, 3233.0, 3233.0, 3233.0, 3233.0, 3233.0, 3233.0, 3233.0, 3233.0]
    },
    "slices": {}
  }
}