{
  "AcquisitionMatrixPE": 122,
  "AcquisitionNumber": 1,
  "AcquisitionTime": "10:23:26.227500",
  "BandwidthPerPixelPhaseEncode": 28.76,
  "BaseResolution": 122,
  "BodyPartExamined": "BRAIN",
  "CoilCombinationMethod": "Adaptive Combine",
  "ConsistencyInfo": "N4_VE11C_LATEST_20160120",
  "ConversionSoftware": "dcm2niix",
  "ConversionSoftwareVersion": "v1.0.20220720",
  "DerivedVendorReportedEchoSpacing": 0.000570008,
  "DeviceSerialNumber": "66112",
  "DiffusionScheme": "Monopolar",
  "DwellTime": 2e-06,
  "EchoTime": 0.075,
  "EchoTrainLength": 61,
  "EffectiveEchoSpacing": 0.000285004,
  "FlipAngle": 90,
  "HeudiconvVersion": "0.13.1",
  "ImageOrientationPatientDICOM": [0.999953, 0.00769297, 0.00585522, -0.00907554, 0.955672, 0.294293],
  "ImageOrientationText": "Tra>Cor(17.1)>Sag(0.2)",
  "ImageType": [
    "ORIGINAL",
    "PRIMARY",
    "DIFFUSION",
    "NONE",
    "ND",
    "NORM"
],
  "ImagingFrequency": 123.252,
  "InPlanePhaseEncodingDirectionDICOM": "COL",
  "InstitutionAddress": "Maynard 3,Hanover,NH,US,03755",
  "InstitutionName": "Dartmouth College - PBS",
  "InstitutionalDepartmentName": "Department",
  "MRAcquisitionType": "2D",
  "MagneticFieldStrength": 3,
  "Manufacturer": "Siemens",
  "ManufacturersModelName": "Prisma",
  "MatrixCoilMode": "GRAPPA",
  "Modality": "MR",
  "NonlinearGradientCorrection": false,
  "ParallelReductionFactorInPlane": 2,
  "PartialFourier": 1,
  "PatientPosition": "HFS",
  "PercentPhaseFOV": 100,
  "PercentSampling": 100,
  "PhaseEncodingDirection": "j-",
  "PhaseEncodingSteps": 122,
  "PhaseResolution": 1,
  "PixelBandwidth": 2050,
  "ProcedureStepDescription": "dbic^QA",
  "ProtocolName": "dwi_acq-DTI-30-p2",
  "PulseSequenceDetails": "%SiemensSeq%\\ep2d_diff",
  "ReceiveCoilActiveElements": "HEA;HEP",
  "ReceiveCoilName": "Head_32",
  "ReconMatrixPE": 122,
  "RefLinesPE": 38,
  "RepetitionTime": 7.7,
  "SAR": 0.102076,
  "ScanOptions": "FS",
  "ScanningSequence": "EP",
  "SequenceName": "*ep_b0",
  "SequenceVariant": "SK\\SP",
  "SeriesDescription": "dwi_acq-DTI-30-p2",
  "SeriesNumber": 12,
  "ShimSetting": [4145, -7692, -7509, 267, -51, -173, -13, 67],
  "SliceThickness": 2,
  "SliceTiming": [3.83594, 0, 3.94531, 0.10938, 4.05469, 0.21875, 4.16406, 0.32812, 4.27344, 0.4375, 4.38281, 0.54688, 4.49219, 0.65625, 4.60156, 0.76562, 4.71094, 0.875, 4.82812, 0.98438, 4.9375, 1.09375, 5.04688, 1.20312, 5.14844, 1.3125, 5.26562, 1.42188, 5.375, 1.53125, 5.48438, 1.64062, 5.59375, 1.75, 5.70312, 1.85938, 5.8125, 1.96875, 5.92188, 2.07812, 6.03125, 2.19531, 6.14062, 2.29688, 6.25, 2.40625, 6.35938, 2.51562, 6.46875, 2.63281, 6.57812, 2.74219, 6.6875, 2.85156, 6.79688, 2.96094, 6.90625, 3.07031, 7.01562, 3.17969, 7.125, 3.28906, 7.23438, 3.39844, 7.34375, 3.50781, 7.45312, 3.61719, 7.57031, 3.72656],
  "SoftwareVersions": "syngo MR E11",
  "SpacingBetweenSlices": 2,
  "SpoilingState": true,
  "StationName": "AWP66112",
  "TotalReadoutTime": 0.0344855,
  "TxRefAmp": 230.545,
  "dcmmeta_affine": [
    [-1.9671212434768677, -0.0178535133600235, 0.0066633522510528564, 120.7132797241211],
    [-0.015133719891309738, 1.8800106048583984, 0.5886650085449219, -123.03163146972656],
    [0.01151845883578062, -0.5789377093315125, 1.9113960266113281, -34.14026641845703],
    [0.0, 0.0, 0.0, 1.0]
],
  "dcmmeta_reorient_transform": [
    [0.0, -1.0, 0.0, 121.0],
    [1.0, 0.0, 0.0, 0.0],
    [0.0, 0.0, -1.0, 69.0],
    [0.0, 0.0, 0.0, 1.0]
],
  "dcmmeta_shape": [122, 122, 70, 31],
  "dcmmeta_slice_dim": 2,
  "dcmmeta_version": 0.6,
  "global": {
    "const": {
      "AccessionNumber": "qa",
      "AcquisitionMatrix": [122, 0, 0, 122],
      "AngioFlag": "N",
      "BitsAllocated": 16,
      "BitsStored": 12,
      "BodyPartExamined": "BRAIN",
      "Columns": 122,
      "EchoNumbers": 1,
      "EchoTime": 75.0,
      "EchoTrainLength": 61,
      "FlipAngle": 90.0,
      "HighBit": 11,
      "ImageOrientationPatient": [0.99995326620197, 0.00769297415735, 0.00585521653187, -0.0090755357037, 0.95567205169109, 0.29429333031557],
      "ImageType": [
        "ORIGINAL",
        "PRIMARY",
        "DIFFUSION",
        "NONE",
        "ND",
        "NORM"
],
      "ImagedNucleus": "1H",
      "ImagingFrequency": 123.252419,
      "InPlanePhaseEncodingDirection": "COL",
      "MRAcquisitionType": "2D",
      "MagneticFieldStrength": 3.0,
      "Manufacturer": "SIEMENS",
      "ManufacturerModelName": "Prisma",
      "Modality": "MR",
      "NumberOfAverages": 1.0,
      "NumberOfPhaseEncodingSteps": 122,
      "PercentPhaseFieldOfView": 100.0,
      "PercentSampling": 100.0,
      "PerformedProcedureStepStartTime": "095333.584000",
      "PhotometricInterpretation": "MONOCHROME2",
      "PixelBandwidth": 2050.0,
      "PixelRepresentation": 0,
      "PixelSpacing": [1.9672131538391, 1.9672131538391],
      "ProtocolName": "dwi_acq-DTI-30-p2",
      "RepetitionTime": 7700.0,
      "Rows": 122,
      "SAR": 0.10207551869458,
      "SamplesPerPixel": 1,
      "ScanOptions": "FS",
      "ScanningSequence": "EP",
      "SequenceVariant": [
        "SK",
        "SP"
],
      "SeriesDescription": "dwi_acq-DTI-30-p2",
      "SeriesNumber": 12,
      "SeriesTime": "102326.077000",
      "SliceThickness": 2.0,
      "SmallestImagePixelValue": 0,
      "SoftwareVersions": "syngo MR E11",
      "SpacingBetweenSlices": 2.0,
      "SpecificCharacterSet": "ISO_IR 100",
      "StudyID": "104",
      "StudyTime": "095333.422000",
      "TransmitCoilName": "Body",
      "VariableFlipAngleFlag": "N",
      "WindowCenterWidthExplanation": "Algo1",
      "dBdt": 0.0},
    "slices": {
      "AcquisitionTime": ["102326.227500", "102322.387500", "102326.337500", "102322.497500", "102326.447500", "102322.607500", "102326.557500", "102322.717500", "102326.665000", "102322.825000", "102326.775000", "102322.935000", "102326.885000", "102323.045000", "102326.995000", "102323.155000", "102327.105000", "102323.265000", "102327.215000", "102323.375000", "102327.325000", "102323.485000", "102327.435000", "102323.595000", "102327.542500", "102323.705000", "102327.652500", "102323.812500", "102327.762500", "102323.922500", "102327.872500", "102324.032500", "102327.982500", "102324.142500", "102328.092500", "102324.252500", "102328.202500", "102324.362500", "102328.312500", "102324.472500", "102328.422500", "102324.582500", "102328.530000", "102324.690000", "102328.640000", "102324.800000", "102328.750000", "102324.910000", "102328.860000", "102325.020000", "102328.970000", "102325.130000", "102329.080000", "102325.240000", "102329.190000", "102325.350000", "102329.300000", "102325.460000", "102329.407500", "102325.570000", "102329.517500", "102325.677500", "102329.627500", "102325.787500", "102329.737500", "102325.897500", "102329.847500", "102326.007500", "102329.957500", "102326.117500", "102333.927500", "102330.087500", "102334.037500", "102330.197500", "102334.147500", "102330.307500", "102334.257500", "102330.417500", "102334.365000", "102330.525000", "102334.475000", "102330.635000", "102334.585000", "102330.745000", "102334.695000", "102330.855000", "102334.805000", "102330.965000", "102334.915000", "102331.075000", "102335.025000", "102331.185000", "102335.135000", "102331.295000", "102335.242500", "102331.405000", "102335.352500", "102331.512500", "102335.462500", "102331.622500", "102335.572500", "102331.732500", "102335.682500", "102331.842500", "102335.792500", "102331.952500", "102335.902500", "102332.062500", "102336.012500", "102332.172500", "102336.122500", "102332.282500", "102336.230000", "102332.390000", "102336.340000", "102332.500000", "102336.450000", "102332.610000", "102336.560000", "102332.720000", "102336.670000", "102332.830000", "102336.780000", "102332.940000", "102336.890000", "102333.050000", "102337.000000", "102333.160000", "102337.107500", "102333.270000", "102337.217500", "102333.377500", "102337.327500", "102333.487500", "102337.437500", "102333.597500", "102337.547500", "102333.707500", "102337.657500", "102333.817500", "102341.627500", "102337.787500", "102341.737500", "102337.897500", "102341.847500", "102338.007500", "102341.957500", "102338.117500", "102342.065000", "102338.225000", "102342.175000", "102338.335000", "102342.285000", "102338.445000", "102342.395000", "102338.555000", "102342.505000", "102338.665000", "102342.615000", "102338.775000", "102342.725000", "102338.885000", "102342.835000", "102338.995000", "102342.942500", "102339.105000", "102343.052500", "102339.212500", "102343.162500", "102339.322500", "102343.272500", "102339.432500", "102343.382500", "102339.542500", "102343.492500", "102339.652500", "102343.602500", "102339.762500", "102343.712500", "102339.872500", "102343.822500", "102339.982500", "102343.930000", "102340.090000", "102344.040000", "102340.200000", "102344.150000", "102340.310000", "102344.260000", "102340.420000", "102344.370000", "102340.530000", "102344.480000", "102340.640000", "102344.590000", "102340.750000", "102344.700000", "102340.860000", "102344.807500", "102340.970000", "102344.917500", "102341.077500", "102345.027500", "102341.187500", "102345.137500", "102341.297500", "102345.247500", "102341.407500", "102345.357500", "102341.517500", "102349.327500", "102345.487500", "102349.437500", "102345.597500", "102349.547500", "102345.707500", "102349.657500", "102345.817500", "102349.765000", "102345.925000", "102349.875000", "102346.035000", "102349.985000", "102346.145000", "102350.095000", "102346.255000", "102350.205000", "102346.365000", "102350.315000", "102346.475000", "102350.425000", "102346.585000", "102350.535000", "102346.695000", "102350.642500", "102346.805000", "102350.752500", "102346.912500", "102350.862500", "102347.022500", "102350.972500", "102347.132500", "102351.082500", "102347.242500", "102351.192500", "102347.352500", "102351.302500", "102347.462500", "102351.412500", "102347.572500", "102351.522500", "102347.682500", "102351.630000", "102347.790000", "102351.740000", "102347.900000", "102351.850000", "102348.010000", "102351.960000", "102348.120000", "102352.070000", "102348.230000", "102352.180000", "102348.340000", "102352.290000", "102348.450000", "102352.400000", "102348.560000", "102352.507500", "102348.670000", "102352.617500", "102348.777500", "102352.727500", "102348.887500", "102352.837500", "102348.997500", "102352.947500", "102349.107500", "102353.057500", "102349.217500", "102357.027500", "102353.187500", "102357.137500", "102353.297500", "102357.247500", "102353.407500", "102357.357500", "102353.517500", "102357.465000", "102353.625000", "102357.575000", "102353.735000", "102357.685000", "102353.845000", "102357.795000", "102353.955000", "102357.905000", "102354.065000", "102358.015000", "102354.175000", "102358.125000", "102354.285000", "102358.235000", "102354.395000", "102358.342500", "102354.505000", "102358.452500", "102354.612500", "102358.562500", "102354.722500", "102358.672500", "102354.832500", "102358.782500", "102354.942500", "102358.892500", "102355.052500", "102359.002500", "102355.162500", "102359.112500", "102355.272500", "102359.222500", "102355.382500", "102359.330000", "102355.490000", "102359.440000", "102355.600000", "102359.550000", "102355.710000", "102359.660000", "102355.820000", "102359.770000", "102355.930000", "102359.880000", "102356.040000", "102359.990000", "102356.150000", "102400.100000", "102356.260000", "102400.207500", "102356.370000", "102400.317500", "102356.477500", "102400.427500", "102356.587500", "102400.537500", "102356.697500", "102400.647500", "102356.807500", "102400.757500", "102356.917500", "102404.727500", "102400.887500", "102404.837500", "102400.997500", "102404.947500", "102401.107500", "102405.057500", "102401.217500", "102405.165000", "102401.325000", "102405.275000", "102401.435000", "102405.385000", "102401.545000", "102405.495000", "102401.655000", "102405.605000", "102401.765000", "102405.715000", "102401.875000", "102405.825000", "102401.985000", "102405.935000", "102402.095000", "102406.042500", "102402.205000", "102406.152500", "102402.312500", "102406.262500", "102402.422500", "102406.372500", "102402.532500", "102406.482500", "102402.642500", "102406.592500", "102402.752500", "102406.702500", "102402.862500", "102406.812500", "102402.972500", "102406.922500", "102403.082500", "102407.030000", "102403.190000", "102407.140000", "102403.300000", "102407.250000", "102403.410000", "102407.360000", "102403.520000", "102407.470000", "102403.630000", "102407.580000", "102403.740000", "102407.690000", "102403.850000", "102407.800000", "102403.960000", "102407.907500", "102404.070000", "102408.017500", "102404.177500", "102408.127500", "102404.287500", "102408.237500", "102404.397500", "102408.347500", "102404.507500", "102408.457500", "102404.617500", "102412.427500", "102408.587500", "102412.537500", "102408.697500", "102412.647500", "102408.807500", "102412.757500", "102408.917500", "102412.865000", "102409.025000", "102412.975000", "102409.135000", "102413.085000", "102409.245000", "102413.195000", "102409.355000", "102413.305000", "102409.465000", "102413.415000", "102409.575000", "102413.525000", "102409.685000", "102413.635000", "102409.795000", "102413.742500", "102409.905000", "102413.852500", "102410.012500", "102413.962500", "102410.122500", "102414.072500", "102410.232500", "102414.182500", "102410.342500", "102414.292500", "102410.452500", "102414.402500", "102410.562500", "102414.512500", "102410.672500", "102414.622500", "102410.782500", "102414.730000", "102410.890000", "102414.840000", "102411.000000", "102414.950000", "102411.110000", "102415.060000", "102411.220000", "102415.170000", "102411.330000", "102415.280000", "102411.440000", "102415.390000", "102411.550000", "102415.500000", "102411.660000", "102415.607500", "102411.770000", "102415.717500", "102411.877500", "102415.827500", "102411.987500", "102415.937500", "102412.097500", "102416.047500", "102412.207500", "102416.157500", "102412.317500", "102420.127500", "102416.287500", "102420.237500", "102416.397500", "102420.347500", "102416.507500", "102420.457500", "102416.617500", "102420.565000", "102416.725000", "102420.675000", "102416.835000", "102420.785000", "102416.945000", "102420.895000", "102417.055000", "102421.005000", "102417.165000", "102421.115000", "102417.275000", "102421.225000", "102417.385000", "102421.335000", "102417.495000", "102421.442500", "102417.605000", "102421.552500", "102417.712500", "102421.662500", "102417.822500", "102421.772500", "102417.932500", "102421.882500", "102418.042500", "102421.992500", "102418.152500", "102422.102500", "102418.262500", "102422.212500", "102418.372500", "102422.322500", "102418.482500", "102422.430000", "102418.590000", "102422.540000", "102418.700000", "102422.650000", "102418.810000", "102422.760000", "102418.920000", "102422.870000", "102419.030000", "102422.980000", "102419.140000", "102423.090000", "102419.250000", "102423.200000", "102419.360000", "102423.307500", "102419.470000", "102423.417500", "102419.577500", "102423.527500", "102419.687500", "102423.637500", "102419.797500", "102423.747500", "102419.907500", "102423.857500", "102420.017500", "102427.827500", "102423.987500", "102427.937500", "102424.097500", "102428.047500", "102424.207500", "102428.157500", "102424.317500", "102428.265000", "102424.425000", "102428.375000", "102424.535000", "102428.485000", "102424.645000", "102428.595000", "102424.755000", "102428.705000", "102424.865000", "102428.815000", "102424.975000", "102428.925000", "102425.085000", "102429.035000", "102425.195000", "102429.142500", "102425.305000", "102429.252500", "102425.412500", "102429.362500", "102425.522500", "102429.472500", "102425.632500", "102429.582500", "102425.742500", "102429.692500", "102425.852500", "102429.802500", "102425.962500", "102429.912500", "102426.072500", "102430.022500", "102426.182500", "102430.130000", "102426.290000", "102430.240000", "102426.400000", "102430.350000", "102426.510000", "102430.460000", "102426.620000", "102430.570000", "102426.730000", "102430.680000", "102426.840000", "102430.790000", "102426.950000", "102430.900000", "102427.060000", "102431.007500", "102427.170000", "102431.117500", "102427.277500", "102431.227500", "102427.387500", "102431.337500", "102427.497500", "102431.447500", "102427.607500", "102431.557500", "102427.717500", "102435.527500", "102431.687500", "102435.637500", "102431.797500", "102435.747500", "102431.907500", "102435.857500", "102432.017500", "102435.965000", "102432.125000", "102436.075000", "102432.235000", "102436.185000", "102432.345000", "102436.295000", "102432.455000", "102436.405000", "102432.565000", "102436.515000", "102432.675000", "102436.625000", "102432.785000", "102436.735000", "102432.895000", "102436.842500", "102433.005000", "102436.952500", "102433.112500", "102437.062500", "102433.222500", "102437.172500", "102433.332500", "102437.282500", "102433.442500", "102437.392500", "102433.552500", "102437.502500", "102433.662500", "102437.612500", "102433.772500", "102437.722500", "102433.882500", "102437.830000", "102433.990000", "102437.940000", "102434.100000", "102438.050000", "102434.210000", "102438.160000", "102434.320000", "102438.270000", "102434.430000", "102438.380000", "102434.540000", "102438.490000", "102434.650000", "102438.600000", "102434.760000", "102438.707500", "102434.870000", "102438.817500", "102434.977500", "102438.927500", "102435.087500", "102439.037500", "102435.197500", "102439.147500", "102435.307500", "102439.257500", "102435.417500", "102443.227500", "102439.387500", "102443.337500", "102439.497500", "102443.447500", "102439.607500", "102443.557500", "102439.717500", "102443.665000", "102439.825000", "102443.775000", "102439.935000", "102443.885000", "102440.045000", "102443.995000", "102440.155000", "102444.105000", "102440.265000", "102444.215000", "102440.375000", "102444.325000", "102440.485000", "102444.435000", "102440.595000", "102444.542500", "102440.705000", "102444.652500", "102440.812500", "102444.762500", "102440.922500", "102444.872500", "102441.032500", "102444.982500", "102441.142500", "102445.092500", "102441.252500", "102445.202500", "102441.362500", "102445.312500", "102441.472500", "102445.422500", "102441.582500", "102445.530000", "102441.690000", "102445.640000", "102441.800000", "102445.750000", "102441.910000", "102445.860000", "102442.020000", "102445.970000", "102442.130000", "102446.080000", "102442.240000", "102446.190000", "102442.350000", "102446.300000", "102442.460000", "102446.407500", "102442.570000", "102446.517500", "102442.677500", "102446.627500", "102442.787500", "102446.737500", "102442.897500", "102446.847500", "102443.007500", "102446.957500", "102443.117500", "102450.927500", "102447.087500", "102451.037500", "102447.197500", "102451.147500", "102447.307500", "102451.257500", "102447.417500", "102451.365000", "102447.525000", "102451.475000", "102447.635000", "102451.585000", "102447.745000", "102451.695000", "102447.855000", "102451.805000", "102447.965000", "102451.915000", "102448.075000", "102452.025000", "102448.185000", "102452.135000", "102448.295000", "102452.242500", "102448.405000", "102452.352500", "102448.512500", "102452.462500", "102448.622500", "102452.572500", "102448.732500", "102452.682500", "102448.842500", "102452.792500", "102448.952500", "102452.902500", "102449.062500", "102453.012500", "102449.172500", "102453.122500", "102449.282500", "102453.230000", "102449.390000", "102453.340000", "102449.500000", "102453.450000", "102449.610000", "102453.560000", "102449.720000", "102453.670000", "102449.830000", "102453.780000", "102449.940000", "102453.890000", "102450.050000", "102454.000000", "102450.160000", "102454.107500", "102450.270000", "102454.217500", "102450.377500", "102454.327500", "102450.487500", "102454.437500", "102450.597500", "102454.547500", "102450.707500", "102454.657500", "102450.817500", "102458.627500", "102454.787500", "102458.737500", "102454.897500", "102458.847500", "102455.007500", "102458.957500", "102455.117500", "102459.065000", "102455.225000", "102459.175000", "102455.335000", "102459.285000", "102455.445000", "102459.395000", "102455.555000", "102459.505000", "102455.665000", "102459.615000", "102455.775000", "102459.725000", "102455.885000", "102459.835000", "102455.995000", "102459.942500", "102456.105000", "102500.052500", "102456.212500", "102500.162500", "102456.322500", "102500.272500", "102456.432500", "102500.382500", "102456.542500", "102500.492500", "102456.652500", "102500.602500", "102456.762500", "102500.712500", "102456.872500", "102500.822500", "102456.982500", "102500.930000", "102457.090000", "102501.040000", "102457.200000", "102501.150000", "102457.310000", "102501.260000", "102457.420000", "102501.370000", "102457.530000", "102501.480000", "102457.640000", "102501.590000", "102457.750000", "102501.700000", "102457.860000", "102501.807500", "102457.970000", "102501.917500", "102458.077500", "102502.027500", "102458.187500", "102502.137500", "102458.297500", "102502.247500", "102458.407500", "102502.357500", "102458.517500", "102506.327500", "102502.487500", "102506.437500", "102502.597500", "102506.547500", "102502.707500", "102506.657500", "102502.817500", "102506.765000", "102502.925000", "102506.875000", "102503.035000", "102506.985000", "102503.145000", "102507.095000", "102503.255000", "102507.205000", "102503.365000", "102507.315000", "102503.475000", "102507.425000", "102503.585000", "102507.535000", "102503.695000", "102507.642500", "102503.805000", "102507.752500", "102503.912500", "102507.862500", "102504.022500", "102507.972500", "102504.132500", "102508.082500", "102504.242500", "102508.192500", "102504.352500", "102508.302500", "102504.462500", "102508.412500", "102504.572500", "102508.522500", "102504.682500", "102508.630000", "102504.790000", "102508.740000", "102504.900000", "102508.850000", "102505.010000", "102508.960000", "102505.120000", "102509.070000", "102505.230000", "102509.180000", "102505.340000", "102509.290000", "102505.450000", "102509.400000", "102505.560000", "102509.507500", "102505.670000", "102509.617500", "102505.777500", "102509.727500", "102505.887500", "102509.837500", "102505.997500", "102509.947500", "102506.107500", "102510.057500", "102506.217500", "102514.027500", "102510.187500", "102514.137500", "102510.297500", "102514.247500", "102510.407500", "102514.357500", "102510.517500", "102514.465000", "102510.625000", "102514.575000", "102510.735000", "102514.685000", "102510.845000", "102514.795000", "102510.955000", "102514.905000", "102511.065000", "102515.015000", "102511.175000", "102515.125000", "102511.285000", "102515.235000", "102511.395000", "102515.342500", "102511.505000", "102515.452500", "102511.612500", "102515.562500", "102511.722500", "102515.672500", "102511.832500", "102515.782500", "102511.942500", "102515.892500", "102512.052500", "102516.002500", "102512.162500", "102516.112500", "102512.272500", "102516.222500", "102512.382500", "102516.330000", "102512.490000", "102516.440000", "102512.600000", "102516.550000", "102512.710000", "102516.660000", "102512.820000", "102516.770000", "102512.930000", "102516.880000", "102513.040000", "102516.990000", "102513.150000", "102517.100000", "102513.260000", "102517.207500", "102513.370000", "102517.317500", "102513.477500", "102517.427500", "102513.587500", "102517.537500", "102513.697500", "102517.647500", "102513.807500", "102517.757500", "102513.917500", "102521.727500", "102517.887500", "102521.837500", "102517.997500", "102521.947500", "102518.107500", "102522.057500", "102518.217500", "102522.165000", "102518.325000", "102522.275000", "102518.435000", "102522.385000", "102518.545000", "102522.495000", "102518.655000", "102522.605000", "102518.765000", "102522.715000", "102518.875000", "102522.825000", "102518.985000", "102522.935000", "102519.095000", "102523.042500", "102519.205000", "102523.152500", "102519.312500", "102523.262500", "102519.422500", "102523.372500", "102519.532500", "102523.482500", "102519.642500", "102523.592500", "102519.752500", "102523.702500", "102519.862500", "102523.812500", "102519.972500", "102523.922500", "102520.082500", "102524.030000", "102520.190000", "102524.140000", "102520.300000", "102524.250000", "102520.410000", "102524.360000", "102520.520000", "102524.470000", "102520.630000", "102524.580000", "102520.740000", "102524.690000", "102520.850000", "102524.800000", "102520.960000", "102524.907500", "102521.070000", "102525.017500", "102521.177500", "102525.127500", "102521.287500", "102525.237500", "102521.397500", "102525.347500", "102521.507500", "102525.457500", "102521.617500", "102529.427500", "102525.587500", "102529.537500", "102525.697500", "102529.647500", "102525.807500", "102529.757500", "102525.917500", "102529.865000", "102526.025000", "102529.975000", "102526.135000", "102530.085000", "102526.245000", "102530.195000", "102526.355000", "102530.305000", "102526.465000", "102530.415000", "102526.575000", "102530.525000", "102526.685000", "102530.635000", "102526.795000", "102530.742500", "102526.905000", "102530.852500", "102527.012500", "102530.962500", "102527.122500", "102531.072500", "102527.232500", "102531.182500", "102527.342500", "102531.292500", "102527.452500", "102531.402500", "102527.562500", "102531.512500", "102527.672500", "102531.622500", "102527.782500", "102531.730000", "102527.890000", "102531.840000", "102528.000000", "102531.950000", "102528.110000", "102532.060000", "102528.220000", "102532.170000", "102528.330000", "102532.280000", "102528.440000", "102532.390000", "102528.550000", "102532.500000", "102528.660000", "102532.607500", "102528.770000", "102532.717500", "102528.877500", "102532.827500", "102528.987500", "102532.937500", "102529.097500", "102533.047500", "102529.207500", "102533.157500", "102529.317500", "102537.127500", "102533.287500", "102537.237500", "102533.397500", "102537.347500", "102533.507500", "102537.457500", "102533.617500", "102537.565000", "102533.725000", "102537.675000", "102533.835000", "102537.785000", "102533.945000", "102537.895000", "102534.055000", "102538.005000", "102534.165000", "102538.115000", "102534.275000", "102538.225000", "102534.385000", "102538.335000", "102534.495000", "102538.442500", "102534.605000", "102538.552500", "102534.712500", "102538.662500", "102534.822500", "102538.772500", "102534.932500", "102538.882500", "102535.042500", "102538.992500", "102535.152500", "102539.102500", "102535.262500", "102539.212500", "102535.372500", "102539.322500", "102535.482500", "102539.430000", "102535.590000", "102539.540000", "102535.700000", "102539.650000", "102535.810000", "102539.760000", "102535.920000", "102539.870000", "102536.030000", "102539.980000", "102536.140000", "102540.090000", "102536.250000", "102540.200000", "102536.360000", "102540.307500", "102536.470000", "102540.417500", "102536.577500", "102540.527500", "102536.687500", "102540.637500", "102536.797500", "102540.747500", "102536.907500", "102540.857500", "102537.017500", "102544.827500", "102540.987500", "102544.937500", "102541.097500", "102545.047500", "102541.207500", "102545.157500", "102541.317500", "102545.265000", "102541.425000", "102545.375000", "102541.535000", "102545.485000", "102541.645000", "102545.595000", "102541.755000", "102545.705000", "102541.865000", "102545.815000", "102541.975000", "102545.925000", "102542.085000", "102546.035000", "102542.195000", "102546.142500", "102542.305000", "102546.252500", "102542.412500", "102546.362500", "102542.522500", "102546.472500", "102542.632500", "102546.582500", "102542.742500", "102546.692500", "102542.852500", "102546.802500", "102542.962500", "102546.912500", "102543.072500", "102547.022500", "102543.182500", "102547.130000", "102543.290000", "102547.240000", "102543.400000", "102547.350000", "102543.510000", "102547.460000", "102543.620000", "102547.570000", "102543.730000", "102547.680000", "102543.840000", "102547.790000", "102543.950000", "102547.900000", "102544.060000", "102548.007500", "102544.170000", "102548.117500", "102544.277500", "102548.227500", "102544.387500", "102548.337500", "102544.497500", "102548.447500", "102544.607500", "102548.557500", "102544.717500", "102552.527500", "102548.687500", "102552.637500", "102548.797500", "102552.747500", "102548.907500", "102552.857500", "102549.017500", "102552.965000", "102549.125000", "102553.075000", "102549.235000", "102553.185000", "102549.345000", "102553.295000", "102549.455000", "102553.405000", "102549.565000", "102553.515000", "102549.675000", "102553.625000", "102549.785000", "102553.735000", "102549.895000", "102553.842500", "102550.005000", "102553.952500", "102550.112500", "102554.062500", "102550.222500", "102554.172500", "102550.332500", "102554.282500", "102550.442500", "102554.392500", "102550.552500", "102554.502500", "102550.662500", "102554.612500", "102550.772500", "102554.722500", "102550.882500", "102554.830000", "102550.990000", "102554.940000", "102551.100000", "102555.050000", "102551.210000", "102555.160000", "102551.320000", "102555.270000", "102551.430000", "102555.380000", "102551.540000", "102555.490000", "102551.650000", "102555.600000", "102551.760000", "102555.707500", "102551.870000", "102555.817500", "102551.977500", "102555.927500", "102552.087500", "102556.037500", "102552.197500", "102556.147500", "102552.307500", "102556.257500", "102552.417500", "102600.227500", "102556.387500", "102600.337500", "102556.497500", "102600.447500", "102556.607500", "102600.557500", "102556.717500", "102600.665000", "102556.825000", "102600.775000", "102556.935000", "102600.885000", "102557.045000", "102600.995000", "102557.155000", "102601.105000", "102557.265000", "102601.215000", "102557.375000", "102601.325000", "102557.485000", "102601.435000", "102557.595000", "102601.542500", "102557.705000", "102601.652500", "102557.812500", "102601.762500", "102557.922500", "102601.872500", "102558.032500", "102601.982500", "102558.142500", "102602.