{
  "AcquisitionMatrixPE": 122,
  "AcquisitionNumber": 1,
  "AcquisitionTime": "10:27:48.462500",
  "BandwidthPerPixelPhaseEncode": 27.785,
  "BaseResolution": 122,
  "BodyPartExamined": "BRAIN",
  "CoilCombinationMethod": "Adaptive Combine",
  "ConsistencyInfo": "N4_VE11C_LATEST_20160120",
  "ConversionSoftware": "dcm2niix",
  "ConversionSoftwareVersion": "v1.0.20220720",
  "DerivedVendorReportedEchoSpacing": 0.000590011,
  "DeviceSerialNumber": "66112",
  "DiffusionScheme": "Monopolar",
  "DwellTime": 2e-06,
  "EchoTime": 0.068,
  "EchoTrainLength": 61,
  "EffectiveEchoSpacing": 0.000295005,
  "FlipAngle": 90,
  "HeudiconvVersion": "0.13.1",
  "ImageOrientationPatientDICOM": [0.999953, 0.00769297, 0.00585522, -0.00907554, 0.955672, 0.294293],
  "ImageOrientationText": "Tra>Cor(17.1)>Sag(0.2)",
  "ImageType": [
    "ORIGINAL",
    "PRIMARY",
    "DIFFUSION",
    "NONE",
    "ND",
    "NORM"
],
  "ImagingFrequency": 123.252,
  "InPlanePhaseEncodingDirectionDICOM": "COL",
  "InstitutionAddress": "Maynard 3,Hanover,NH,US,03755",
  "InstitutionName": "Dartmouth College - PBS",
  "InstitutionalDepartmentName": "Department",
  "MRAcquisitionType": "2D",
  "MagneticFieldStrength": 3,
  "Manufacturer": "Siemens",
  "ManufacturersModelName": "Prisma",
  "Modality": "MR",
  "MultibandAccelerationFactor": 4,
  "NonlinearGradientCorrection": false,
  "ParallelReductionFactorInPlane": 2,
  "PartialFourier": 1,
  "PatientPosition": "HFS",
  "PercentPhaseFOV": 100,
  "PercentSampling": 100,
  "PhaseEncodingDirection": "j-",
  "PhaseEncodingSteps": 122,
  "PhaseResolution": 1,
  "PixelBandwidth": 2050,
  "ProcedureStepDescription": "dbic^QA",
  "ProtocolName": "dwi_acq-DTI-30-p2-s4",
  "PulseSequenceDetails": "%SiemensSeq%\\ep2d_diff",
  "ReceiveCoilActiveElements": "HEA;HEP",
  "ReceiveCoilName": "Head_32",
  "ReconMatrixPE": 122,
  "RefLinesPE": 38,
  "RepetitionTime": 3.6,
  "SAR": 0.161189,
  "ScanOptions": "FS",
  "ScanningSequence": "EP",
  "SequenceName": "*ep_b0",
  "SequenceVariant": "SK\\SP",
  "SeriesDescription": "dwi_acq-DTI-30-p2-s4",
  "SeriesNumber": 13,
  "ShimSetting": [4145, -7692, -7509, 271, -51, -176, -12, 67],
  "SliceThickness": 2,
  "SliceTiming": [2.58594, 0, 1.78906, 0.20312, 1.99219, 0.39844, 2.1875, 0.60156, 2.39062, 1, 2.78906, 1.19531, 2.98438, 1.39844, 3.1875, 1.59375, 3.38281, 0.79688, 2.58594, 0, 1.78906, 0.20312, 1.99219, 0.39844, 2.1875, 0.60156, 2.39062, 1, 2.78906, 1.19531, 2.98438, 1.39844, 3.1875, 1.59375, 3.38281, 0.79688, 2.58594, 0, 1.78906, 0.20312, 1.99219, 0.39844, 2.1875, 0.60156, 2.39062, 1, 2.78906, 1.19531, 2.98438, 1.39844, 3.1875, 1.59375, 3.38281, 0.79688, 2.58594, 0, 1.78906, 0.20312, 1.99219, 0.39844, 2.1875, 0.60156, 2.39062, 1, 2.78906, 1.19531, 2.98438, 1.39844, 3.1875, 1.59375, 3.38281, 0.79688],
  "SoftwareVersions": "syngo MR E11",
  "SpacingBetweenSlices": 2,
  "SpoilingState": true,
  "StationName": "AWP66112",
  "TotalReadoutTime": 0.0356956,
  "TxRefAmp": 230.545,
  "dcmmeta_affine": [
    [-1.9671212434768677, -0.0178535133600235, 0.0066633522510528564, 120.70661926269531],
    [-0.015133719891309738, 1.8800106048583984, 0.5886650085449219, -123.62030029296875],
    [0.01151845883578062, -0.5789377093315125, 1.9113960266113281, -36.05166244506836],
    [0.0, 0.0, 0.0, 1.0]
],
  "dcmmeta_reorient_transform": [
    [0.0, -1.0, 0.0, 121.0],
    [1.0, 0.0, 0.0, 0.0],
    [0.0, 0.0, -1.0, 71.0],
    [0.0, 0.0, 0.0, 1.0]
],
  "dcmmeta_shape": [122, 122, 72, 31],
  "dcmmeta_slice_dim": 2,
  "dcmmeta_version": 0.6,
  "global": {
    "const": {
      "AccessionNumber": "qa",
      "AcquisitionMatrix": [122, 0, 0, 122],
      "AngioFlag": "N",
      "BitsAllocated": 16,
      "BitsStored": 12,
      "BodyPartExamined": "BRAIN",
      "Columns": 122,
      "EchoNumbers": 1,
      "EchoTime": 68.0,
      "EchoTrainLength": 61,
      "FlipAngle": 90.0,
      "HighBit": 11,
      "ImageOrientationPatient": [0.99995326620197, 0.00769297415735, 0.00585521653187, -0.0090755357037, 0.95567205169109, 0.29429333031557],
      "ImageType": [
        "ORIGINAL",
        "PRIMARY",
        "DIFFUSION",
        "NONE",
        "ND",
        "NORM"
],
      "ImagedNucleus": "1H",
      "ImagingFrequency": 123.252422,
      "InPlanePhaseEncodingDirection": "COL",
      "MRAcquisitionType": "2D",
      "MagneticFieldStrength": 3.0,
      "Manufacturer": "SIEMENS",
      "ManufacturerModelName": "Prisma",
      "Modality": "MR",
      "NumberOfAverages": 1.0,
      "NumberOfPhaseEncodingSteps": 122,
      "PercentPhaseFieldOfView": 100.0,
      "PercentSampling": 100.0,
      "PerformedProcedureStepStartTime": "095333.584000",
      "PhotometricInterpretation": "MONOCHROME2",
      "PixelBandwidth": 2050.0,
      "PixelRepresentation": 0,
      "PixelSpacing": [1.9672131538391, 1.9672131538391],
      "ProtocolName": "dwi_acq-DTI-30-p2-s4",
      "RepetitionTime": 3600.0,
      "Rows": 122,
      "SAR": 0.16118851477804,
      "SamplesPerPixel": 1,
      "ScanOptions": "FS",
      "ScanningSequence": "EP",
      "SequenceVariant": [
        "SK",
        "SP"
],
      "SeriesDescription": "dwi_acq-DTI-30-p2-s4",
      "SeriesNumber": 13,
      "SeriesTime": "102757.473000",
      "SliceThickness": 2.0,
      "SmallestImagePixelValue": 0,
      "SoftwareVersions": "syngo MR E11",
      "SpacingBetweenSlices": 2.0,
      "SpecificCharacterSet": "ISO_IR 100",
      "StudyID": "104",
      "StudyTime": "095333.422000",
      "TransmitCoilName": "Body",
      "VariableFlipAngleFlag": "N",
      "WindowCenterWidthExplanation": "Algo1",
      "dBdt": 0.0},
    "slices": {
      "AcquisitionTime": ["102748.462500", "102745.877500", "102747.667500", "102746.077500", "102747.867500", "102746.275000", "102748.065000", "102746.475000", "102748.265000", "102746.872500", "102748.662500", "102747.070000", "102748.860000", "102747.270000", "102749.060000", "102747.467500", "102749.257500", "102746.672500", "102748.462500", "102745.877500", "102747.667500", "102746.077500", "102747.867500", "102746.275000", "102748.065000", "102746.475000", "102748.265000", "102746.872500", "102748.662500", "102747.070000", "102748.860000", "102747.270000", "102749.060000", "102747.467500", "102749.257500", "102746.672500", "102748.462500", "102745.877500", "102747.667500", "102746.077500", "102747.867500", "102746.275000", "102748.065000", "102746.475000", "102748.265000", "102746.872500", "102748.662500", "102747.070000", "102748.860000", "102747.270000", "102749.060000", "102747.467500", "102749.257500", "102746.672500", "102748.462500", "102745.877500", "102747.667500", "102746.077500", "102747.867500", "102746.275000", "102748.065000", "102746.475000", "102748.265000", "102746.872500", "102748.662500", "102747.070000", "102748.860000", "102747.270000", "102749.060000", "102747.467500", "102749.257500", "102746.672500", "102752.062500", "102749.477500", "102751.267500", "102749.677500", "102751.467500", "102749.875000", "102751.665000", "102750.075000", "102751.865000", "102750.472500", "102752.262500", "102750.670000", "102752.460000", "102750.870000", "102752.660000", "102751.067500", "102752.857500", "102750.272500", "102752.062500", "102749.477500", "102751.267500", "102749.677500", "102751.467500", "102749.875000", "102751.665000", "102750.075000", "102751.865000", "102750.472500", "102752.262500", "102750.670000", "102752.460000", "102750.870000", "102752.660000", "102751.067500", "102752.857500", "102750.272500", "102752.062500", "102749.477500", "102751.267500", "102749.677500", "102751.467500", "102749.875000", "102751.665000", "102750.075000", "102751.865000", "102750.472500", "102752.262500", "102750.670000", "102752.460000", "102750.870000", "102752.660000", "102751.067500", "102752.857500", "102750.272500", "102752.062500", "102749.477500", "102751.267500", "102749.677500", "102751.467500", "102749.875000", "102751.665000", "102750.075000", "102751.865000", "102750.472500", "102752.262500", "102750.670000", "102752.460000", "102750.870000", "102752.660000", "102751.067500", "102752.857500", "102750.272500", "102755.662500", "102753.077500", "102754.867500", "102753.277500", "102755.067500", "102753.475000", "102755.265000", "102753.675000", "102755.465000", "102754.072500", "102755.862500", "102754.270000", "102756.060000", "102754.470000", "102756.260000", "102754.667500", "102756.457500", "102753.872500", "102755.662500", "102753.077500", "102754.867500", "102753.277500", "102755.067500", "102753.475000", "102755.265000", "102753.675000", "102755.465000", "102754.072500", "102755.862500", "102754.270000", "102756.060000", "102754.470000", "102756.260000", "102754.667500", "102756.457500", "102753.872500", "102755.662500", "102753.077500", "102754.867500", "102753.277500", "102755.067500", "102753.475000", "102755.265000", "102753.675000", "102755.465000", "102754.072500", "102755.862500", "102754.270000", "102756.060000", "102754.470000", "102756.260000", "102754.667500", "102756.457500", "102753.872500", "102755.662500", "102753.077500", "102754.867500", "102753.277500", "102755.067500", "102753.475000", "102755.265000", "102753.675000", "102755.465000", "102754.072500", "102755.862500", "102754.270000", "102756.060000", "102754.470000", "102756.260000", "102754.667500", "102756.457500", "102753.872500", "102759.262500", "102756.677500", "102758.467500", "102756.877500", "102758.667500", "102757.075000", "102758.865000", "102757.275000", "102759.065000", "102757.672500", "102759.462500", "102757.870000", "102759.660000", "102758.070000", "102759.860000", "102758.267500", "102800.057500", "102757.472500", "102759.262500", "102756.677500", "102758.467500", "102756.877500", "102758.667500", "102757.075000", "102758.865000", "102757.275000", "102759.065000", "102757.672500", "102759.462500", "102757.870000", "102759.660000", "102758.070000", "102759.860000", "102758.267500", "102800.057500", "102757.472500", "102759.262500", "102756.677500", "102758.467500", "102756.877500", "102758.667500", "102757.075000", "102758.865000", "102757.275000", "102759.065000", "102757.672500", "102759.462500", "102757.870000", "102759.660000", "102758.070000", "102759.860000", "102758.267500", "102800.057500", "102757.472500", "102759.262500", "102756.677500", "102758.467500", "102756.877500", "102758.667500", "102757.075000", "102758.865000", "102757.275000", "102759.065000", "102757.672500", "102759.462500", "102757.870000", "102759.660000", "102758.070000", "102759.860000", "102758.267500", "102800.057500", "102757.472500", "102802.862500", "102800.277500", "102802.067500", "102800.477500", "102802.267500", "102800.675000", "102802.465000", "102800.875000", "102802.665000", "102801.272500", "102803.062500", "102801.470000", "102803.260000", "102801.670000", "102803.460000", "102801.867500", "102803.657500", "102801.072500", "102802.862500", "102800.277500", "102802.067500", "102800.477500", "102802.267500", "102800.675000", "102802.465000", "102800.875000", "102802.665000", "102801.272500", "102803.062500", "102801.470000", "102803.260000", "102801.670000", "102803.460000", "102801.867500", "102803.657500", "102801.072500", "102802.862500", "102800.277500", "102802.067500", "102800.477500", "102802.267500", "102800.675000", "102802.465000", "102800.875000", "102802.665000", "102801.272500", "102803.062500", "102801.470000", "102803.260000", "102801.670000", "102803.460000", "102801.867500", "102803.657500", "102801.072500", "102802.862500", "102800.277500", "102802.067500", "102800.477500", "102802.267500", "102800.675000", "102802.465000", "102800.875000", "102802.665000", "102801.272500", "102803.062500", "102801.470000", "102803.260000", "102801.670000", "102803.460000", "102801.867500", "102803.657500", "102801.072500", "102806.462500", "102803.877500", "102805.667500", "102804.077500", "102805.867500", "102804.275000", "102806.065000", "102804.475000", "102806.265000", "102804.872500", "102806.662500", "102805.070000", "102806.860000", "102805.270000", "102807.060000", "102805.467500", "102807.257500", "102804.672500", "102806.462500", "102803.877500", "102805.667500", "102804.077500", "102805.867500", "102804.275000", "102806.065000", "102804.475000", "102806.265000", "102804.872500", "102806.662500", "102805.070000", "102806.860000", "102805.270000", "102807.060000", "102805.467500", "102807.257500", "102804.672500", "102806.462500", "102803.877500", "102805.667500", "102804.077500", "102805.867500", "102804.275000", "102806.065000", "102804.475000", "102806.265000", "102804.872500", "102806.662500", "102805.070000", "102806.860000", "102805.270000", "102807.060000", "102805.467500", "102807.257500", "102804.672500", "102806.462500", "102803.877500", "102805.667500", "102804.077500", "102805.867500", "102804.275000", "102806.065000", "102804.475000", "102806.265000", "102804.872500", "102806.662500", "102805.070000", "102806.860000", "102805.270000", "102807.060000", "102805.467500", "102807.257500", "102804.672500", "102810.062500", "102807.477500", "102809.267500", "102807.677500", "102809.467500", "102807.875000", "102809.665000", "102808.075000", "102809.865000", "102808.472500", "102810.262500", "102808.670000", "102810.460000", "102808.870000", "102810.660000", "102809.067500", "102810.857500", "102808.272500", "102810.062500", "102807.477500", "102809.267500", "102807.677500", "102809.467500", "102807.875000", "102809.665000", "102808.075000", "102809.865000", "102808.472500", "102810.262500", "102808.670000", "102810.460000", "102808.870000", "102810.660000", "102809.067500", "102810.857500", "102808.272500", "102810.062500", "102807.477500", "102809.267500", "102807.677500", "102809.467500", "102807.875000", "102809.665000", "102808.075000", "102809.865000", "102808.472500", "102810.262500", "102808.670000", "102810.460000", "102808.870000", "102810.660000", "102809.067500", "102810.857500", "102808.272500", "102810.062500", "102807.477500", "102809.267500", "102807.677500", "102809.467500", "102807.875000", "102809.665000", "102808.075000", "102809.865000", "102808.472500", "102810.262500", "102808.670000", "102810.460000", "102808.870000", "102810.660000", "102809.067500", "102810.857500", "102808.272500", "102813.662500", "102811.077500", "102812.867500", "102811.277500", "102813.067500", "102811.475000", "102813.265000", "102811.675000", "102813.465000", "102812.072500", "102813.862500", "102812.270000", "102814.060000", "102812.470000", "102814.260000", "102812.667500", "102814.457500", "102811.872500", "102813.662500", "102811.077500", "102812.867500", "102811.277500", "102813.067500", "102811.475000", "102813.265000", "102811.675000", "102813.465000", "102812.072500", "102813.862500", "102812.270000", "102814.060000", "102812.470000", "102814.260000", "102812.667500", "102814.457500", "102811.872500", "102813.662500", "102811.077500", "102812.867500", "102811.277500", "102813.067500", "102811.475000", "102813.265000", "102811.675000", "102813.465000", "102812.072500", "102813.862500", "102812.270000", "102814.060000", "102812.470000", "102814.260000", "102812.667500", "102814.457500", "102811.872500", "102813.662500", "102811.077500", "102812.867500", "102811.277500", "102813.067500", "102811.475000", "102813.265000", "102811.675000", "102813.465000", "102812.072500", "102813.862500", "102812.270000", "102814.060000", "102812.470000", "102814.260000", "102812.667500", "102814.457500", "102811.872500", "102817.262500", "102814.677500", "102816.467500", "102814.877500", "102816.667500", "102815.075000", "102816.865000", "102815.275000", "102817.065000", "102815.672500", "102817.462500", "102815.870000", "102817.660000", "102816.070000", "102817.860000", "102816.267500", "102818.057500", "102815.472500", "102817.262500", "102814.677500", "102816.467500", "102814.877500", "102816.667500", "102815.075000", "102816.865000", "102815.275000", "102817.065000", "102815.672500", "102817.462500", "102815.870000", "102817.660000", "102816.070000", "102817.860000", "102816.267500", "102818.057500", "102815.472500", "102817.262500", "102814.677500", "102816.467500", "102814.877500", "102816.667500", "102815.075000", "102816.865000", "102815.275000", "102817.065000", "102815.672500", "102817.462500", "102815.870000", "102817.660000", "102816.070000", "102817.860000", "102816.267500", "102818.057500", "102815.472500", "102817.262500", "102814.677500", "102816.467500", "102814.877500", "102816.667500", "102815.075000", "102816.865000", "102815.275000", "102817.065000", "102815.672500", "102817.462500", "102815.870000", "102817.660000", "102816.070000", "102817.860000", "102816.267500", "102818.057500", "102815.472500", "102820.862500", "102818.277500", "102820.067500", "102818.477500", "102820.267500", "102818.675000", "102820.465000", "102818.875000", "102820.665000", "102819.272500", "102821.062500", "102819.470000", "102821.260000", "102819.670000", "102821.460000", "102819.867500", "102821.657500", "102819.072500", "102820.862500", "102818.277500", "102820.067500", "102818.477500", "102820.267500", "102818.675000", "102820.465000", "102818.875000", "102820.665000", "102819.272500", "102821.062500", "102819.470000", "102821.260000", "102819.670000", "102821.460000", "102819.867500", "102821.657500", "102819.072500", "102820.862500", "102818.277500", "102820.067500", "102818.477500", "102820.267500", "102818.675000", "102820.465000", "102818.875000", "102820.665000", "102819.272500", "102821.062500", "102819.470000", "102821.260000", "102819.670000", "102821.460000", "102819.867500", "102821.657500", "102819.072500", "102820.862500", "102818.277500", "102820.067500", "102818.477500", "102820.267500", "102818.675000", "102820.465000", "102818.875000", "102820.665000", "102819.272500", "102821.062500", "102819.470000", "102821.260000", "102819.670000", "102821.460000", "102819.867500", "102821.657500", "102819.072500", "102824.462500", "102821.877500", "102823.667500", "102822.077500", "102823.867500", "102822.275000", "102824.065000", "102822.475000", "102824.265000", "102822.872500", "102824.662500", "102823.070000", "102824.860000", "102823.270000", "102825.060000", "102823.467500", "102825.257500", "102822.672500", "102824.462500", "102821.877500", "102823.667500", "102822.077500", "102823.867500", "102822.275000", "102824.065000", "102822.475000", "102824.265000", "102822.872500", "102824.662500", "102823.070000", "102824.860000", "102823.270000", "102825.060000", "102823.467500", "102825.257500", "102822.672500", "102824.462500", "102821.877500", "102823.667500", "102822.077500", "102823.867500", "102822.275000", "102824.065000", "102822.475000", "102824.265000", "102822.872500", "102824.662500", "102823.070000", "102824.860000", "102823.270000", "102825.060000", "102823.467500", "102825.257500", "102822.672500", "102824.462500", "102821.877500", "102823.667500", "102822.077500", "102823.867500", "102822.275000", "102824.065000", "102822.475000", "102824.265000", "102822.872500", "102824.662500", "102823.070000", "102824.860000", "102823.270000", "102825.060000", "102823.467500", "102825.257500", "102822.672500", "102828.062500", "102825.477500", "102827.267500", "102825.677500", "102827.467500", "102825.875000", "102827.665000", "102826.075000", "102827.865000", "102826.472500", "102828.262500", "102826.670000", "102828.460000", "102826.870000", "102828.660000", "102827.067500", "102828.857500", "102826.272500", "102828.062500", "102825.477500", "102827.267500", "102825.677500", "102827.467500", "102825.875000", "102827.665000", "102826.075000", "102827.865000", "102826.472500", "102828.262500", "102826.670000", "102828.460000", "102826.870000", "102828.660000", "102827.067500", "102828.857500", "102826.272500", "102828.062500", "102825.477500", "102827.267500", "102825.677500", "102827.467500", "102825.875000", "102827.665000", "102826.075000", "102827.865000", "102826.472500", "102828.262500", "102826.670000", "102828.460000", "102826.870000", "102828.660000", "102827.067500", "102828.857500", "102826.272500", "102828.062500", "102825.477500", "102827.267500", "102825.677500", "102827.467500", "102825.875000", "102827.665000", "102826.075000", "102827.865000", "102826.472500", "102828.262500", "102826.670000", "102828.460000", "102826.870000", "102828.660000", "102827.067500", "102828.857500", "102826.272500", "102831.662500", "102829.077500", "102830.867500", "102829.277500", "102831.067500", "102829.475000", "102831.265000", "102829.675000", "102831.465000", "102830.072500", "102831.862500", "102830.270000", "102832.060000", "102830.470000", "102832.260000", "102830.667500", "102832.457500", "102829.872500", "102831.662500", "102829.077500", "102830.867500", "102829.277500", "102831.067500", "102829.475000", "102831.265000", "102829.675000", "102831.465000", "102830.072500", "102831.862500", "102830.270000", "102832.060000", "102830.470000", "102832.260000", "102830.667500", "102832.457500", "102829.872500", "102831.662500", "102829.077500", "102830.867500", "102829.277500", "102831.067500", "102829.475000", "102831.265000", "102829.675000", "102831.465000", "102830.072500", "102831.862500", "102830.270000", "102832.060000", "102830.470000", "102832.260000", "102830.667500", "102832.457500", "102829.872500", "102831.662500", "102829.077500", "102830.867500", "102829.277500", "102831.067500", "102829.475000", "102831.265000", "102829.675000", "102831.465000", "102830.072500", "102831.862500", "102830.270000", "102832.060000", "102830.470000", "102832.260000", "102830.667500", "102832.457500", "102829.872500", "102835.262500", "102832.677500", "102834.467500", "102832.877500", "102834.667500", "102833.075000", "102834.865000", "102833.275000", "102835.065000", "102833.672500", "102835.462500", "102833.870000", "102835.660000", "102834.070000", "102835.860000", "102834.267500", "102836.057500", "102833.472500", "102835.262500", "102832.677500", "102834.467500", "102832.877500", "102834.667500", "102833.075000", "102834.865000", "102833.275000", "102835.065000", "102833.672500", "102835.462500", "102833.870000", "102835.660000", "102834.070000", "102835.860000", "102834.267500", "102836.057500", "102833.472500", "102835.262500", "102832.677500", "102834.467500", "102832.877500", "102834.667500", "102833.075000", "102834.865000", "102833.275000", "102835.065000", "102833.672500", "102835.462500", "102833.870000", "102835.660000", "102834.070000", "102835.860000", "102834.267500", "102836.057500", "102833.472500", "102835.262500", "102832.677500", "102834.467500", "102832.877500", "102834.667500", "102833.075000", "102834.865000", "102833.275000", "102835.065000", "102833.672500", "102835.462500", "102833.870000", "102835.660000", "102834.070000", "102835.860000", "102834.267500", "102836.057500", "102833.472500", "102838.862500", "102836.277500", "102838.067500", "102836.477500", "102838.267500", "102836.675000", "102838.465000", "102836.875000", "102838.665000", "102837.272500", "102839.062500", "102837.470000", "102839.260000", "102837.670000", "102839.460000", "102837.867500", "102839.657500", "102837.072500", "102838.862500", "102836.277500", "102838.067500", "102836.477500", "102838.267500", "102836.675000", "102838.465000", "102836.875000", "102838.665000", "102837.272500", "102839.062500", "102837.470000", "102839.260000", "102837.670000", "102839.460000", "102837.867500", "102839.657500", "102837.072500", "102838.862500", "102836.277500", "102838.067500", "102836.477500", "102838.267500", "102836.675000", "102838.465000", "102836.875000", "102838.665000", "102837.272500", "102839.062500", "102837.470000", "102839.260000", "102837.670000", "102839.460000", "102837.867500", "102839.657500", "102837.072500", "102838.862500", "102836.277500", "102838.067500", "102836.477500", "102838.267500", "102836.675000", "102838.465000", "102836.875000", "102838.665000", "102837.272500", "102839.062500", "102837.470000", "102839.260000", "102837.670000", "102839.460000", "102837.867500", "102839.657500", "102837.072500", "102842.462500", "102839.877500", "102841.667500", "102840.077500", "102841.867500", "102840.275000", "102842.065000", "102840.475000", "102842.265000", "102840.872500", "102842.662500", "102841.070000", "102842.860000", "102841.270000", "102843.060000", "102841.467500", "102843.257500", "102840.672500", "102842.462500", "102839.877500", "102841.667500", "102840.077500", "102841.867500", "102840.275000", "102842.065000", "102840.475000", "102842.265000", "102840.872500", "102842.662500", "102841.070000", "102842.860000", "102841.270000", "102843.060000", "102841.467500", "102843.257500", "102840.672500", "102842.462500", "102839.877500", "102841.667500", "102840.077500", "102841.867500", "102840.275000", "102842.065000", "102840.475000", "102842.265000", "102840.872500", "102842.662500", "102841.070000", "102842.860000", "102841.270000", "102843.060000", "102841.467500", "102843.257500", "102840.672500", "102842.462500", "102839.877500", "102841.667500", "102840.077500", "102841.867500", "102840.275000", "102842.065000", "102840.475000", "102842.265000", "102840.872500", "102842.662500", "102841.070000", "102842.860000", "102841.270000", "102843.060000", "102841.467500", "102843.257500", "102840.672500", "102846.062500", "102843.477500", "102845.267500", "102843.677500", "102845.467500", "102843.875000", "102845.665000", "102844.075000", "102845.865000", "102844.472500", "102846.262500", "102844.670000", "102846.460000", "102844.870000", "102846.660000", "102845.067500", "102846.857500", "102844.272500", "102846.062500", "102843.477500", "102845.267500", "102843.677500", "102845.467500", "102843.875000", "102845.665000", "102844.075000", "102845.865000", "102844.472500", "102846.262500", "102844.670000", "102846.460000", "102844.870000", "102846.660000", "102845.067500", "102846.857500", "102844.272500", "102846.062500", "102843.477500", "102845.267500", "102843.677500", "102845.467500", "102843.875000", "102845.665000", "102844.075000", "102845.865000", "102844.472500", "102846.262500", "102844.670000", "102846.460000", "102844.870000", "102846.660000", "102845.067500", "102846.857500", "102844.272500", "102846.062500", "102843.477500", "102845.267500", "102843.677500", "102845.467500", "102843.875000", "102845.665000", "102844.075000", "102845.865000", "102844.472500", "102846.262500", "102844.670000", "102846.460000", "102844.870000", "102846.660000", "102845.067500", "102846.857500", "102844.272500", "102849.662500", "102847.077500", "102848.867500", "102847.277500", "102849.067500", "102847.475000", "102849.265000", "102847.675000", "102849.465000", "102848.072500", "102849.862500", "102848.270000", "102850.060000", "102848.470000", "102850.260000", "102848.667500", "102850.457500", "102847.872500", "102849.662500", "102847.077500", "102848.867500", "102847.277500", "102849.067500", "102847.475000", "102849.265000", "102847.675000", "102849.465000", "102848.072500", "102849.862500", "102848.270000", "102850.060000", "102848.470000", "102850.260000", "102848.667500", "102850.457500", "102847.872500", "102849.662500", "102847.077500", "102848.867500", "102847.277500", "102849.067500", "102847.475000", "102849.265000", "102847.675000", "102849.465000", "102848.072500", "102849.862500", "102848.270000", "102850.060000", "102848.470000", "102850.260000", "102848.667500", "102850.457500", "102847.872500", "102849.662500", "102847.077500", "102848.867500", "102847.277500", "102849.067500", "102847.475000", "102849.265000", "102847.675000", "102849.465000", "102848.072500", "102849.862500", "102848.270000", "102850.060000", "102848.470000", "102850.260000", "102848.667500", "102850.457500", "102847.872500", "102853.262500", "102850.677500", "102852.467500", "102850.877500", "102852.667500", "102851.075000", "102852.865000", "102851.275000", "102853.065000", "102851.672500", "102853.462500", "102851.870000", "102853.660000", "102852.070000", "102853.860000", "102852.267500", "102854.057500", "102851.472500", "102853.262500", "102850.677500", "102852.467500", "102850.877500", "102852.667500", "102851.075000", "102852.865000", "102851.275000", "102853.065000", "102851.672500", "102853.462500", "102851.870000", "102853.660000", "102852.070000", "102853.860000", "102852.267500", "102854.057500", "102851.472500", "102853.262500", "102850.677500", "102852.467500", "102850.877500", "102852.667500", "102851.075000", "102852.865000", "102851.275000", "102853.065000", "102851.672500", "102853.462500", "102851.870000", "102853.660000", "102852.070000", "102853.860000", "102852.267500", "102854.057500", "102851.472500", "102853.262500", "102850.677500", "102852.467500", "102850.877500", "102852.667500", "102851.075000", "102852.865000", "102851.275000", "102853.065000", "102851.672500", "102853.462500", "102851.870000", "102853.660000", "102852.070000", "102853.860000", "102852.267500", "102854.057500", "102851.472500", "102856.862500", "102854.277500", "102856.067500", "102854.477500", "102856.267500", "102854.675000", "102856.465000", "102854.875000", "102856.665000", "102855.272500", "102857.062500", "102855.470000", "102857.260000", "102855.670000", "102857.460000", "102855.867500", "102857.657500", "102855.072500", "102856.862500", "102854.277500", "102856.067500", "102854.477500", "102856.267500", "102854.675000", "102856.465000", "102854.875000", "102856.665000", "102855.272500", "102857.062500", "102855.470000", "102857.260000", "102855.670000", "102857.460000", "102855.867500", "102857.657500", "102855.072500", "102856.862500", "102854.277500", "102856.067500", "102854.477500", "102856.267500", "102854.675000", "102856.465000", "102854.875000", "102856.665000", "102855.272500", "102857.062500", "102855.470000", "102857.260000", "102855.670000", "102857.460000", "102855.867500", "102857.657500", "102855.072500", "102856.862500", "102854.277500", "102856.067500", "102854.477500", "102856.267500", "102854.675000", "102856.465000", "102854.875000", "102856.665000", "102855.272500", "102857.062500", "102855.470000", "10