{
  "AcquisitionMatrixPE": 122,
  "AcquisitionNumber": 1,
  "AcquisitionTime": "09:47:10.485000",
  "BandwidthPerPixelPhaseEncode": 27.785,
  "BaseResolution": 122,
  "BodyPartExamined": "BRAIN",
  "CoilCombinationMethod": "Adaptive Combine",
  "ConsistencyInfo": "N4_VE11C_LATEST_20160120",
  "ConversionSoftware": "dcm2niix",
  "ConversionSoftwareVersion": "v1.0.20220720",
  "DerivedVendorReportedEchoSpacing": 0.000590011,
  "DeviceSerialNumber": "66112",
  "DiffusionScheme": "Monopolar",
  "DwellTime": 2e-06,
  "EchoTime": 0.068,
  "EchoTrainLength": 61,
  "EffectiveEchoSpacing": 0.000295005,
  "FlipAngle": 90,
  "HeudiconvVersion": "0.13.1",
  "ImageOrientationPatientDICOM": [0.983055, 0.183002, 0.010591, -0.177411, 0.935301, 0.306167],
  "ImageOrientationText": "Tra>Cor(17.6)>Sag(-2.6)",
  "ImageType": [
    "ORIGINAL",
    "PRIMARY",
    "DIFFUSION",
    "NONE",
    "ND",
    "NORM"
],
  "ImagingFrequency": 123.252,
  "InPlanePhaseEncodingDirectionDICOM": "COL",
  "InstitutionAddress": "Maynard 3,Hanover,NH,US,03755",
  "InstitutionName": "Dartmouth College - PBS",
  "InstitutionalDepartmentName": "Department",
  "MRAcquisitionType": "2D",
  "MagneticFieldStrength": 3,
  "Manufacturer": "Siemens",
  "ManufacturersModelName": "Prisma",
  "Modality": "MR",
  "MultibandAccelerationFactor": 4,
  "NonlinearGradientCorrection": false,
  "ParallelReductionFactorInPlane": 2,
  "PartialFourier": 1,
  "PatientPosition": "HFS",
  "PercentPhaseFOV": 100,
  "PercentSampling": 100,
  "PhaseEncodingDirection": "j-",
  "PhaseEncodingSteps": 122,
  "PhaseResolution": 1,
  "PixelBandwidth": 2050,
  "ProcedureStepDescription": "dbic^QA",
  "ProtocolName": "dwi_acq-DTI-30-p2-s4",
  "PulseSequenceDetails": "%SiemensSeq%\\ep2d_diff",
  "ReceiveCoilActiveElements": "HEA;HEP",
  "ReceiveCoilName": "Head_32",
  "ReconMatrixPE": 122,
  "RefLinesPE": 38,
  "RepetitionTime": 3.6,
  "SAR": 0.162094,
  "ScanOptions": "FS",
  "ScanningSequence": "EP",
  "SequenceName": "*ep_b0",
  "SequenceVariant": "SK\\SP",
  "SeriesDescription": "dwi_acq-DTI-30-p2-s4",
  "SeriesNumber": 13,
  "ShimSetting": [4160, -7695, -7509, 276, 3, -163, -25, 131],
  "SliceThickness": 2,
  "SliceTiming": [2.58594, 0, 1.78906, 0.19531, 1.99219, 0.39844, 2.1875, 0.59375, 2.38281, 0.99219, 2.78125, 1.19531, 2.98438, 1.39062, 3.17969, 1.59375, 3.38281, 0.79688, 2.58594, 0, 1.78906, 0.19531, 1.99219, 0.39844, 2.1875, 0.59375, 2.38281, 0.99219, 2.78125, 1.19531, 2.98438, 1.39062, 3.17969, 1.59375, 3.38281, 0.79688, 2.58594, 0, 1.78906, 0.19531, 1.99219, 0.39844, 2.1875, 0.59375, 2.38281, 0.99219, 2.78125, 1.19531, 2.98438, 1.39062, 3.17969, 1.59375, 3.38281, 0.79688, 2.58594, 0, 1.78906, 0.19531, 1.99219, 0.39844, 2.1875, 0.59375, 2.38281, 0.99219, 2.78125, 1.19531, 2.98438, 1.39062, 3.17969, 1.59375, 3.38281, 0.79688],
  "SoftwareVersions": "syngo MR E11",
  "SpacingBetweenSlices": 2,
  "SpoilingState": true,
  "StationName": "AWP66112",
  "TotalReadoutTime": 0.0356956,
  "TxRefAmp": 227.881,
  "dcmmeta_affine": [
    [-1.9338794946670532, -0.34900543093681335, -0.09224683046340942, 144.71881103515625],
    [-0.36000481247901917, 1.8399357795715332, 0.6057167053222656, -100.99564361572266],
    [0.020834844559431076, -0.6022948026657104, 1.903839111328125, -35.983829498291016],
    [0.0, 0.0, 0.0, 1.0]
],
  "dcmmeta_reorient_transform": [
    [0.0, -1.0, 0.0, 121.0],
    [1.0, 0.0, 0.0, 0.0],
    [0.0, 0.0, -1.0, 71.0],
    [0.0, 0.0, 0.0, 1.0]
],
  "dcmmeta_shape": [122, 122, 72, 31],
  "dcmmeta_slice_dim": 2,
  "dcmmeta_version": 0.6,
  "global": {
    "const": {
      "AccessionNumber": "qa",
      "AcquisitionMatrix": [122, 0, 0, 122],
      "AngioFlag": "N",
      "BitsAllocated": 16,
      "BitsStored": 12,
      "BodyPartExamined": "BRAIN",
      "Columns": 122,
      "EchoNumbers": 1,
      "EchoTime": 68.0,
      "EchoTrainLength": 61,
      "FlipAngle": 90.0,
      "HighBit": 11,
      "ImageOrientationPatient": [0.98305540885454, 0.18300243952696, 0.01059104570018, -0.1774110883589, 0.93530068110278, 0.30616652602134],
      "ImageType": [
        "ORIGINAL",
        "PRIMARY",
        "DIFFUSION",
        "NONE",
        "ND",
        "NORM"
],
      "ImagedNucleus": "1H",
      "ImagingFrequency": 123.252417,
      "InPlanePhaseEncodingDirection": "COL",
      "MRAcquisitionType": "2D",
      "MagneticFieldStrength": 3.0,
      "Manufacturer": "SIEMENS",
      "ManufacturerModelName": "Prisma",
      "Modality": "MR",
      "NumberOfAverages": 1.0,
      "NumberOfPhaseEncodingSteps": 122,
      "PercentPhaseFieldOfView": 100.0,
      "PercentSampling": 100.0,
      "PerformedProcedureStepStartTime": "091022.010000",
      "PhotometricInterpretation": "MONOCHROME2",
      "PixelBandwidth": 2050.0,
      "PixelRepresentation": 0,
      "PixelSpacing": [1.9672131538391, 1.9672131538391],
      "ProtocolName": "dwi_acq-DTI-30-p2-s4",
      "RepetitionTime": 3600.0,
      "Rows": 122,
      "SAR": 0.16209426057106,
      "SamplesPerPixel": 1,
      "ScanOptions": "FS",
      "ScanningSequence": "EP",
      "SequenceVariant": [
        "SK",
        "SP"
],
      "SeriesDescription": "dwi_acq-DTI-30-p2-s4",
      "SeriesNumber": 13,
      "SeriesTime": "094719.234000",
      "SliceThickness": 2.0,
      "SmallestImagePixelValue": 0,
      "SoftwareVersions": "syngo MR E11",
      "SpacingBetweenSlices": 2.0,
      "SpecificCharacterSet": "ISO_IR 100",
      "StudyID": "14",
      "StudyTime": "091021.935000",
      "TransmitCoilName": "Body",
      "VariableFlipAngleFlag": "N",
      "WindowCenterWidthExplanation": "Algo1",
      "dBdt": 0.0},
    "slices": {
      "AcquisitionTime": ["094710.485000", "094707.897500", "094709.687500", "094708.097500", "094709.887500", "094708.295000", "094710.085000", "094708.495000", "094710.285000", "094708.892500", "094710.682500", "094709.092500", "094710.882500", "094709.290000", "094711.080000", "094709.490000", "094711.280000", "094708.695000", "094710.485000", "094707.897500", "094709.687500", "094708.097500", "094709.887500", "094708.295000", "094710.085000", "094708.495000", "094710.285000", "094708.892500", "094710.682500", "094709.092500", "094710.882500", "094709.290000", "094711.080000", "094709.490000", "094711.280000", "094708.695000", "094710.485000", "094707.897500", "094709.687500", "094708.097500", "094709.887500", "094708.295000", "094710.085000", "094708.495000", "094710.285000", "094708.892500", "094710.682500", "094709.092500", "094710.882500", "094709.290000", "094711.080000", "094709.490000", "094711.280000", "094708.695000", "094710.485000", "094707.897500", "094709.687500", "094708.097500", "094709.887500", "094708.295000", "094710.085000", "094708.495000", "094710.285000", "094708.892500", "094710.682500", "094709.092500", "094710.882500", "094709.290000", "094711.080000", "094709.490000", "094711.280000", "094708.695000", "094714.085000", "094711.497500", "094713.287500", "094711.697500", "094713.487500", "094711.895000", "094713.685000", "094712.095000", "094713.885000", "094712.492500", "094714.282500", "094712.692500", "094714.482500", "094712.890000", "094714.680000", "094713.090000", "094714.880000", "094712.295000", "094714.085000", "094711.497500", "094713.287500", "094711.697500", "094713.487500", "094711.895000", "094713.685000", "094712.095000", "094713.885000", "094712.492500", "094714.282500", "094712.692500", "094714.482500", "094712.890000", "094714.680000", "094713.090000", "094714.880000", "094712.295000", "094714.085000", "094711.497500", "094713.287500", "094711.697500", "094713.487500", "094711.895000", "094713.685000", "094712.095000", "094713.885000", "094712.492500", "094714.282500", "094712.692500", "094714.482500", "094712.890000", "094714.680000", "094713.090000", "094714.880000", "094712.295000", "094714.085000", "094711.497500", "094713.287500", "094711.697500", "094713.487500", "094711.895000", "094713.685000", "094712.095000", "094713.885000", "094712.492500", "094714.282500", "094712.692500", "094714.482500", "094712.890000", "094714.680000", "094713.090000", "094714.880000", "094712.295000", "094717.685000", "094715.097500", "094716.887500", "094715.297500", "094717.087500", "094715.495000", "094717.285000", "094715.695000", "094717.485000", "094716.092500", "094717.882500", "094716.292500", "094718.082500", "094716.490000", "094718.280000", "094716.690000", "094718.480000", "094715.895000", "094717.685000", "094715.097500", "094716.887500", "094715.297500", "094717.087500", "094715.495000", "094717.285000", "094715.695000", "094717.485000", "094716.092500", "094717.882500", "094716.292500", "094718.082500", "094716.490000", "094718.280000", "094716.690000", "094718.480000", "094715.895000", "094717.685000", "094715.097500", "094716.887500", "094715.297500", "094717.087500", "094715.495000", "094717.285000", "094715.695000", "094717.485000", "094716.092500", "094717.882500", "094716.292500", "094718.082500", "094716.490000", "094718.280000", "094716.690000", "094718.480000", "094715.895000", "094717.685000", "094715.097500", "094716.887500", "094715.297500", "094717.087500", "094715.495000", "094717.285000", "094715.695000", "094717.485000", "094716.092500", "094717.882500", "094716.292500", "094718.082500", "094716.490000", "094718.280000", "094716.690000", "094718.480000", "094715.895000", "094721.285000", "094718.697500", "094720.487500", "094718.897500", "094720.687500", "094719.095000", "094720.885000", "094719.295000", "094721.085000", "094719.692500", "094721.482500", "094719.892500", "094721.682500", "094720.090000", "094721.880000", "094720.290000", "094722.080000", "094719.495000", "094721.285000", "094718.697500", "094720.487500", "094718.897500", "094720.687500", "094719.095000", "094720.885000", "094719.295000", "094721.085000", "094719.692500", "094721.482500", "094719.892500", "094721.682500", "094720.090000", "094721.880000", "094720.290000", "094722.080000", "094719.495000", "094721.285000", "094718.697500", "094720.487500", "094718.897500", "094720.687500", "094719.095000", "094720.885000", "094719.295000", "094721.085000", "094719.692500", "094721.482500", "094719.892500", "094721.682500", "094720.090000", "094721.880000", "094720.290000", "094722.080000", "094719.495000", "094721.285000", "094718.697500", "094720.487500", "094718.897500", "094720.687500", "094719.095000", "094720.885000", "094719.295000", "094721.085000", "094719.692500", "094721.482500", "094719.892500", "094721.682500", "094720.090000", "094721.880000", "094720.290000", "094722.080000", "094719.495000", "094724.885000", "094722.297500", "094724.087500", "094722.497500", "094724.287500", "094722.695000", "094724.485000", "094722.895000", "094724.685000", "094723.292500", "094725.082500", "094723.492500", "094725.282500", "094723.690000", "094725.480000", "094723.890000", "094725.680000", "094723.095000", "094724.885000", "094722.297500", "094724.087500", "094722.497500", "094724.287500", "094722.695000", "094724.485000", "094722.895000", "094724.685000", "094723.292500", "094725.082500", "094723.492500", "094725.282500", "094723.690000", "094725.480000", "094723.890000", "094725.680000", "094723.095000", "094724.885000", "094722.297500", "094724.087500", "094722.497500", "094724.287500", "094722.695000", "094724.485000", "094722.895000", "094724.685000", "094723.292500", "094725.082500", "094723.492500", "094725.282500", "094723.690000", "094725.480000", "094723.890000", "094725.680000", "094723.095000", "094724.885000", "094722.297500", "094724.087500", "094722.497500", "094724.287500", "094722.695000", "094724.485000", "094722.895000", "094724.685000", "094723.292500", "094725.082500", "094723.492500", "094725.282500", "094723.690000", "094725.480000", "094723.890000", "094725.680000", "094723.095000", "094728.485000", "094725.897500", "094727.687500", "094726.097500", "094727.887500", "094726.295000", "094728.085000", "094726.495000", "094728.285000", "094726.892500", "094728.682500", "094727.092500", "094728.882500", "094727.290000", "094729.080000", "094727.490000", "094729.280000", "094726.695000", "094728.485000", "094725.897500", "094727.687500", "094726.097500", "094727.887500", "094726.295000", "094728.085000", "094726.495000", "094728.285000", "094726.892500", "094728.682500", "094727.092500", "094728.882500", "094727.290000", "094729.080000", "094727.490000", "094729.280000", "094726.695000", "094728.485000", "094725.897500", "094727.687500", "094726.097500", "094727.887500", "094726.295000", "094728.085000", "094726.495000", "094728.285000", "094726.892500", "094728.682500", "094727.092500", "094728.882500", "094727.290000", "094729.080000", "094727.490000", "094729.280000", "094726.695000", "094728.485000", "094725.897500", "094727.687500", "094726.097500", "094727.887500", "094726.295000", "094728.085000", "094726.495000", "094728.285000", "094726.892500", "094728.682500", "094727.092500", "094728.882500", "094727.290000", "094729.080000", "094727.490000", "094729.280000", "094726.695000", "094732.085000", "094729.497500", "094731.287500", "094729.697500", "094731.487500", "094729.895000", "094731.685000", "094730.095000", "094731.885000", "094730.492500", "094732.282500", "094730.692500", "094732.482500", "094730.890000", "094732.680000", "094731.090000", "094732.880000", "094730.295000", "094732.085000", "094729.497500", "094731.287500", "094729.697500", "094731.487500", "094729.895000", "094731.685000", "094730.095000", "094731.885000", "094730.492500", "094732.282500", "094730.692500", "094732.482500", "094730.890000", "094732.680000", "094731.090000", "094732.880000", "094730.295000", "094732.085000", "094729.497500", "094731.287500", "094729.697500", "094731.487500", "094729.895000", "094731.685000", "094730.095000", "094731.885000", "094730.492500", "094732.282500", "094730.692500", "094732.482500", "094730.890000", "094732.680000", "094731.090000", "094732.880000", "094730.295000", "094732.085000", "094729.497500", "094731.287500", "094729.697500", "094731.487500", "094729.895000", "094731.685000", "094730.095000", "094731.885000", "094730.492500", "094732.282500", "094730.692500", "094732.482500", "094730.890000", "094732.680000", "094731.090000", "094732.880000", "094730.295000", "094735.685000", "094733.097500", "094734.887500", "094733.297500", "094735.087500", "094733.495000", "094735.285000", "094733.695000", "094735.485000", "094734.092500", "094735.882500", "094734.292500", "094736.082500", "094734.490000", "094736.280000", "094734.690000", "094736.480000", "094733.895000", "094735.685000", "094733.097500", "094734.887500", "094733.297500", "094735.087500", "094733.495000", "094735.285000", "094733.695000", "094735.485000", "094734.092500", "094735.882500", "094734.292500", "094736.082500", "094734.490000", "094736.280000", "094734.690000", "094736.480000", "094733.895000", "094735.685000", "094733.097500", "094734.887500", "094733.297500", "094735.087500", "094733.495000", "094735.285000", "094733.695000", "094735.485000", "094734.092500", "094735.882500", "094734.292500", "094736.082500", "094734.490000", "094736.280000", "094734.690000", "094736.480000", "094733.895000", "094735.685000", "094733.097500", "094734.887500", "094733.297500", "094735.087500", "094733.495000", "094735.285000", "094733.695000", "094735.485000", "094734.092500", "094735.882500", "094734.292500", "094736.082500", "094734.490000", "094736.280000", "094734.690000", "094736.480000", "094733.895000", "094739.285000", "094736.697500", "094738.487500", "094736.897500", "094738.687500", "094737.095000", "094738.885000", "094737.295000", "094739.085000", "094737.692500", "094739.482500", "094737.892500", "094739.682500", "094738.090000", "094739.880000", "094738.290000", "094740.080000", "094737.495000", "094739.285000", "094736.697500", "094738.487500", "094736.897500", "094738.687500", "094737.095000", "094738.885000", "094737.295000", "094739.085000", "094737.692500", "094739.482500", "094737.892500", "094739.682500", "094738.090000", "094739.880000", "094738.290000", "094740.080000", "094737.495000", "094739.285000", "094736.697500", "094738.487500", "094736.897500", "094738.687500", "094737.095000", "094738.885000", "094737.295000", "094739.085000", "094737.692500", "094739.482500", "094737.892500", "094739.682500", "094738.090000", "094739.880000", "094738.290000", "094740.080000", "094737.495000", "094739.285000", "094736.697500", "094738.487500", "094736.897500", "094738.687500", "094737.095000", "094738.885000", "094737.295000", "094739.085000", "094737.692500", "094739.482500", "094737.892500", "094739.682500", "094738.090000", "094739.880000", "094738.290000", "094740.080000", "094737.495000", "094742.885000", "094740.297500", "094742.087500", "094740.497500", "094742.287500", "094740.695000", "094742.485000", "094740.895000", "094742.685000", "094741.292500", "094743.082500", "094741.492500", "094743.282500", "094741.690000", "094743.480000", "094741.890000", "094743.680000", "094741.095000", "094742.885000", "094740.297500", "094742.087500", "094740.497500", "094742.287500", "094740.695000", "094742.485000", "094740.895000", "094742.685000", "094741.292500", "094743.082500", "094741.492500", "094743.282500", "094741.690000", "094743.480000", "094741.890000", "094743.680000", "094741.095000", "094742.885000", "094740.297500", "094742.087500", "094740.497500", "094742.287500", "094740.695000", "094742.485000", "094740.895000", "094742.685000", "094741.292500", "094743.082500", "094741.492500", "094743.282500", "094741.690000", "094743.480000", "094741.890000", "094743.680000", "094741.095000", "094742.885000", "094740.297500", "094742.087500", "094740.497500", "094742.287500", "094740.695000", "094742.485000", "094740.895000", "094742.685000", "094741.292500", "094743.082500", "094741.492500", "094743.282500", "094741.690000", "094743.480000", "094741.890000", "094743.680000", "094741.095000", "094746.485000", "094743.897500", "094745.687500", "094744.097500", "094745.887500", "094744.295000", "094746.085000", "094744.495000", "094746.285000", "094744.892500", "094746.682500", "094745.092500", "094746.882500", "094745.290000", "094747.080000", "094745.490000", "094747.280000", "094744.695000", "094746.485000", "094743.897500", "094745.687500", "094744.097500", "094745.887500", "094744.295000", "094746.085000", "094744.495000", "094746.285000", "094744.892500", "094746.682500", "094745.092500", "094746.882500", "094745.290000", "094747.080000", "094745.490000", "094747.280000", "094744.695000", "094746.485000", "094743.897500", "094745.687500", "094744.097500", "094745.887500", "094744.295000", "094746.085000", "094744.495000", "094746.285000", "094744.892500", "094746.682500", "094745.092500", "094746.882500", "094745.290000", "094747.080000", "094745.490000", "094747.280000", "094744.695000", "094746.485000", "094743.897500", "094745.687500", "094744.097500", "094745.887500", "094744.295000", "094746.085000", "094744.495000", "094746.285000", "094744.892500", "094746.682500", "094745.092500", "094746.882500", "094745.290000", "094747.080000", "094745.490000", "094747.280000", "094744.695000", "094750.085000", "094747.497500", "094749.287500", "094747.697500", "094749.487500", "094747.895000", "094749.685000", "094748.095000", "094749.885000", "094748.492500", "094750.282500", "094748.692500", "094750.482500", "094748.890000", "094750.680000", "094749.090000", "094750.880000", "094748.295000", "094750.085000", "094747.497500", "094749.287500", "094747.697500", "094749.487500", "094747.895000", "094749.685000", "094748.095000", "094749.885000", "094748.492500", "094750.282500", "094748.692500", "094750.482500", "094748.890000", "094750.680000", "094749.090000", "094750.880000", "094748.295000", "094750.085000", "094747.497500", "094749.287500", "094747.697500", "094749.487500", "094747.895000", "094749.685000", "094748.095000", "094749.885000", "094748.492500", "094750.282500", "094748.692500", "094750.482500", "094748.890000", "094750.680000", "094749.090000", "094750.880000", "094748.295000", "094750.085000", "094747.497500", "094749.287500", "094747.697500", "094749.487500", "094747.895000", "094749.685000", "094748.095000", "094749.885000", "094748.492500", "094750.282500", "094748.692500", "094750.482500", "094748.890000", "094750.680000", "094749.090000", "094750.880000", "094748.295000", "094753.685000", "094751.097500", "094752.887500", "094751.297500", "094753.087500", "094751.495000", "094753.285000", "094751.695000", "094753.485000", "094752.092500", "094753.882500", "094752.292500", "094754.082500", "094752.490000", "094754.280000", "094752.690000", "094754.480000", "094751.895000", "094753.685000", "094751.097500", "094752.887500", "094751.297500", "094753.087500", "094751.495000", "094753.285000", "094751.695000", "094753.485000", "094752.092500", "094753.882500", "094752.292500", "094754.082500", "094752.490000", "094754.280000", "094752.690000", "094754.480000", "094751.895000", "094753.685000", "094751.097500", "094752.887500", "094751.297500", "094753.087500", "094751.495000", "094753.285000", "094751.695000", "094753.485000", "094752.092500", "094753.882500", "094752.292500", "094754.082500", "094752.490000", "094754.280000", "094752.690000", "094754.480000", "094751.895000", "094753.685000", "094751.097500", "094752.887500", "094751.297500", "094753.087500", "094751.495000", "094753.285000", "094751.695000", "094753.485000", "094752.092500", "094753.882500", "094752.292500", "094754.082500", "094752.490000", "094754.280000", "094752.690000", "094754.480000", "094751.895000", "094757.285000", "094754.697500", "094756.487500", "094754.897500", "094756.687500", "094755.095000", "094756.885000", "094755.295000", "094757.085000", "094755.692500", "094757.482500", "094755.892500", "094757.682500", "094756.090000", "094757.880000", "094756.290000", "094758.080000", "094755.495000", "094757.285000", "094754.697500", "094756.487500", "094754.897500", "094756.687500", "094755.095000", "094756.885000", "094755.295000", "094757.085000", "094755.692500", "094757.482500", "094755.892500", "094757.682500", "094756.090000", "094757.880000", "094756.290000", "094758.080000", "094755.495000", "094757.285000", "094754.697500", "094756.487500", "094754.897500", "094756.687500", "094755.095000", "094756.885000", "094755.295000", "094757.085000", "094755.692500", "094757.482500", "094755.892500", "094757.682500", "094756.090000", "094757.880000", "094756.290000", "094758.080000", "094755.495000", "094757.285000", "094754.697500", "094756.487500", "094754.897500", "094756.687500", "094755.095000", "094756.885000", "094755.295000", "094757.085000", "094755.692500", "094757.482500", "094755.892500", "094757.682500", "094756.090000", "094757.880000", "094756.290000", "094758.080000", "094755.495000", "094800.885000", "094758.297500", "094800.087500", "094758.497500", "094800.287500", "094758.695000", "094800.485000", "094758.895000", "094800.685000", "094759.292500", "094801.082500", "094759.492500", "094801.282500", "094759.690000", "094801.480000", "094759.890000", "094801.680000", "094759.095000", "094800.885000", "094758.297500", "094800.087500", "094758.497500", "094800.287500", "094758.695000", "094800.485000", "094758.895000", "094800.685000", "094759.292500", "094801.082500", "094759.492500", "094801.282500", "094759.690000", "094801.480000", "094759.890000", "094801.680000", "094759.095000", "094800.885000", "094758.297500", "094800.087500", "094758.497500", "094800.287500", "094758.695000", "094800.485000", "094758.895000", "094800.685000", "094759.292500", "094801.082500", "094759.492500", "094801.282500", "094759.690000", "094801.480000", "094759.890000", "094801.680000", "094759.095000", "094800.885000", "094758.297500", "094800.087500", "094758.497500", "094800.287500", "094758.695000", "094800.485000", "094758.895000", "094800.685000", "094759.292500", "094801.082500", "094759.492500", "094801.282500", "094759.690000", "094801.480000", "094759.890000", "094801.680000", "094759.095000", "094804.485000", "094801.897500", "094803.687500", "094802.097500", "094803.887500", "094802.295000", "094804.085000", "094802.495000", "094804.285000", "094802.892500", "094804.682500", "094803.092500", "094804.882500", "094803.290000", "094805.080000", "094803.490000", "094805.280000", "094802.695000", "094804.485000", "094801.897500", "094803.687500", "094802.097500", "094803.887500", "094802.295000", "094804.085000", "094802.495000", "094804.285000", "094802.892500", "094804.682500", "094803.092500", "094804.882500", "094803.290000", "094805.080000", "094803.490000", "094805.280000", "094802.695000", "094804.485000", "094801.897500", "094803.687500", "094802.097500", "094803.887500", "094802.295000", "094804.085000", "094802.495000", "094804.285000", "094802.892500", "094804.682500", "094803.092500", "094804.882500", "094803.290000", "094805.080000", "094803.490000", "094805.280000", "094802.695000", "094804.485000", "094801.897500", "094803.687500", "094802.097500", "094803.887500", "094802.295000", "094804.085000", "094802.495000", "094804.285000", "094802.892500", "094804.682500", "094803.092500", "094804.882500", "094803.290000", "094805.080000", "094803.490000", "094805.280000", "094802.695000", "094808.085000", "094805.497500", "094807.287500", "094805.697500", "094807.487500", "094805.895000", "094807.685000", "094806.095000", "094807.885000", "094806.492500", "094808.282500", "094806.692500", "094808.482500", "094806.890000", "094808.680000", "094807.090000", "094808.880000", "094806.295000", "094808.085000", "094805.497500", "094807.287500", "094805.697500", "094807.487500", "094805.895000", "094807.685000", "094806.095000", "094807.885000", "094806.492500", "094808.282500", "094806.692500", "094808.482500", "094806.890000", "094808.680000", "094807.090000", "094808.880000", "094806.295000", "094808.085000", "094805.497500", "094807.287500", "094805.697500", "094807.487500", "094805.895000", "094807.685000", "094806.095000", "094807.885000", "094806.492500", "094808.282500", "094806.692500", "094808.482500", "094806.890000", "094808.680000", "094807.090000", "094808.880000", "094806.295000", "094808.085000", "094805.497500", "094807.287500", "094805.697500", "094807.487500", "094805.895000", "094807.685000", "094806.095000", "094807.885000", "094806.492500", "094808.282500", "094806.692500", "094808.482500", "094806.890000", "094808.680000", "094807.090000", "094808.880000", "094806.295000", "094811.685000", "094809.097500", "094810.887500", "094809.297500", "094811.087500", "094809.495000", "094811.285000", "094809.695000", "094811.485000", "094810.092500", "094811.882500", "094810.292500", "094812.082500", "094810.490000", "094812.280000", "094810.690000", "094812.480000", "094809.895000", "094811.685000", "094809.097500", "094810.887500", "094809.297500", "094811.087500", "094809.495000", "094811.285000", "094809.695000", "094811.485000", "094810.092500", "094811.882500", "094810.292500", "094812.082500", "094810.490000", "094812.280000", "094810.690000", "094812.480000", "094809.895000", "094811.685000", "094809.097500", "094810.887500", "094809.297500", "094811.087500", "094809.495000", "094811.285000", "094809.695000", "094811.485000", "094810.092500", "094811.882500", "094810.292500", "094812.082500", "094810.490000", "094812.280000", "094810.690000", "094812.480000", "094809.895000", "094811.685000", "094809.097500", "094810.887500", "094809.297500", "094811.087500", "094809.495000", "094811.285000", "094809.695000", "094811.485000", "094810.092500", "094811.882500", "094810.292500", "094812.082500", "094810.490000", "094812.280000", "094810.690000", "094812.480000", "094809.895000", "094815.285000", "094812.697500", "094814.487500", "094812.897500", "094814.687500", "094813.095000", "094814.885000", "094813.295000", "094815.085000", "094813.692500", "094815.482500", "094813.892500", "094815.682500", "094814.090000", "094815.880000", "094814.290000", "094816.080000", "094813.495000", "094815.285000", "094812.697500", "094814.487500", "094812.897500", "094814.687500", "094813.095000", "094814.885000", "094813.295000", "094815.085000", "094813.692500", "094815.482500", "094813.892500", "094815.682500", "094814.090000", "094815.880000", "094814.290000", "094816.080000", "094813.495000", "094815.285000", "094812.697500", "094814.487500", "094812.897500", "094814.687500", "094813.095000", "094814.885000", "094813.295000", "094815.085000", "094813.692500", "094815.482500", "094813.892500", "094815.682500", "094814.090000", "094815.880000", "094814.290000", "094816.080000", "094813.495000", "094815.285000", "094812.697500", "094814.487500", "094812.897500", "094814.687500", "094813.095000", "094814.885000", "094813.295000", "094815.085000", "094813.692500", "094815.482500", "094813.892500", "094815.682500", "094814.090000", "094815.880000", "094814.290000", "094816.080000", "094813.495000", "094818.885000", "094816.297500", "094818.087500", "094816.497500", "094818.287500", "094816.695000", "094818.485000", "094816.895000", "094818.685000", "094817.292500", "094819.082500", "094817.492500", "094819.282500", "094817.690000", "094819.480000", "094817.890000", "094819.680000", "094817.095000", "094818.885000", "094816.297500", "094818.087500", "094816.497500", "094818.287500", "094816.695000", "094818.485000", "094816.895000", "094818.685000", "094817.292500", "094819.082500", "094817.492500", "094819.282500", "094817.690000", "094819.480000", "094817.890000", "094819.680000", "094817.095000", "094818.885000", "094816.297500", "094818.087500", "094816.497500", "094818.287500", "094816.695000", "094818.485000", "094816.895000", "094818.685000", "094817.292500", "094819.082500", "094817.492500", "094819.282500", "094817.690000", "094819.480000", "094817.890000", "094819.680000", "094817.095000", "094818.885000", "094816.297500", "094818.087500", "094816.497500", "094818.287500", "094816.695000", "094818.485000", "094816.895000", "094818.685000", "094817.292500", "094819.082500",