{
  "AcquisitionMatrixPE": 80,
  "AcquisitionNumber": 1,
  "AcquisitionTime": "08:47:10.192500",
  "BandwidthPerPixelPhaseEncode": 48.077,
  "BaseResolution": 80,
  "BodyPartExamined": "BRAIN",
  "CoilCombinationMethod": "Sum of Squares",
  "ConsistencyInfo": "N4_VE11C_LATEST_20160120",
  "ConversionSoftware": "dcm2niix",
  "ConversionSoftwareVersion": "v1.0.20220720",
  "DerivedVendorReportedEchoSpacing": 0.000519999,
  "DeviceSerialNumber": "66112",
  "DwellTime": 2.7e-06,
  "EchoTime": 0.035,
  "EchoTrainLength": 39,
  "EffectiveEchoSpacing": 0.00026,
  "FlipAngle": 90,
  "HeudiconvVersion": "0.13.1",
  "ImageOrientationPatientDICOM": [0.982839, 0.184227, 0.0093357, -0.179144, 0.941205, 0.286426],
  "ImageOrientationText": "Tra>Cor(16.5)>Sag(-2.5)",
  "ImageType": [
    "ORIGINAL",
    "PRIMARY",
    "M",
    "ND",
    "NORM",
    "MOSAIC"
],
  "ImagingFrequency": 123.252,
  "InPlanePhaseEncodingDirectionDICOM": "COL",
  "InstitutionAddress": "Maynard 3,Hanover,NH,US,03755",
  "InstitutionName": "Dartmouth College - PBS",
  "InstitutionalDepartmentName": "Department",
  "MRAcquisitionType": "2D",
  "MagneticFieldStrength": 3,
  "Manufacturer": "Siemens",
  "ManufacturersModelName": "Prisma",
  "MatrixCoilMode": "GRAPPA",
  "Modality": "MR",
  "NonlinearGradientCorrection": false,
  "ParallelReductionFactorInPlane": 2,
  "PartialFourier": 1,
  "PatientPosition": "HFS",
  "PercentPhaseFOV": 100,
  "PercentSampling": 100,
  "PhaseEncodingDirection": "j-",
  "PhaseEncodingSteps": 79,
  "PhaseResolution": 1,
  "PixelBandwidth": 2315,
  "ProcedureStepDescription": "dbic^QA",
  "ProtocolName": "func-bold_task-rest_acq-p2",
  "PulseSequenceDetails": "%SiemensSeq%\\ep2d_bold",
  "ReceiveCoilActiveElements": "HC1-7;NC1,2",
  "ReceiveCoilName": "HeadNeck_64",
  "ReconMatrixPE": 80,
  "RefLinesPE": 24,
  "RepetitionTime": 2,
  "SAR": 0.0336589,
  "ScanOptions": "FS",
  "ScanningSequence": "EP",
  "SequenceName": "*epfid2d1_80",
  "SequenceVariant": "SK",
  "SeriesDescription": "func-bold_task-rest_acq-p2",
  "SeriesNumber": 5,
  "ShimSetting": [4141, -7669, -7521, 266, -76, -415, -63, 63],
  "SliceThickness": 3.5,
  "SliceTiming": [0.99, 0, 1.0575, 0.0675, 1.1225, 0.1325, 1.19, 0.2, 1.255, 0.265, 1.32, 0.33, 1.3875, 0.3975, 1.4525, 0.4625, 1.52, 0.53, 1.585, 0.595, 1.65, 0.66, 1.7175, 0.7275, 1.7825, 0.7925, 1.8475, 0.86, 1.915, 0.925],
  "SoftwareVersions": "syngo MR E11",
  "SpacingBetweenSlices": 3.99,
  "StationName": "AWP66112",
  "TaskName": "rest",
  "TotalReadoutTime": 0.02054,
  "TxRefAmp": 220.445,
  "dcmmeta_affine": [
    [-2.9485180377960205, -0.5374317169189453, -0.17548280954360962, 147.76844787597656],
    [-0.5526817440986633, 2.8236162662506104, 1.129900574684143, -101.96097564697266],
    [0.02800709940493107, -0.8592777848243713, 3.8226468563079834, -42.04964065551758],
    [0.0, 0.0, 0.0, 1.0]
],
  "dcmmeta_reorient_transform": [
    [0.0, -1.0, 0.0, 79.0],
    [1.0, 0.0, 0.0, 0.0],
    [0.0, 0.0, 1.0, 0.0],
    [0.0, 0.0, 0.0, 1.0]
],
  "dcmmeta_shape": [80, 80, 30, 200],
  "dcmmeta_slice_dim": 2,
  "dcmmeta_version": 0.6,
  "global": {
    "const": {
      "AccessionNumber": "qa64",
      "AcquisitionMatrix": [80, 0, 0, 80],
      "AngioFlag": "N",
      "BitsAllocated": 16,
      "BitsStored": 12,
      "BodyPartExamined": "BRAIN",
      "Columns": 480,
      "EchoNumbers": 1,
      "EchoTime": 35.0,
      "EchoTrainLength": 39,
      "FlipAngle": 90.0,
      "HighBit": 11,
      "ImageOrientationPatient": [0.98283933708124, 0.184227256941, 0.00933569952959, -0.1791439074662, 0.94120542012924, 0.28642593726319],
      "ImagePositionPatient": [-587.52860349553, -796.36431622501, -287.38957111776],
      "ImageType": [
        "ORIGINAL",
        "PRIMARY",
        "M",
        "ND",
        "NORM",
        "MOSAIC"
],
      "ImagedNucleus": "1H",
      "ImagingFrequency": 123.252402,
      "InPlanePhaseEncodingDirection": "COL",
      "LargestImagePixelValue": 4095,
      "MRAcquisitionType": "2D",
      "MagneticFieldStrength": 3.0,
      "Manufacturer": "SIEMENS",
      "ManufacturerModelName": "Prisma",
      "Modality": "MR",
      "NumberOfAverages": 1.0,
      "NumberOfPhaseEncodingSteps": 79,
      "PercentPhaseFieldOfView": 100.0,
      "PercentSampling": 100.0,
      "PerformedProcedureStepStartTime": "084506.330000",
      "PhotometricInterpretation": "MONOCHROME2",
      "PixelBandwidth": 2315.0,
      "PixelRepresentation": 0,
      "PixelSpacing": [3.0, 3.0],
      "ProtocolName": "func-bold_task-rest_acq-p2",
      "RepetitionTime": 2000.0,
      "Rows": 480,
      "SAR": 0.03365893470623,
      "SamplesPerPixel": 1,
      "ScanOptions": "FS",
      "ScanningSequence": "EP",
      "SequenceName": "*epfid2d1_80",
      "SequenceVariant": "SK",
      "SeriesDescription": "func-bold_task-rest_acq-p2",
      "SeriesNumber": 5,
      "SeriesTime": "084755.143000",
      "SliceLocation": -75.658528850851,
      "SliceThickness": 3.5,
      "SmallestImagePixelValue": 0,
      "SoftwareVersions": "syngo MR E11",
      "SpacingBetweenSlices": 3.9899999226853,
      "SpecificCharacterSet": "ISO_IR 100",
      "StudyID": "1",
      "StudyTime": "084506.254000",
      "TransmitCoilName": "Body",
      "VariableFlipAngleFlag": "N",
      "WindowCenterWidthExplanation": "Algo1",
      "dBdt": 0.0},
    "slices": {}
  },
  "time": {
    "samples": {
      "AcquisitionNumber": [1, 2, 3, 4, 5, 6, 7, 8, 9, 10, 11, 12, 13, 14, 15, 16, 17, 18, 19, 20, 21, 22, 23, 24, 25, 26, 27, 28, 29, 30, 31, 32, 33, 34, 35, 36, 37, 38, 39, 40, 41, 42, 43, 44, 45, 46, 47, 48, 49, 50, 51, 52, 53, 54, 55, 56, 57, 58, 59, 60, 61, 62, 63, 64, 65, 66, 67, 68, 69, 70, 71, 72, 73, 74, 75, 76, 77, 78, 79, 80, 81, 82, 83, 84, 85, 86, 87, 88, 89, 90, 91, 92, 93, 94, 95, 96, 97, 98, 99, 100, 101, 102, 103, 104, 105, 106, 107, 108, 109, 110, 111, 112, 113, 114, 115, 116, 117, 118, 119, 120, 121, 122, 123, 124, 125, 126, 127, 128, 129, 130, 131, 132, 133, 134, 135, 136, 137, 138, 139, 140, 141, 142, 143, 144, 145, 146, 147, 148, 149, 150, 151, 152, 153, 154, 155, 156, 157, 158, 159, 160, 161, 162, 163, 164, 165, 166, 167, 168, 169, 170, 171, 172, 173, 174, 175, 176, 177, 178, 179, 180, 181, 182, 183, 184, 185, 186, 187, 188, 189, 190, 191, 192, 193, 194, 195, 196, 197, 198, 199, 200],
      "AcquisitionTime": ["084710.192500", "084712.192500", "084714.192500", "084716.192500", "084718.192500", "084720.192500", "084722.192500", "084724.192500", "084726.192500", "084728.192500", "084730.192500", "084732.192500", "084734.192500", "084736.192500", "084738.192500", "084740.192500", "084742.192500", "084744.192500", "084746.192500", "084748.192500", "084750.192500", "084752.192500", "084754.192500", "084756.192500", "084758.192500", "084800.192500", "084802.192500", "084804.192500", "084806.192500", "084808.192500", "084810.192500", "084812.192500", "084814.192500", "084816.192500", "084818.192500", "084820.192500", "084822.192500", "084824.192500", "084826.192500", "084828.192500", "084830.192500", "084832.192500", "084834.192500", "084836.192500", "084838.192500", "084840.192500", "084842.192500", "084844.192500", "084846.192500", "084848.192500", "084850.192500", "084852.192500", "084854.192500", "084856.192500", "084858.192500", "084900.192500", "084902.192500", "084904.192500", "084906.192500", "084908.192500", "084910.192500", "084912.192500", "084914.192500", "084916.192500", "084918.192500", "084920.192500", "084922.192500", "084924.192500", "084926.192500", "084928.192500", "084930.192500", "084932.192500", "084934.192500", "084936.192500", "084938.192500", "084940.192500", "084942.192500", "084944.192500", "084946.192500", "084948.192500", "084950.192500", "084952.192500", "084954.192500", "084956.192500", "084958.192500", "085000.192500", "085002.192500", "085004.192500", "085006.192500", "085008.192500", "085010.192500", "085012.192500", "085014.192500", "085016.192500", "085018.192500", "085020.192500", "085022.192500", "085024.192500", "085026.192500", "085028.192500", "085030.192500", "085032.192500", "085034.192500", "085036.192500", "085038.192500", "085040.192500", "085042.192500", "085044.192500", "085046.192500", "085048.192500", "085050.192500", "085052.192500", "085054.192500", "085056.192500", "085058.192500", "085100.192500", "085102.192500", "085104.192500", "085106.192500", "085108.192500", "085110.192500", "085112.192500", "085114.192500", "085116.192500", "085118.192500", "085120.192500", "085122.192500", "085124.192500", "085126.192500", "085128.192500", "085130.192500", "085132.192500", "085134.192500", "085136.192500", "085138.192500", "085140.192500", "085142.192500", "085144.192500", "085146.192500", "085148.192500", "085150.192500", "085152.192500", "085154.192500", "085156.192500", "085158.192500", "085200.192500", "085202.192500", "085204.192500", "085206.192500", "085208.192500", "085210.192500", "085212.192500", "085214.192500", "085216.192500", "085218.192500", "085220.192500", "085222.192500", "085224.192500", "085226.192500", "085228.192500", "085230.192500", "085232.192500", "085234.192500", "085236.192500", "085238.192500", "085240.192500", "085242.192500", "085244.192500", "085246.192500", "085248.192500", "085250.192500", "085252.192500", "085254.192500", "085256.192500", "085258.192500", "085300.192500", "085302.192500", "085304.192500", "085306.192500", "085308.192500", "085310.192500", "085312.192500", "085314.192500", "085316.192500", "085318.192500", "085320.192500", "085322.192500", "085324.192500", "085326.192500", "085328.192500", "085330.192500", "085332.192500", "085334.192500", "085336.192500", "085338.192500", "085340.192500", "085342.192500", "085344.192500", "085346.192500", "085348.192500"],
      "ContentTime": ["084755.147000", "084755.150000", "084755.153000", "084755.156000", "084755.159000", "084755.161000", "084755.164000", "084755.167000", "084755.169000", "084755.172000", "084755.175000", "084755.177000", "084755.180000", "084755.183000", "084755.185000", "084755.188000", "084755.190000", "084755.199000", "084755.202000", "084755.204000", "084755.207000", "084755.210000", "084835.142000", "084835.145000", "084835.148000", "084835.150000", "084835.153000", "084835.156000", "084835.159000", "084835.162000", "084835.164000", "084835.167000", "084835.170000", "084835.172000", "084835.175000", "084835.178000", "084835.180000", "084835.183000", "084835.185000", "084835.188000", "084835.191000", "084835.193000", "084915.142000", "084915.145000", "084915.147000", "084915.150000", "084915.152000", "084915.155000", "084915.158000", "084915.161000", "084915.163000", "084915.166000", "084915.169000", "084915.171000", "084915.174000", "084915.177000", "084915.187000", "084915.190000", "084915.192000", "084915.195000", "084915.198000", "084915.200000", "084955.141000", "084955.145000", "084955.147000", "084955.150000", "084955.153000", "084955.156000", "084955.158000", "084955.161000", "084955.163000", "084955.166000", "084955.169000", "084955.172000", "084955.174000", "084955.177000", "084955.179000", "084955.182000", "084955.185000", "084955.187000", "084955.190000", "084955.193000", "085035.142000", "085035.145000", "085035.147000", "085035.150000", "085035.153000", "085035.156000", "085035.159000", "085035.161000", "085035.164000", "085035.167000", "085035.169000", "085035.172000", "085035.175000", "085035.177000", "085035.180000", "085035.183000", "085035.185000", "085035.188000", "085035.191000", "085035.193000", "085115.142000", "085115.145000", "085115.147000", "085115.150000", "085115.153000", "085115.156000", "085115.159000", "085115.161000", "085115.176000", "085115.179000", "085115.182000", "085115.184000", "085115.187000", "085115.190000", "085115.192000", "085115.195000", "085115.197000", "085115.200000", "085115.203000", "085115.205000", "085155.142000", "085155.145000", "085155.147000", "085155.150000", "085155.153000", "085155.156000", "085155.159000", "085155.161000", "085155.164000", "085155.167000", "085155.169000", "085155.172000", "085155.174000", "085155.177000", "085155.180000", "085155.182000", "085155.185000", "085155.188000", "085155.190000", "085155.193000", "085235.142000", "085235.145000", "085235.147000", "085235.150000", "085235.153000", "085235.156000", "085235.159000", "085235.161000", "085235.164000", "085235.167000", "085235.169000", "085235.172000", "085235.175000", "085235.177000", "085235.180000", "085235.183000", "085235.185000", "085235.188000", "085235.191000", "085235.193000", "085315.142000", "085315.145000", "085315.147000", "085315.150000", "085315.153000", "085315.156000", "085315.158000", "085315.161000", "085315.164000", "085315.166000", "085315.169000", "085315.172000", "085315.174000", "085315.177000", "085315.180000", "085315.182000", "085315.185000", "085315.188000", "085315.190000", "085315.193000", "085350.131000", "085350.134000", "085350.137000", "085350.139000", "085350.142000", "085350.145000", "085350.147000", "085350.150000", "085350.153000", "085350.156000", "085350.161000", "085350.165000", "085350.169000", "085350.173000", "085350.176000", "085350.184000", "085350.188000", "085350.191000"],
      "InstanceCreationTime": ["084755.147000", "084755.150000", "084755.153000", "084755.156000", "084755.159000", "084755.161000", "084755.164000", "084755.167000", "084755.169000", "084755.172000", "084755.175000", "084755.177000", "084755.180000", "084755.183000", "084755.185000", "084755.188000", "084755.190000", "084755.199000", "084755.202000", "084755.204000", "084755.207000", "084755.210000", "084835.142000", "084835.145000", "084835.148000", "084835.150000", "084835.153000", "084835.156000", "084835.159000", "084835.162000", "084835.164000", "084835.167000", "084835.170000", "084835.172000", "084835.175000", "084835.178000", "084835.180000", "084835.183000", "084835.185000", "084835.188000", "084835.191000", "084835.193000", "084915.142000", "084915.145000", "084915.147000", "084915.150000", "084915.152000", "084915.155000", "084915.158000", "084915.161000", "084915.163000", "084915.166000", "084915.169000", "084915.171000", "084915.174000", "084915.177000", "084915.187000", "084915.190000", "084915.192000", "084915.195000", "084915.198000", "084915.200000", "084955.141000", "084955.145000", "084955.147000", "084955.150000", "084955.153000", "084955.156000", "084955.158000", "084955.161000", "084955.163000", "084955.166000", "084955.169000", "084955.172000", "084955.174000", "084955.177000", "084955.179000", "084955.182000", "084955.185000", "084955.187000", "084955.190000", "084955.193000", "085035.142000", "085035.145000", "085035.147000", "085035.150000", "085035.153000", "085035.156000", "085035.159000", "085035.161000", "085035.164000", "085035.167000", "085035.169000", "085035.172000", "085035.175000", "085035.177000", "085035.180000", "085035.183000", "085035.185000", "085035.188000", "085035.191000", "085035.193000", "085115.142000", "085115.145000", "085115.147000", "085115.150000", "085115.153000", "085115.156000", "085115.159000", "085115.161000", "085115.176000", "085115.179000", "085115.182000", "085115.184000", "085115.187000", "085115.190000", "085115.192000", "085115.195000", "085115.197000", "085115.200000", "085115.203000", "085115.205000", "085155.142000", "085155.145000", "085155.147000", "085155.150000", "085155.153000", "085155.156000", "085155.159000", "085155.161000", "085155.164000", "085155.167000", "085155.169000", "085155.172000", "085155.174000", "085155.177000", "085155.180000", "085155.182000", "085155.185000", "085155.188000", "085155.190000", "085155.193000", "085235.142000", "085235.145000", "085235.147000", "085235.150000", "085235.153000", "085235.156000", "085235.159000", "085235.161000", "085235.164000", "085235.167000", "085235.169000", "085235.172000", "085235.175000", "085235.177000", "085235.180000", "085235.183000", "085235.185000", "085235.188000", "085235.191000", "085235.193000", "085315.142000", "085315.145000", "085315.147000", "085315.150000", "085315.153000", "085315.156000", "085315.158000", "085315.161000", "085315.164000", "085315.166000", "085315.169000", "085315.172000", "085315.174000", "085315.177000", "085315.180000", "085315.182000", "085315.185000", "085315.188000", "085315.190000", "085315.193000", "085350.131000", "085350.134000", "085350.137000", "085350.139000", "085350.142000", "085350.145000", "085350.147000", "085350.150000", "085350.153000", "085350.156000", "085350.161000", "085350.165000", "085350.169000", "085350.173000", "085350.176000", "085350.184000", "085350.188000", "085350.191000"],
      "InstanceNumber": [1, 2, 3, 4, 5, 6, 7, 8, 9, 10, 11, 12, 13, 14, 15, 16, 17, 18, 19, 20, 21, 22, 23, 24, 25, 26, 27, 28, 29, 30, 31, 32, 33, 34, 35, 36, 37, 38, 39, 40, 41, 42, 43, 44, 45, 46, 47, 48, 49, 50, 51, 52, 53, 54, 55, 56, 57, 58, 59, 60, 61, 62, 63, 64, 65, 66, 67, 68, 69, 70, 71, 72, 73, 74, 75, 76, 77, 78, 79, 80, 81, 82, 83, 84, 85, 86, 87, 88, 89, 90, 91, 92, 93, 94, 95, 96, 97, 98, 99, 100, 101, 102, 103, 104, 105, 106, 107, 108, 109, 110, 111, 112, 113, 114, 115, 116, 117, 118, 119, 120, 121, 122, 123, 124, 125, 126, 127, 128, 129, 130, 131, 132, 133, 134, 135, 136, 137, 138, 139, 140, 141, 142, 143, 144, 145, 146, 147, 148, 149, 150, 151, 152, 153, 154, 155, 156, 157, 158, 159, 160, 161, 162, 163, 164, 165, 166, 167, 168, 169, 170, 171, 172, 173, 174, 175, 176, 177, 178, 179, 180, 181, 182, 183, 184, 185, 186, 187, 188, 189, 190, 191, 192, 193, 194, 195, 196, 197, 198, 199, 200],
      "WindowCenter": [1762.0, 1761.0, 1761.0, 1760.0, 1760.0, 1760.0, 1759.0, 1759.0, 1760.0, 1760.0, 1759.0, 1759.0, 1759.0, 1759.0, 1759.0, 1759.0, 1759.0, 1758.0, 1759.0, 1759.0, 1759.0, 1758.0, 1758.0, 1759.0, 1758.0, 1758.0, 1758.0, 1757.0, 1758.0, 1757.0, 1758.0, 1756.0, 1757.0, 1756.0, 1757.0, 1758.0, 1757.0, 1756.0, 1757.0, 1757.0, 1756.0, 1756.0, 1756.0, 1755.0, 1756.0, 1755.0, 1755.0, 1755.0, 1755.0, 1755.0, 1754.0, 1756.0, 1756.0, 1755.0, 1755.0, 1754.0, 1755.0, 1755.0, 1755.0, 1755.0, 1754.0, 1754.0, 1755.0, 1754.0, 1754.0, 1753.0, 1754.0, 1755.0, 1755.0, 1754.0, 1754.0, 1753.0, 1753.0, 1753.0, 1754.0, 1754.0, 1753.0, 1753.0, 1753.0, 1753.0, 1754.0, 1753.0, 1754.0, 1754.0, 1753.0, 1753.0, 1753.0, 1753.0, 1753.0, 1753.0, 1753.0, 1752.0, 1753.0, 1752.0, 1753.0, 1752.0, 1753.0, 1752.0, 1753.0, 1752.0, 1752.0, 1752.0, 1752.0, 1751.0, 1752.0, 1752.0, 1751.0, 1751.0, 1750.0, 1752.0, 1751.0, 1751.0, 1752.0, 1752.0, 1752.0, 1751.0, 1753.0, 1751.0, 1751.0, 1752.0, 1750.0, 1752.0, 1751.0, 1750.0, 1751.0, 1751.0, 1751.0, 1751.0, 1751.0, 1751.0, 1750.0, 1750.0, 1750.0, 1751.0, 1751.0, 1750.0, 1751.0, 1750.0, 1750.0, 1751.0, 1750.0, 1750.0, 1750.0, 1750.0, 1749.0, 1750.0, 1751.0, 1750.0, 1750.0, 1750.0, 1749.0, 1749.0, 1750.0, 1749.0, 1749.0, 1748.0, 1749.0, 1750.0, 1749.0, 1749.0, 1749.0, 1749.0, 1748.0, 1750.0, 1749.0, 1749.0, 1749.0, 1749.0, 1749.0, 1750.0, 1749.0, 1749.0, 1748.0, 1749.0, 1748.0, 1748.0, 1748.0, 1748.0, 1748.0, 1748.0, 1748.0, 1748.0, 1748.0, 1748.0, 1748.0, 1748.0, 1749.0, 1748.0, 1749.0, 1748.0, 1748.0, 1747.0, 1749.0, 1747.0, 1748.0, 1747.0, 1748.0, 1748.0, 1748.0, 1747.0],
      "WindowWidth": [3636.0, 3635.0, 3635.0, 3635.0, 3635.0, 3635.0, 3635.0, 3635.0, 3635.0, 3635.0, 3635.0, 3635.0, 3635.0, 3635.0, 3635.0, 3635.0, 3634.0, 3634.0, 3634.0, 3634.0, 3634.0, 3634.0, 3634.0, 3634.0, 3634.0, 3634.0, 3634.0, 3634.0, 3633.0, 3634.0, 3633.0, 3634.0, 3633.0, 3633.0, 3633.0, 3633.0, 3633.0, 3633.0, 3633.0, 3632.0, 3632.0, 3633.0, 3632.0, 3633.0, 3632.0, 3632.0, 3632.0, 3632.0, 3632.0, 3632.0, 3632.0, 3632.0, 3632.0, 3632.0, 3632.0, 3632.0, 3632.0, 3632.0, 3632.0, 3632.0, 3632.0, 3632.0, 3632.0, 3631.0, 3631.0, 3631.0, 3631.0, 3631.0, 3631.0, 3631.0, 3631.0, 3631.0, 3631.0, 3631.0, 3630.0, 3631.0, 3631.0, 3631.0, 3631.0, 3631.0, 3630.0, 3630.0, 3630.0, 3630.0, 3631.0, 3630.0, 3630.0, 3630.0, 3630.0, 3630.0, 3630.0, 3630.0, 3630.0, 3630.0, 3630.0, 3630.0, 3630.0, 3630.0, 3630.0, 3629.0, 3629.0, 3629.0, 3629.0, 3630.0, 3629.0, 3630.0, 3629.0, 3630.0, 3629.0, 3629.0, 3629.0, 3629.0, 3629.0, 3629.0, 3629.0, 3629.0, 3628.0, 3629.0, 3629.0, 3629.0, 3629.0, 3629.0, 3629.0, 3629.0, 3628.0, 3629.0, 3629.0, 3629.0, 3628.0, 3629.0, 3628.0, 3629.0, 3629.0, 3629.0, 3628.0, 3629.0, 3628.0, 3629.0, 3628.0, 3628.0, 3628.0, 3628.0, 3628.0, 3628.0, 3628.0, 3628.0, 3628.0, 3628.0, 3627.0, 3628.0, 3628.0, 3628.0, 3627.0, 3628.0, 3627.0, 3628.0, 3628.0, 3627.0, 3628.0, 3628.0, 3628.0, 3627.0, 3628.0, 3627.0, 3627.0, 3627.0, 3627.0, 3627.0, 3627.0, 3627.0, 3627.0, 3627.0, 3627.0, 3627.0, 3627.0, 3627.0, 3627.0, 3627.0, 3627.0, 3627.0, 3627.0, 3627.0, 3627.0, 3627.0, 3627.0, 3627.0, 3627.0, 3627.0, 3627.0, 3627.0, 3627.0, 3627.0, 3626.0, 3627.0, 3627.0, 3626.0, 3626.0, 3626.0, 3626.0, 3626.0]
    },
    "slices": {}
  }
}