{
  "AcquisitionMatrixPE": 80,
  "AcquisitionNumber": 1,
  "AcquisitionTime": "08:54:2.547500",
  "BandwidthPerPixelPhaseEncode": 25,
  "BaseResolution": 80,
  "BodyPartExamined": "BRAIN",
  "CoilCombinationMethod": "Sum of Squares",
  "ConsistencyInfo": "N4_VE11C_LATEST_20160120",
  "ConversionSoftware": "dcm2niix",
  "ConversionSoftwareVersion": "v1.0.20220720",
  "DerivedVendorReportedEchoSpacing": 0.0005,
  "DeviceSerialNumber": "66112",
  "DwellTime": 2.7e-06,
  "EchoTime": 0.03,
  "EchoTrainLength": 80,
  "EffectiveEchoSpacing": 0.0005,
  "FlipAngle": 77,
  "HeudiconvVersion": "0.13.1",
  "ImageOrientationPatientDICOM": [0.982839, 0.184227, 0.0093357, -0.179144, 0.941205, 0.286426],
  "ImageOrientationText": "Tra>Cor(16.5)>Sag(-2.5)",
  "ImageType": [
    "ORIGINAL",
    "PRIMARY",
    "M",
    "ND",
    "NORM",
    "MOSAIC"
],
  "ImagingFrequency": 123.252,
  "InPlanePhaseEncodingDirectionDICOM": "COL",
  "InstitutionAddress": "Maynard 3,Hanover,NH,US,03755",
  "InstitutionName": "Dartmouth College - PBS",
  "InstitutionalDepartmentName": "Department",
  "MRAcquisitionType": "2D",
  "MagneticFieldStrength": 3,
  "Manufacturer": "Siemens",
  "ManufacturersModelName": "Prisma",
  "MatrixCoilMode": "SENSE",
  "Modality": "MR",
  "NonlinearGradientCorrection": false,
  "PartialFourier": 1,
  "PatientPosition": "HFS",
  "PercentPhaseFOV": 100,
  "PercentSampling": 100,
  "PhaseEncodingDirection": "j-",
  "PhaseEncodingSteps": 80,
  "PhaseResolution": 1,
  "PixelBandwidth": 2315,
  "ProcedureStepDescription": "dbic^QA",
  "ProtocolName": "func-bold_fa-77",
  "PulseSequenceDetails": "%SiemensSeq%\\ep2d_bold",
  "ReceiveCoilActiveElements": "HC1-7;NC1,2",
  "ReceiveCoilName": "HeadNeck_64",
  "ReconMatrixPE": 80,
  "RepetitionTime": 2,
  "SAR": 0.0264509,
  "ScanOptions": "FS",
  "ScanningSequence": "EP",
  "SequenceName": "*epfid2d1_80",
  "SequenceVariant": "SK",
  "SeriesDescription": "func-bold_fa-77",
  "SeriesNumber": 7,
  "ShimSetting": [4142, -7669, -7521, 268, -78, -415, -61, 63],
  "SliceThickness": 3.5,
  "SliceTiming": [0.99, 0, 1.055, 0.065, 1.12, 0.13, 1.1875, 0.1975, 1.2525, 0.2625, 1.32, 0.33, 1.385, 0.395, 1.45, 0.46, 1.5175, 0.5275, 1.5825, 0.5925, 1.65, 0.66, 1.715, 0.725, 1.78, 0.79, 1.8475, 0.8575, 1.9125, 0.9225],
  "SoftwareVersions": "syngo MR E11",
  "SpacingBetweenSlices": 3.99,
  "StationName": "AWP66112",
  "TotalReadoutTime": 0.0395,
  "TxRefAmp": 220.445,
  "dcmmeta_affine": [
    [-2.9485180377960205, -0.5374317169189453, -0.17548280954360962, 145.48092651367188],
    [-0.5526817440986633, 2.8236162662506104, 1.129900574684143, -100.1446304321289],
    [0.02800709940493107, -0.8592777848243713, 3.8226470947265625, -41.3571662902832],
    [0.0, 0.0, 0.0, 1.0]
],
  "dcmmeta_reorient_transform": [
    [0.0, -1.0, 0.0, 79.0],
    [1.0, 0.0, 0.0, 0.0],
    [0.0, 0.0, 1.0, 0.0],
    [0.0, 0.0, 0.0, 1.0]
],
  "dcmmeta_shape": [80, 80, 30, 200],
  "dcmmeta_slice_dim": 2,
  "dcmmeta_version": 0.6,
  "global": {
    "const": {
      "AccessionNumber": "qa64",
      "AcquisitionMatrix": [80, 0, 0, 80],
      "AngioFlag": "N",
      "BitsAllocated": 16,
      "BitsStored": 12,
      "BodyPartExamined": "BRAIN",
      "Columns": 480,
      "EchoNumbers": 1,
      "EchoTime": 30.0,
      "EchoTrainLength": 80,
      "FlipAngle": 77.0,
      "HighBit": 11,
      "ImageOrientationPatient": [0.98283933708124, 0.184227256941, 0.00933569952959, -0.1791439074662, 0.94120542012924, 0.28642593726319],
      "ImagePositionPatient": [-585.24107450383, -798.18065667148, -286.69709675252],
      "ImageType": [
        "ORIGINAL",
        "PRIMARY",
        "M",
        "ND",
        "NORM",
        "MOSAIC"
],
      "ImagedNucleus": "1H",
      "ImagingFrequency": 123.2524,
      "InPlanePhaseEncodingDirection": "COL",
      "LargestImagePixelValue": 4095,
      "MRAcquisitionType": "2D",
      "MagneticFieldStrength": 3.0,
      "Manufacturer": "SIEMENS",
      "ManufacturerModelName": "Prisma",
      "Modality": "MR",
      "NumberOfAverages": 1.0,
      "NumberOfPhaseEncodingSteps": 80,
      "PercentPhaseFieldOfView": 100.0,
      "PercentSampling": 100.0,
      "PerformedProcedureStepStartTime": "084506.330000",
      "PhotometricInterpretation": "MONOCHROME2",
      "PixelBandwidth": 2315.0,
      "PixelRepresentation": 0,
      "PixelSpacing": [3.0, 3.0],
      "ProtocolName": "func-bold_fa-77",
      "RepetitionTime": 2000.0,
      "Rows": 480,
      "SAR": 0.02645087046803,
      "SamplesPerPixel": 1,
      "ScanOptions": "FS",
      "ScanningSequence": "EP",
      "SequenceName": "*epfid2d1_80",
      "SequenceVariant": "SK",
      "SeriesDescription": "func-bold_fa-77",
      "SeriesNumber": 7,
      "SeriesTime": "085455.213000",
      "SliceLocation": -74.380135045305,
      "SliceThickness": 3.5,
      "SmallestImagePixelValue": 0,
      "SoftwareVersions": "syngo MR E11",
      "SpacingBetweenSlices": 3.9900000395775,
      "SpecificCharacterSet": "ISO_IR 100",
      "StudyID": "1",
      "StudyTime": "084506.254000",
      "TransmitCoilName": "Body",
      "VariableFlipAngleFlag": "N",
      "WindowCenterWidthExplanation": "Algo1",
      "dBdt": 0.0},
    "slices": {}
  },
  "time": {
    "samples": {
      "AcquisitionNumber": [1, 2, 3, 4, 5, 6, 7, 8, 9, 10, 11, 12, 13, 14, 15, 16, 17, 18, 19, 20, 21, 22, 23, 24, 25, 26, 27, 28, 29, 30, 31, 32, 33, 34, 35, 36, 37, 38, 39, 40, 41, 42, 43, 44, 45, 46, 47, 48, 49, 50, 51, 52, 53, 54, 55, 56, 57, 58, 59, 60, 61, 62, 63, 64, 65, 66, 67, 68, 69, 70, 71, 72, 73, 74, 75, 76, 77, 78, 79, 80, 81, 82, 83, 84, 85, 86, 87, 88, 89, 90, 91, 92, 93, 94, 95, 96, 97, 98, 99, 100, 101, 102, 103, 104, 105, 106, 107, 108, 109, 110, 111, 112, 113, 114, 115, 116, 117, 118, 119, 120, 121, 122, 123, 124, 125, 126, 127, 128, 129, 130, 131, 132, 133, 134, 135, 136, 137, 138, 139, 140, 141, 142, 143, 144, 145, 146, 147, 148, 149, 150, 151, 152, 153, 154, 155, 156, 157, 158, 159, 160, 161, 162, 163, 164, 165, 166, 167, 168, 169, 170, 171, 172, 173, 174, 175, 176, 177, 178, 179, 180, 181, 182, 183, 184, 185, 186, 187, 188, 189, 190, 191, 192, 193, 194, 195, 196, 197, 198, 199, 200],
      "AcquisitionTime": ["085402.547500", "085404.547500", "085406.547500", "085408.547500", "085410.547500", "085412.547500", "085414.547500", "085416.547500", "085418.547500", "085420.547500", "085422.547500", "085424.547500", "085426.547500", "085428.547500", "085430.547500", "085432.547500", "085434.547500", "085436.547500", "085438.547500", "085440.547500", "085442.547500", "085444.547500", "085446.547500", "085448.547500", "085450.547500", "085452.547500", "085454.547500", "085456.547500", "085458.547500", "085500.547500", "085502.547500", "085504.547500", "085506.547500", "085508.547500", "085510.547500", "085512.547500", "085514.547500", "085516.547500", "085518.547500", "085520.547500", "085522.547500", "085524.547500", "085526.547500", "085528.547500", "085530.547500", "085532.547500", "085534.547500", "085536.547500", "085538.547500", "085540.547500", "085542.547500", "085544.547500", "085546.547500", "085548.547500", "085550.547500", "085552.547500", "085554.547500", "085556.547500", "085558.547500", "085600.547500", "085602.547500", "085604.547500", "085606.547500", "085608.547500", "085610.547500", "085612.547500", "085614.547500", "085616.547500", "085618.547500", "085620.547500", "085622.547500", "085624.547500", "085626.547500", "085628.547500", "085630.547500", "085632.547500", "085634.547500", "085636.547500", "085638.547500", "085640.547500", "085642.547500", "085644.547500", "085646.547500", "085648.547500", "085650.547500", "085652.547500", "085654.547500", "085656.547500", "085658.547500", "085700.547500", "085702.547500", "085704.547500", "085706.547500", "085708.547500", "085710.547500", "085712.547500", "085714.547500", "085716.547500", "085718.547500", "085720.547500", "085722.547500", "085724.547500", "085726.547500", "085728.547500", "085730.547500", "085732.547500", "085734.547500", "085736.547500", "085738.547500", "085740.547500", "085742.547500", "085744.547500", "085746.547500", "085748.547500", "085750.547500", "085752.547500", "085754.547500", "085756.547500", "085758.547500", "085800.547500", "085802.547500", "085804.547500", "085806.547500", "085808.547500", "085810.547500", "085812.547500", "085814.547500", "085816.547500", "085818.547500", "085820.547500", "085822.547500", "085824.547500", "085826.547500", "085828.547500", "085830.547500", "085832.547500", "085834.547500", "085836.547500", "085838.547500", "085840.547500", "085842.547500", "085844.547500", "085846.547500", "085848.547500", "085850.547500", "085852.547500", "085854.547500", "085856.547500", "085858.547500", "085900.547500", "085902.547500", "085904.547500", "085906.547500", "085908.547500", "085910.547500", "085912.547500", "085914.547500", "085916.547500", "085918.547500", "085920.547500", "085922.547500", "085924.547500", "085926.547500", "085928.547500", "085930.547500", "085932.547500", "085934.547500", "085936.547500", "085938.547500", "085940.547500", "085942.547500", "085944.547500", "085946.547500", "085948.547500", "085950.547500", "085952.547500", "085954.547500", "085956.547500", "085958.547500", "090000.547500", "090002.547500", "090004.547500", "090006.547500", "090008.547500", "090010.547500", "090012.547500", "090014.547500", "090016.547500", "090018.547500", "090020.547500", "090022.547500", "090024.547500", "090026.547500", "090028.547500", "090030.547500", "090032.547500", "090034.547500", "090036.547500", "090038.547500", "090040.547500"],
      "ContentTime": ["085455.216000", "085455.220000", "085455.222000", "085455.225000", "085455.228000", "085455.230000", "085455.233000", "085455.236000", "085455.238000", "085455.241000", "085455.243000", "085455.246000", "085455.249000", "085455.251000", "085455.254000", "085455.257000", "085455.259000", "085455.262000", "085455.264000", "085455.267000", "085455.270000", "085455.281000", "085455.284000", "085455.286000", "085455.289000", "085455.291000", "085535.212000", "085535.215000", "085535.217000", "085535.220000", "085535.222000", "085535.225000", "085535.228000", "085535.230000", "085535.233000", "085535.236000", "085535.238000", "085535.241000", "085535.243000", "085535.246000", "085535.249000", "085535.251000", "085535.254000", "085535.256000", "085535.259000", "085535.261000", "085615.212000", "085615.215000", "085615.217000", "085615.220000", "085615.222000", "085615.225000", "085615.228000", "085615.230000", "085615.233000", "085615.235000", "085615.238000", "085615.241000", "085615.243000", "085615.246000", "085615.248000", "085615.251000", "085615.254000", "085615.256000", "085615.259000", "085615.262000", "085655.212000", "085655.215000", "085655.217000", "085655.220000", "085655.222000", "085655.225000", "085655.228000", "085655.230000", "085655.233000", "085655.236000", "085655.238000", "085655.241000", "085655.243000", "085655.246000", "085655.249000", "085655.251000", "085655.254000", "085655.257000", "085655.259000", "085655.262000", "085735.212000", "085735.215000", "085735.217000", "085735.220000", "085735.222000", "085735.225000", "085735.228000", "085735.230000", "085735.233000", "085735.236000", "085735.238000", "085735.241000", "085735.243000", "085735.246000", "085735.248000", "085735.251000", "085735.254000", "085735.256000", "085735.259000", "085735.262000", "085815.212000", "085815.215000", "085815.217000", "085815.220000", "085815.222000", "085815.225000", "085815.228000", "085815.230000", "085815.233000", "085815.235000", "085815.238000", "085815.241000", "085815.243000", "085815.246000", "085815.248000", "085815.251000", "085815.254000", "085815.256000", "085815.259000", "085815.261000", "085855.211000", "085855.215000", "085855.217000", "085855.220000", "085855.222000", "085855.225000", "085855.228000", "085855.230000", "085855.233000", "085855.235000", "085855.238000", "085855.241000", "085855.243000", "085855.246000", "085855.249000", "085855.251000", "085855.254000", "085855.256000", "085855.259000", "085855.262000", "085935.210000", "085935.213000", "085935.216000", "085935.219000", "085935.221000", "085935.224000", "085935.227000", "085935.229000", "085935.232000", "085935.234000", "085935.237000", "085935.240000", "085935.242000", "085935.245000", "085935.247000", "085935.250000", "085935.253000", "085935.255000", "085935.258000", "085935.260000", "090015.211000", "090015.214000", "090015.217000", "090015.220000", "090015.223000", "090015.225000", "090015.228000", "090015.230000", "090015.233000", "090015.236000", "090015.238000", "090015.241000", "090015.244000", "090015.246000", "090015.249000", "090015.251000", "090015.254000", "090015.257000", "090015.259000", "090015.262000", "090041.633000", "090041.636000", "090041.639000", "090041.641000", "090041.644000", "090041.647000", "090041.649000", "090041.652000", "090041.654000", "090041.657000", "090041.660000", "090041.664000", "090041.669000", "090041.673000"],
      "InstanceCreationTime": ["085455.216000", "085455.220000", "085455.222000", "085455.225000", "085455.228000", "085455.230000", "085455.233000", "085455.236000", "085455.238000", "085455.241000", "085455.243000", "085455.246000", "085455.249000", "085455.251000", "085455.254000", "085455.257000", "085455.259000", "085455.262000", "085455.264000", "085455.267000", "085455.270000", "085455.281000", "085455.284000", "085455.286000", "085455.289000", "085455.291000", "085535.212000", "085535.215000", "085535.217000", "085535.220000", "085535.222000", "085535.225000", "085535.228000", "085535.230000", "085535.233000", "085535.236000", "085535.238000", "085535.241000", "085535.243000", "085535.246000", "085535.249000", "085535.251000", "085535.254000", "085535.256000", "085535.259000", "085535.261000", "085615.212000", "085615.215000", "085615.217000", "085615.220000", "085615.222000", "085615.225000", "085615.228000", "085615.230000", "085615.233000", "085615.235000", "085615.238000", "085615.241000", "085615.243000", "085615.246000", "085615.248000", "085615.251000", "085615.254000", "085615.256000", "085615.259000", "085615.262000", "085655.212000", "085655.215000", "085655.217000", "085655.220000", "085655.222000", "085655.225000", "085655.228000", "085655.230000", "085655.233000", "085655.236000", "085655.238000", "085655.241000", "085655.243000", "085655.246000", "085655.249000", "085655.251000", "085655.254000", "085655.257000", "085655.259000", "085655.262000", "085735.212000", "085735.215000", "085735.217000", "085735.220000", "085735.222000", "085735.225000", "085735.228000", "085735.230000", "085735.233000", "085735.236000", "085735.238000", "085735.241000", "085735.243000", "085735.246000", "085735.248000", "085735.251000", "085735.254000", "085735.256000", "085735.259000", "085735.262000", "085815.212000", "085815.215000", "085815.217000", "085815.220000", "085815.222000", "085815.225000", "085815.228000", "085815.230000", "085815.233000", "085815.235000", "085815.238000", "085815.241000", "085815.243000", "085815.246000", "085815.248000", "085815.251000", "085815.254000", "085815.256000", "085815.259000", "085815.261000", "085855.211000", "085855.215000", "085855.217000", "085855.220000", "085855.222000", "085855.225000", "085855.228000", "085855.230000", "085855.233000", "085855.235000", "085855.238000", "085855.241000", "085855.243000", "085855.246000", "085855.249000", "085855.251000", "085855.254000", "085855.256000", "085855.259000", "085855.262000", "085935.210000", "085935.213000", "085935.216000", "085935.219000", "085935.221000", "085935.224000", "085935.227000", "085935.229000", "085935.232000", "085935.234000", "085935.237000", "085935.240000", "085935.242000", "085935.245000", "085935.247000", "085935.250000", "085935.253000", "085935.255000", "085935.258000", "085935.260000", "090015.211000", "090015.214000", "090015.217000", "090015.220000", "090015.223000", "090015.225000", "090015.228000", "090015.230000", "090015.233000", "090015.236000", "090015.238000", "090015.241000", "090015.244000", "090015.246000", "090015.249000", "090015.251000", "090015.254000", "090015.257000", "090015.259000", "090015.262000", "090041.633000", "090041.636000", "090041.639000", "090041.641000", "090041.644000", "090041.647000", "090041.649000", "090041.652000", "090041.654000", "090041.657000", "090041.660000", "090041.664000", "090041.669000", "090041.673000"],
      "InstanceNumber": [1, 2, 3, 4, 5, 6, 7, 8, 9, 10, 11, 12, 13, 14, 15, 16, 17, 18, 19, 20, 21, 22, 23, 24, 25, 26, 27, 28, 29, 30, 31, 32, 33, 34, 35, 36, 37, 38, 39, 40, 41, 42, 43, 44, 45, 46, 47, 48, 49, 50, 51, 52, 53, 54, 55, 56, 57, 58, 59, 60, 61, 62, 63, 64, 65, 66, 67, 68, 69, 70, 71, 72, 73, 74, 75, 76, 77, 78, 79, 80, 81, 82, 83, 84, 85, 86, 87, 88, 89, 90, 91, 92, 93, 94, 95, 96, 97, 98, 99, 100, 101, 102, 103, 104, 105, 106, 107, 108, 109, 110, 111, 112, 113, 114, 115, 116, 117, 118, 119, 120, 121, 122, 123, 124, 125, 126, 127, 128, 129, 130, 131, 132, 133, 134, 135, 136, 137, 138, 139, 140, 141, 142, 143, 144, 145, 146, 147, 148, 149, 150, 151, 152, 153, 154, 155, 156, 157, 158, 159, 160, 161, 162, 163, 164, 165, 166, 167, 168, 169, 170, 171, 172, 173, 174, 175, 176, 177, 178, 179, 180, 181, 182, 183, 184, 185, 186, 187, 188, 189, 190, 191, 192, 193, 194, 195, 196, 197, 198, 199, 200],
      "WindowCenter": [1630.0, 1629.0, 1629.0, 1630.0, 1629.0, 1630.0, 1629.0, 1629.0, 1629.0, 1629.0, 1629.0, 1629.0, 1629.0, 1629.0, 1629.0, 1629.0, 1629.0, 1627.0, 1628.0, 1630.0, 1628.0, 1628.0, 1628.0, 1628.0, 1628.0, 1628.0, 1628.0, 1628.0, 1628.0, 1628.0, 1628.0, 1628.0, 1628.0, 1628.0, 1628.0, 1628.0, 1628.0, 1628.0, 1627.0, 1628.0, 1627.0, 1626.0, 1627.0, 1626.0, 1627.0, 1627.0, 1627.0, 1627.0, 1626.0, 1626.0, 1626.0, 1626.0, 1626.0, 1626.0, 1627.0, 1627.0, 1626.0, 1626.0, 1626.0, 1625.0, 1626.0, 1626.0, 1626.0, 1626.0, 1626.0, 1625.0, 1625.0, 1625.0, 1625.0, 1625.0, 1626.0, 1625.0, 1626.0, 1626.0, 1625.0, 1626.0, 1626.0, 1625.0, 1626.0, 1625.0, 1626.0, 1626.0, 1626.0, 1625.0, 1626.0, 1625.0, 1624.0, 1625.0, 1625.0, 1625.0, 1624.0, 1624.0, 1624.0, 1624.0, 1624.0, 1622.0, 1622.0, 1623.0, 1623.0, 1623.0, 1623.0, 1623.0, 1622.0, 1622.0, 1622.0, 1622.0, 1622.0, 1622.0, 1622.0, 1622.0, 1622.0, 1622.0, 1622.0, 1622.0, 1622.0, 1622.0, 1622.0, 1622.0, 1621.0, 1621.0, 1621.0, 1622.0, 1622.0, 1621.0, 1621.0, 1622.0, 1622.0, 1621.0, 1621.0, 1622.0, 1621.0, 1621.0, 1621.0, 1621.0, 1621.0, 1621.0, 1621.0, 1621.0, 1620.0, 1621.0, 1621.0, 1620.0, 1621.0, 1620.0, 1620.0, 1620.0, 1622.0, 1622.0, 1622.0, 1621.0, 1621.0, 1622.0, 1622.0, 1622.0, 1622.0, 1621.0, 1623.0, 1621.0, 1622.0, 1621.0, 1620.0, 1620.0, 1620.0, 1620.0, 1619.0, 1619.0, 1620.0, 1620.0, 1620.0, 1618.0, 1620.0, 1619.0, 1619.0, 1619.0, 1619.0, 1619.0, 1618.0, 1620.0, 1619.0, 1619.0, 1620.0, 1618.0, 1618.0, 1619.0, 1619.0, 1619.0, 1618.0, 1619.0, 1618.0, 1619.0, 1619.0, 1618.0, 1618.0, 1618.0, 1619.0, 1619.0, 1619.0, 1618.0, 1618.0, 1618.0],
      "WindowWidth": [3585.0, 3585.0, 3585.0, 3585.0, 3585.0, 3585.0, 3585.0, 3586.0, 3585.0, 3585.0, 3585.0, 3585.0, 3585.0, 3585.0, 3585.0, 3585.0, 3584.0, 3585.0, 3585.0, 3585.0, 3585.0, 3585.0, 3585.0, 3584.0, 3585.0, 3584.0, 3584.0, 3584.0, 3584.0, 3584.0, 3584.0, 3584.0, 3584.0, 3584.0, 3584.0, 3584.0, 3584.0, 3584.0, 3585.0, 3584.0, 3584.0, 3584.0, 3584.0, 3584.0, 3584.0, 3584.0, 3584.0, 3584.0, 3584.0, 3584.0, 3584.0, 3584.0, 3584.0, 3584.0, 3584.0, 3584.0, 3584.0, 3584.0, 3584.0, 3584.0, 3583.0, 3584.0, 3584.0, 3584.0, 3584.0, 3584.0, 3584.0, 3584.0, 3583.0, 3584.0, 3584.0, 3584.0, 3583.0, 3583.0, 3584.0, 3583.0, 3583.0, 3583.0, 3583.0, 3584.0, 3583.0, 3583.0, 3583.0, 3584.0, 3583.0, 3583.0, 3584.0, 3583.0, 3583.0, 3583.0, 3583.0, 3582.0, 3582.0, 3583.0, 3582.0, 3581.0, 3581.0, 3581.0, 3581.0, 3582.0, 3581.0, 3581.0, 3581.0, 3581.0, 3581.0, 3581.0, 3581.0, 3581.0, 3581.0, 3581.0, 3581.0, 3581.0, 3581.0, 3581.0, 3581.0, 3581.0, 3581.0, 3580.0, 3581.0, 3581.0, 3581.0, 3580.0, 3580.0, 3581.0, 3580.0, 3580.0, 3580.0, 3581.0, 3581.0, 3580.0, 3581.0, 3580.0, 3580.0, 3580.0, 3580.0, 3580.0, 3580.0, 3580.0, 3580.0, 3580.0, 3580.0, 3580.0, 3580.0, 3580.0, 3580.0, 3580.0, 3581.0, 3581.0, 3581.0, 3581.0, 3581.0, 3581.0, 3581.0, 3581.0, 3581.0, 3581.0, 3580.0, 3581.0, 3581.0, 3581.0, 3580.0, 3579.0, 3579.0, 3579.0, 3580.0, 3580.0, 3579.0, 3579.0, 3579.0, 3579.0, 3579.0, 3579.0, 3579.0, 3579.0, 3579.0, 3578.0, 3579.0, 3579.0, 3579.0, 3579.0, 3579.0, 3579.0, 3579.0, 3578.0, 3578.0, 3578.0, 3579.0, 3579.0, 3579.0, 3578.0, 3578.0, 3579.0, 3579.0, 3579.0, 3578.0, 3578.0, 3578.0, 3578.0, 3578.0, 3578.0]
    },
    "slices": {}
  }
}