{
  "AcquisitionMatrixPE": 80,
  "AcquisitionNumber": 1,
  "AcquisitionTime": "10:13:23.487500",
  "BandwidthPerPixelPhaseEncode": 25,
  "BaseResolution": 80,
  "BodyPartExamined": "BRAIN",
  "CoilCombinationMethod": "Sum of Squares",
  "ConsistencyInfo": "N4_VE11C_LATEST_20160120",
  "ConversionSoftware": "dcm2niix",
  "ConversionSoftwareVersion": "v1.0.20220720",
  "DerivedVendorReportedEchoSpacing": 0.0005,
  "DeviceSerialNumber": "66112",
  "DwellTime": 2.7e-06,
  "EchoTime": 0.03,
  "EchoTrainLength": 80,
  "EffectiveEchoSpacing": 0.0005,
  "FlipAngle": 77,
  "HeudiconvVersion": "0.13.1",
  "ImageOrientationPatientDICOM": [0.984442, -0.175709, -0.000732662, 0.167743, 0.938553, 0.30163],
  "ImageOrientationText": "Tra>Cor(17.3)>Sag(3.0)",
  "ImageType": [
    "ORIGINAL",
    "PRIMARY",
    "M",
    "ND",
    "NORM",
    "MOSAIC"
],
  "ImagingFrequency": 123.252,
  "InPlanePhaseEncodingDirectionDICOM": "COL",
  "InstitutionAddress": "Maynard 3,Hanover,NH,US,03755",
  "InstitutionName": "Dartmouth College - PBS",
  "InstitutionalDepartmentName": "Department",
  "MRAcquisitionType": "2D",
  "MagneticFieldStrength": 3,
  "Manufacturer": "Siemens",
  "ManufacturersModelName": "Prisma",
  "MatrixCoilMode": "SENSE",
  "Modality": "MR",
  "NonlinearGradientCorrection": false,
  "PartialFourier": 1,
  "PatientPosition": "HFS",
  "PercentPhaseFOV": 100,
  "PercentSampling": 100,
  "PhaseEncodingDirection": "j-",
  "PhaseEncodingSteps": 80,
  "PhaseResolution": 1,
  "PixelBandwidth": 2315,
  "ProcedureStepDescription": "dbic^QA",
  "ProtocolName": "func-bold_fa-77",
  "PulseSequenceDetails": "%SiemensSeq%\\ep2d_bold",
  "ReceiveCoilActiveElements": "HEA;HEP",
  "ReceiveCoilName": "Head_32",
  "ReconMatrixPE": 80,
  "RepetitionTime": 2,
  "SAR": 0.0437511,
  "ScanOptions": "FS",
  "ScanningSequence": "EP",
  "SequenceName": "*epfid2d1_80",
  "SequenceVariant": "SK",
  "SeriesDescription": "func-bold_fa-77",
  "SeriesNumber": 8,
  "ShimSetting": [4142, -7694, -7521, 256, -91, -80, 20, 81],
  "SliceThickness": 3.5,
  "SliceTiming": [0.99, 0, 1.055, 0.065, 1.1225, 0.1325, 1.1875, 0.1975, 1.2525, 0.265, 1.32, 0.33, 1.385, 0.395, 1.4525, 0.4625, 1.5175, 0.5275, 1.5825, 0.5925, 1.65, 0.66, 1.715, 0.725, 1.7825, 0.7925, 1.8475, 0.8575, 1.9125, 0.9225],
  "SoftwareVersions": "syngo MR E11",
  "SpacingBetweenSlices": 3.99,
  "StationName": "AWP66112",
  "TotalReadoutTime": 0.0395,
  "TxRefAmp": 227.776,
  "dcmmeta_affine": [
    [-2.9533255100250244, 0.5032296776771545, 0.20872288942337036, 93.82328796386719],
    [0.5271278023719788, 2.8156590461730957, 1.185268759727478, -140.91049194335938],
    [-0.002197985304519534, -0.9048892855644226, 3.8041651248931885, -6.344367504119873],
    [0.0, 0.0, 0.0, 1.0]
],
  "dcmmeta_reorient_transform": [
    [0.0, -1.0, 0.0, 79.0],
    [1.0, 0.0, 0.0, 0.0],
    [0.0, 0.0, 1.0, 0.0],
    [0.0, 0.0, 0.0, 1.0]
],
  "dcmmeta_shape": [80, 80, 30, 200],
  "dcmmeta_slice_dim": 2,
  "dcmmeta_version": 0.6,
  "global": {
    "const": {
      "AccessionNumber": "qa",
      "AcquisitionMatrix": [80, 0, 0, 80],
      "AngioFlag": "N",
      "BitsAllocated": 16,
      "BitsStored": 12,
      "BodyPartExamined": "BRAIN",
      "Columns": 480,
      "EchoNumbers": 1,
      "EchoTime": 30.0,
      "EchoTrainLength": 80,
      "FlipAngle": 77.0,
      "HighBit": 11,
      "ImageOrientationPatient": [0.9844418289417, -0.1757092730525, -0.0007326617888, 0.16774323229382, 0.9385529797452, 0.30162976018793],
      "ImagePositionPatient": [-824.88947152564, -539.23279081735, -258.36887990255],
      "ImageType": [
        "ORIGINAL",
        "PRIMARY",
        "M",
        "ND",
        "NORM",
        "MOSAIC"
],
      "ImagedNucleus": "1H",
      "ImagingFrequency": 123.252345,
      "InPlanePhaseEncodingDirection": "COL",
      "MRAcquisitionType": "2D",
      "MagneticFieldStrength": 3.0,
      "Manufacturer": "SIEMENS",
      "ManufacturerModelName": "Prisma",
      "Modality": "MR",
      "NumberOfAverages": 1.0,
      "NumberOfPhaseEncodingSteps": 80,
      "PercentPhaseFieldOfView": 100.0,
      "PercentSampling": 100.0,
      "PerformedProcedureStepStartTime": "095807.490000",
      "PhotometricInterpretation": "MONOCHROME2",
      "PixelBandwidth": 2315.0,
      "PixelRepresentation": 0,
      "PixelSpacing": [3.0, 3.0],
      "ProtocolName": "func-bold_fa-77",
      "RepetitionTime": 2000.0,
      "Rows": 480,
      "SAR": 0.04375107044012,
      "SamplesPerPixel": 1,
      "ScanOptions": "FS",
      "ScanningSequence": "EP",
      "SequenceName": "*epfid2d1_80",
      "SequenceVariant": "SK",
      "SeriesDescription": "func-bold_fa-77",
      "SeriesNumber": 8,
      "SeriesTime": "101412.240000",
      "SliceLocation": -42.999689603018,
      "SliceThickness": 3.5,
      "SmallestImagePixelValue": 0,
      "SoftwareVersions": "syngo MR E11",
      "SpacingBetweenSlices": 3.9899998678352,
      "SpecificCharacterSet": "ISO_IR 100",
      "StudyID": "2",
      "StudyTime": "095807.428000",
      "TransmitCoilName": "Body",
      "VariableFlipAngleFlag": "N",
      "WindowCenterWidthExplanation": "Algo1",
      "dBdt": 0.0},
    "slices": {}
  },
  "time": {
    "samples": {
      "AcquisitionNumber": [1, 2, 3, 4, 5, 6, 7, 8, 9, 10, 11, 12, 13, 14, 15, 16, 17, 18, 19, 20, 21, 22, 23, 24, 25, 26, 27, 28, 29, 30, 31, 32, 33, 34, 35, 36, 37, 38, 39, 40, 41, 42, 43, 44, 45, 46, 47, 48, 49, 50, 51, 52, 53, 54, 55, 56, 57, 58, 59, 60, 61, 62, 63, 64, 65, 66, 67, 68, 69, 70, 71, 72, 73, 74, 75, 76, 77, 78, 79, 80, 81, 82, 83, 84, 85, 86, 87, 88, 89, 90, 91, 92, 93, 94, 95, 96, 97, 98, 99, 100, 101, 102, 103, 104, 105, 106, 107, 108, 109, 110, 111, 112, 113, 114, 115, 116, 117, 118, 119, 120, 121, 122, 123, 124, 125, 126, 127, 128, 129, 130, 131, 132, 133, 134, 135, 136, 137, 138, 139, 140, 141, 142, 143, 144, 145, 146, 147, 148, 149, 150, 151, 152, 153, 154, 155, 156, 157, 158, 159, 160, 161, 162, 163, 164, 165, 166, 167, 168, 169, 170, 171, 172, 173, 174, 175, 176, 177, 178, 179, 180, 181, 182, 183, 184, 185, 186, 187, 188, 189, 190, 191, 192, 193, 194, 195, 196, 197, 198, 199, 200],
      "AcquisitionTime": ["101323.487500", "101325.487500", "101327.487500", "101329.487500", "101331.487500", "101333.487500", "101335.487500", "101337.487500", "101339.487500", "101341.487500", "101343.487500", "101345.487500", "101347.487500", "101349.487500", "101351.487500", "101353.487500", "101355.487500", "101357.487500", "101359.487500", "101401.487500", "101403.487500", "101405.487500", "101407.487500", "101409.487500", "101411.487500", "101413.487500", "101415.487500", "101417.487500", "101419.487500", "101421.487500", "101423.487500", "101425.487500", "101427.487500", "101429.487500", "101431.487500", "101433.487500", "101435.487500", "101437.487500", "101439.487500", "101441.487500", "101443.487500", "101445.487500", "101447.487500", "101449.487500", "101451.487500", "101453.487500", "101455.487500", "101457.487500", "101459.487500", "101501.487500", "101503.487500", "101505.487500", "101507.487500", "101509.487500", "101511.487500", "101513.487500", "101515.487500", "101517.487500", "101519.487500", "101521.487500", "101523.487500", "101525.487500", "101527.487500", "101529.487500", "101531.487500", "101533.487500", "101535.487500", "101537.487500", "101539.487500", "101541.487500", "101543.487500", "101545.487500", "101547.487500", "101549.487500", "101551.487500", "101553.487500", "101555.487500", "101557.487500", "101559.487500", "101601.487500", "101603.487500", "101605.487500", "101607.487500", "101609.487500", "101611.487500", "101613.487500", "101615.487500", "101617.487500", "101619.487500", "101621.487500", "101623.487500", "101625.487500", "101627.487500", "101629.487500", "101631.487500", "101633.487500", "101635.487500", "101637.487500", "101639.487500", "101641.487500", "101643.487500", "101645.487500", "101647.487500", "101649.487500", "101651.487500", "101653.487500", "101655.487500", "101657.487500", "101659.487500", "101701.487500", "101703.487500", "101705.487500", "101707.487500", "101709.487500", "101711.487500", "101713.487500", "101715.487500", "101717.487500", "101719.487500", "101721.487500", "101723.487500", "101725.487500", "101727.487500", "101729.487500", "101731.487500", "101733.487500", "101735.487500", "101737.487500", "101739.487500", "101741.487500", "101743.487500", "101745.487500", "101747.487500", "101749.487500", "101751.487500", "101753.487500", "101755.487500", "101757.487500", "101759.487500", "101801.487500", "101803.487500", "101805.487500", "101807.487500", "101809.487500", "101811.487500", "101813.487500", "101815.487500", "101817.487500", "101819.487500", "101821.487500", "101823.487500", "101825.487500", "101827.487500", "101829.487500", "101831.487500", "101833.487500", "101835.487500", "101837.487500", "101839.487500", "101841.487500", "101843.487500", "101845.487500", "101847.487500", "101849.487500", "101851.487500", "101853.487500", "101855.487500", "101857.487500", "101859.487500", "101901.487500", "101903.487500", "101905.487500", "101907.487500", "101909.487500", "101911.487500", "101913.487500", "101915.487500", "101917.487500", "101919.487500", "101921.487500", "101923.487500", "101925.487500", "101927.487500", "101929.487500", "101931.487500", "101933.487500", "101935.487500", "101937.487500", "101939.487500", "101941.487500", "101943.487500", "101945.487500", "101947.487500", "101949.487500", "101951.487500", "101953.487500", "101955.487500", "101957.487500", "101959.487500", "102001.487500"],
      "ContentTime": ["101412.244000", "101412.247000", "101412.249000", "101412.252000", "101412.255000", "101412.257000", "101412.260000", "101412.262000", "101412.265000", "101412.267000", "101412.270000", "101412.272000", "101412.275000", "101412.277000", "101412.280000", "101412.282000", "101412.285000", "101412.287000", "101412.290000", "101412.292000", "101412.295000", "101412.307000", "101412.309000", "101412.312000", "101452.238000", "101452.241000", "101452.244000", "101452.247000", "101452.249000", "101452.252000", "101452.254000", "101452.257000", "101452.259000", "101452.262000", "101452.264000", "101452.267000", "101452.269000", "101452.272000", "101452.274000", "101452.277000", "101452.279000", "101452.282000", "101452.284000", "101452.287000", "101532.238000", "101532.241000", "101532.244000", "101532.246000", "101532.249000", "101532.251000", "101532.254000", "101532.256000", "101532.259000", "101532.261000", "101532.264000", "101532.267000", "101532.269000", "101532.272000", "101532.274000", "101532.277000", "101532.279000", "101532.282000", "101532.284000", "101532.287000", "101612.238000", "101612.240000", "101612.243000", "101612.246000", "101612.248000", "101612.251000", "101612.253000", "101612.256000", "101612.258000", "101612.261000", "101612.263000", "101612.266000", "101612.268000", "101612.271000", "101612.273000", "101612.276000", "101612.278000", "101612.281000", "101612.283000", "101612.286000", "101652.238000", "101652.241000", "101652.244000", "101652.246000", "101652.249000", "101652.252000", "101652.254000", "101652.257000", "101652.259000", "101652.262000", "101652.264000", "101652.267000", "101652.269000", "101652.272000", "101652.274000", "101652.277000", "101652.279000", "101652.282000", "101652.284000", "101652.287000", "101732.239000", "101732.241000", "101732.244000", "101732.246000", "101732.249000", "101732.252000", "101732.254000", "101732.257000", "101732.259000", "101732.262000", "101732.264000", "101732.267000", "101732.269000", "101732.272000", "101732.274000", "101732.277000", "101732.279000", "101732.282000", "101732.284000", "101732.287000", "101812.237000", "101812.240000", "101812.243000", "101812.245000", "101812.248000", "101812.251000", "101812.253000", "101812.256000", "101812.258000", "101812.261000", "101812.264000", "101812.266000", "101812.269000", "101812.271000", "101812.274000", "101812.276000", "101812.279000", "101812.281000", "101812.284000", "101812.286000", "101852.238000", "101852.241000", "101852.244000", "101852.247000", "101852.249000", "101852.252000", "101852.254000", "101852.257000", "101852.259000", "101852.262000", "101852.264000", "101852.267000", "101852.269000", "101852.272000", "101852.274000", "101852.277000", "101852.279000", "101852.282000", "101852.284000", "101852.287000", "101932.239000", "101932.241000", "101932.244000", "101932.247000", "101932.249000", "101932.252000", "101932.254000", "101932.257000", "101932.260000", "101932.262000", "101932.265000", "101932.267000", "101932.270000", "101932.273000", "101932.275000", "101932.278000", "101932.280000", "101932.283000", "101932.285000", "101932.288000", "102003.040000", "102003.043000", "102003.046000", "102003.049000", "102003.051000", "102003.054000", "102003.056000", "102003.059000", "102003.062000", "102003.064000", "102003.067000", "102003.070000", "102003.077000", "102003.083000", "102003.086000", "102003.089000"],
      "InstanceCreationTime": ["101412.244000", "101412.247000", "101412.249000", "101412.252000", "101412.255000", "101412.257000", "101412.260000", "101412.262000", "101412.265000", "101412.267000", "101412.270000", "101412.272000", "101412.275000", "101412.277000", "101412.280000", "101412.282000", "101412.285000", "101412.287000", "101412.290000", "101412.292000", "101412.295000", "101412.307000", "101412.309000", "101412.312000", "101452.238000", "101452.241000", "101452.244000", "101452.247000", "101452.249000", "101452.252000", "101452.254000", "101452.257000", "101452.259000", "101452.262000", "101452.264000", "101452.267000", "101452.269000", "101452.272000", "101452.274000", "101452.277000", "101452.279000", "101452.282000", "101452.284000", "101452.287000", "101532.238000", "101532.241000", "101532.244000", "101532.246000", "101532.249000", "101532.251000", "101532.254000", "101532.256000", "101532.259000", "101532.261000", "101532.264000", "101532.267000", "101532.269000", "101532.272000", "101532.274000", "101532.277000", "101532.279000", "101532.282000", "101532.284000", "101532.287000", "101612.238000", "101612.240000", "101612.243000", "101612.246000", "101612.248000", "101612.251000", "101612.253000", "101612.256000", "101612.258000", "101612.261000", "101612.263000", "101612.266000", "101612.268000", "101612.271000", "101612.273000", "101612.276000", "101612.278000", "101612.281000", "101612.283000", "101612.286000", "101652.238000", "101652.241000", "101652.244000", "101652.246000", "101652.249000", "101652.252000", "101652.254000", "101652.257000", "101652.259000", "101652.262000", "101652.264000", "101652.267000", "101652.269000", "101652.272000", "101652.274000", "101652.277000", "101652.279000", "101652.282000", "101652.284000", "101652.287000", "101732.239000", "101732.241000", "101732.244000", "101732.246000", "101732.249000", "101732.252000", "101732.254000", "101732.257000", "101732.259000", "101732.262000", "101732.264000", "101732.267000", "101732.269000", "101732.272000", "101732.274000", "101732.277000", "101732.279000", "101732.282000", "101732.284000", "101732.287000", "101812.237000", "101812.240000", "101812.243000", "101812.245000", "101812.248000", "101812.251000", "101812.253000", "101812.256000", "101812.258000", "101812.261000", "101812.264000", "101812.266000", "101812.269000", "101812.271000", "101812.274000", "101812.276000", "101812.279000", "101812.281000", "101812.284000", "101812.286000", "101852.238000", "101852.241000", "101852.244000", "101852.247000", "101852.249000", "101852.252000", "101852.254000", "101852.257000", "101852.259000", "101852.262000", "101852.264000", "101852.267000", "101852.269000", "101852.272000", "101852.274000", "101852.277000", "101852.279000", "101852.282000", "101852.284000", "101852.287000", "101932.239000", "101932.241000", "101932.244000", "101932.247000", "101932.249000", "101932.252000", "101932.254000", "101932.257000", "101932.260000", "101932.262000", "101932.265000", "101932.267000", "101932.270000", "101932.273000", "101932.275000", "101932.278000", "101932.280000", "101932.283000", "101932.285000", "101932.288000", "102003.040000", "102003.043000", "102003.046000", "102003.049000", "102003.051000", "102003.054000", "102003.056000", "102003.059000", "102003.062000", "102003.064000", "102003.067000", "102003.070000", "102003.077000", "102003.083000", "102003.086000", "102003.089000"],
      "InstanceNumber": [1, 2, 3, 4, 5, 6, 7, 8, 9, 10, 11, 12, 13, 14, 15, 16, 17, 18, 19, 20, 21, 22, 23, 24, 25, 26, 27, 28, 29, 30, 31, 32, 33, 34, 35, 36, 37, 38, 39, 40, 41, 42, 43, 44, 45, 46, 47, 48, 49, 50, 51, 52, 53, 54, 55, 56, 57, 58, 59, 60, 61, 62, 63, 64, 65, 66, 67, 68, 69, 70, 71, 72, 73, 74, 75, 76, 77, 78, 79, 80, 81, 82, 83, 84, 85, 86, 87, 88, 89, 90, 91, 92, 93, 94, 95, 96, 97, 98, 99, 100, 101, 102, 103, 104, 105, 106, 107, 108, 109, 110, 111, 112, 113, 114, 115, 116, 117, 118, 119, 120, 121, 122, 123, 124, 125, 126, 127, 128, 129, 130, 131, 132, 133, 134, 135, 136, 137, 138, 139, 140, 141, 142, 143, 144, 145, 146, 147, 148, 149, 150, 151, 152, 153, 154, 155, 156, 157, 158, 159, 160, 161, 162, 163, 164, 165, 166, 167, 168, 169, 170, 171, 172, 173, 174, 175, 176, 177, 178, 179, 180, 181, 182, 183, 184, 185, 186, 187, 188, 189, 190, 191, 192, 193, 194, 195, 196, 197, 198, 199, 200],
      "LargestImagePixelValue": [2229, 2228, 2229, 2228, 2228, 2231, 2231, 2228, 2228, 2231, 2228, 2228, 2230, 2227, 2232, 2229, 2231, 2231, 2230, 2230, 2230, 2231, 2231, 2231, 2233, 2232, 2230, 2230, 2229, 2229, 2228, 2230, 2230, 2227, 2227, 2228, 2227, 2226, 2227, 2227, 2227, 2227, 2227, 2228, 2228, 2228, 2229, 2229, 2226, 2227, 2226, 2227, 2227, 2229, 2231, 2231, 2232, 2230, 2228, 2228, 2228, 2228, 2226, 2226, 2225, 2230, 2226, 2227, 2228, 2229, 2227, 2232, 2229, 2231, 2230, 2230, 2229, 2229, 2230, 2229, 2230, 2231, 2229, 2229, 2229, 2231, 2230, 2230, 2230, 2230, 2232, 2230, 2232, 2232, 2230, 2231, 2230, 2230, 2227, 2229, 2229, 2229, 2228, 2229, 2228, 2228, 2227, 2228, 2229, 2231, 2230, 2228, 2231, 2229, 2229, 2231, 2230, 2228, 2229, 2229, 2228, 2229, 2226, 2227, 2226, 2228, 2228, 2228, 2229, 2228, 2228, 2227, 2227, 2226, 2226, 2227, 2228, 2229, 2228, 2227, 2229, 2228, 2229, 2229, 2231, 2230, 2230, 2229, 2229, 2229, 2227, 2228, 2227, 2227, 2227, 2227, 2228, 2227, 2231, 2230, 2231, 2229, 2230, 2228, 2228, 2227, 2228, 2229, 2231, 2229, 2230, 2227, 2229, 2227, 2229, 2228, 2228, 2227, 2227, 2228, 2226, 2229, 2227, 2229, 2229, 2229, 2225, 2229, 2227, 2225, 2227, 2227, 2228, 2227, 2229, 2227, 2224, 2226, 2227, 2228],
      "WindowCenter": [1034.0, 1033.0, 1034.0, 1034.0, 1033.0, 1033.0, 1033.0, 1032.0, 1033.0, 1033.0, 1034.0, 1033.0, 1033.0, 1033.0, 1033.0, 1033.0, 1033.0, 1034.0, 1033.0, 1032.0, 1033.0, 1033.0, 1033.0, 1033.0, 1032.0, 1033.0, 1032.0, 1033.0, 1034.0, 1033.0, 1033.0, 1033.0, 1034.0, 1032.0, 1033.0, 1032.0, 1032.0, 1033.0, 1032.0, 1032.0, 1032.0, 1032.0, 1032.0, 1032.0, 1032.0, 1033.0, 1031.0, 1032.0, 1032.0, 1032.0, 1033.0, 1032.0, 1033.0, 1031.0, 1032.0, 1032.0, 1031.0, 1031.0, 1032.0, 1032.0, 1032.0, 1033.0, 1033.0, 1032.0, 1032.0, 1032.0, 1032.0, 1032.0, 1032.0, 1032.0, 1032.0, 1031.0, 1031.0, 1032.0, 1032.0, 1033.0, 1032.0, 1032.0, 1032.0, 1032.0, 1032.0, 1033.0, 1032.0, 1031.0, 1032.0, 1033.0, 1032.0, 1032.0, 1032.0, 1032.0, 1033.0, 1032.0, 1032.0, 1032.0, 1032.0, 1032.0, 1032.0, 1032.0, 1032.0, 1032.0, 1032.0, 1032.0, 1031.0, 1032.0, 1032.0, 1032.0, 1032.0, 1032.0, 1032.0, 1032.0, 1032.0, 1032.0, 1032.0, 1033.0, 1033.0, 1032.0, 1032.0, 1032.0, 1032.0, 1033.0, 1033.0, 1032.0, 1032.0, 1032.0, 1032.0, 1032.0, 1031.0, 1032.0, 1032.0, 1032.0, 1033.0, 1032.0, 1033.0, 1031.0, 1033.0, 1032.0, 1032.0, 1033.0, 1032.0, 1033.0, 1032.0, 1032.0, 1032.0, 1032.0, 1032.0, 1033.0, 1032.0, 1032.0, 1032.0, 1032.0, 1032.0, 1031.0, 1032.0, 1032.0, 1032.0, 1033.0, 1033.0, 1033.0, 1032.0, 1032.0, 1032.0, 1032.0, 1033.0, 1032.0, 1032.0, 1031.0, 1032.0, 1032.0, 1032.0, 1031.0, 1031.0, 1031.0, 1033.0, 1033.0, 1032.0, 1032.0, 1032.0, 1032.0, 1032.0, 1032.0, 1032.0, 1031.0, 1032.0, 1032.0, 1032.0, 1031.0, 1032.0, 1031.0, 1031.0, 1031.0, 1031.0, 1031.0, 1032.0, 1031.0, 1031.0, 1031.0, 1031.0, 1032.0, 1032.0, 1032.0],
      "WindowWidth": [2314.0, 2313.0, 2314.0, 2314.0, 2314.0, 2314.0, 2314.0, 2313.0, 2314.0, 2314.0, 2315.0, 2314.0, 2314.0, 2314.0, 2314.0, 2314.0, 2314.0, 2315.0, 2314.0, 2313.0, 2313.0, 2314.0, 2313.0, 2313.0, 2313.0, 2313.0, 2314.0, 2313.0, 2314.0, 2313.0, 2313.0, 2313.0, 2314.0, 2313.0, 2313.0, 2313.0, 2313.0, 2313.0, 2313.0, 2313.0, 2313.0, 2313.0, 2313.0, 2313.0, 2313.0, 2314.0, 2312.0, 2313.0, 2313.0, 2313.0, 2314.0, 2313.0, 2314.0, 2312.0, 2313.0, 2313.0, 2312.0, 2312.0, 2313.0, 2313.0, 2313.0, 2314.0, 2314.0, 2313.0, 2313.0, 2313.0, 2313.0, 2313.0, 2313.0, 2313.0, 2313.0, 2312.0, 2312.0, 2313.0, 2313.0, 2313.0, 2313.0, 2313.0, 2313.0, 2313.0, 2313.0, 2314.0, 2313.0, 2312.0, 2313.0, 2314.0, 2313.0, 2313.0, 2313.0, 2313.0, 2313.0, 2313.0, 2313.0, 2313.0, 2313.0, 2313.0, 2313.0, 2313.0, 2313.0, 2313.0, 2313.0, 2313.0, 2312.0, 2313.0, 2313.0, 2312.0, 2312.0, 2312.0, 2313.0, 2313.0, 2313.0, 2312.0, 2312.0, 2313.0, 2313.0, 2313.0, 2313.0, 2312.0, 2312.0, 2313.0, 2313.0, 2312.0, 2312.0, 2312.0, 2312.0, 2312.0, 2311.0, 2312.0, 2312.0, 2312.0, 2313.0, 2312.0, 2313.0, 2312.0, 2313.0, 2312.0, 2312.0, 2313.0, 2312.0, 2313.0, 2312.0, 2312.0, 2312.0, 2313.0, 2313.0, 2313.0, 2312.0, 2312.0, 2312.0, 2312.0, 2312.0, 2311.0, 2312.0, 2312.0, 2312.0, 2313.0, 2313.0, 2313.0, 2312.0, 2312.0, 2312.0, 2312.0, 2313.0, 2312.0, 2312.0, 2311.0, 2312.0, 2312.0, 2312.0, 2311.0, 2311.0, 2311.0, 2313.0, 2313.0, 2312.0, 2312.0, 2312.0, 2312.0, 2312.0, 2312.0, 2312.0, 2311.0, 2312.0, 2312.0, 2312.0, 2312.0, 2312.0, 2312.0, 2312.0, 2311.0, 2312.0, 2312.0, 2312.0, 2312.0, 2311.0, 2312.0, 2312.0, 2312.0, 2312.0, 2312.0]
    },
    "slices": {}
  }
}