{
  "AcquisitionMatrixPE": 80,
  "AcquisitionNumber": 1,
  "AcquisitionTime": "09:59:38.830000",
  "BandwidthPerPixelPhaseEncode": 48.077,
  "BaseResolution": 80,
  "BodyPartExamined": "BRAIN",
  "CoilCombinationMethod": "Sum of Squares",
  "ConsistencyInfo": "N4_VE11C_LATEST_20160120",
  "ConversionSoftware": "dcm2niix",
  "ConversionSoftwareVersion": "v1.0.20220720",
  "DerivedVendorReportedEchoSpacing": 0.000519999,
  "DeviceSerialNumber": "66112",
  "DwellTime": 2.7e-06,
  "EchoTime": 0.035,
  "EchoTrainLength": 39,
  "EffectiveEchoSpacing": 0.00026,
  "FlipAngle": 90,
  "HeudiconvVersion": "0.13.1",
  "ImageOrientationPatientDICOM": [0.984442, -0.175709, -0.000732662, 0.167743, 0.938553, 0.30163],
  "ImageOrientationText": "Tra>Cor(17.3)>Sag(3.0)",
  "ImageType": [
    "ORIGINAL",
    "PRIMARY",
    "M",
    "ND",
    "NORM",
    "MOSAIC"
],
  "ImagingFrequency": 123.252,
  "InPlanePhaseEncodingDirectionDICOM": "COL",
  "InstitutionAddress": "Maynard 3,Hanover,NH,US,03755",
  "InstitutionName": "Dartmouth College - PBS",
  "InstitutionalDepartmentName": "Department",
  "MRAcquisitionType": "2D",
  "MagneticFieldStrength": 3,
  "Manufacturer": "Siemens",
  "ManufacturersModelName": "Prisma",
  "MatrixCoilMode": "GRAPPA",
  "Modality": "MR",
  "NonlinearGradientCorrection": false,
  "ParallelReductionFactorInPlane": 2,
  "PartialFourier": 1,
  "PatientPosition": "HFS",
  "PercentPhaseFOV": 100,
  "PercentSampling": 100,
  "PhaseEncodingDirection": "j-",
  "PhaseEncodingSteps": 79,
  "PhaseResolution": 1,
  "PixelBandwidth": 2315,
  "ProcedureStepDescription": "dbic^QA",
  "ProtocolName": "func-bold_task-rest_acq-p2",
  "PulseSequenceDetails": "%SiemensSeq%\\ep2d_bold",
  "ReceiveCoilActiveElements": "HEA;HEP",
  "ReceiveCoilName": "Head_32",
  "ReconMatrixPE": 80,
  "RefLinesPE": 24,
  "RepetitionTime": 2,
  "SAR": 0.0556736,
  "ScanOptions": "FS",
  "ScanningSequence": "EP",
  "SequenceName": "*epfid2d1_80",
  "SequenceVariant": "SK",
  "SeriesDescription": "func-bold_task-rest_acq-p2",
  "SeriesNumber": 5,
  "ShimSetting": [4142, -7694, -7521, 256, -90, -81, 20, 82],
  "SliceThickness": 3.5,
  "SliceTiming": [0.99, 0, 1.055, 0.065, 1.1225, 0.1325, 1.1875, 0.1975, 1.2525, 0.265, 1.32, 0.33, 1.385, 0.395, 1.4525, 0.4625, 1.5175, 0.5275, 1.5825, 0.595, 1.65, 0.66, 1.715, 0.725, 1.7825, 0.7925, 1.8475, 0.8575, 1.9125, 0.9225],
  "SoftwareVersions": "syngo MR E11",
  "SpacingBetweenSlices": 3.99,
  "StationName": "AWP66112",
  "TaskName": "rest",
  "TotalReadoutTime": 0.02054,
  "TxRefAmp": 227.776,
  "dcmmeta_affine": [
    [-2.9533255100250244, 0.5032296776771545, 0.20872290432453156, 93.86384582519531],
    [0.5271278023719788, 2.8156590461730957, 1.1852688789367676, -140.68931579589844],
    [-0.002197985304519534, -0.9048892855644226, 3.8041653633117676, -7.764510631561279],
    [0.0, 0.0, 0.0, 1.0]
],
  "dcmmeta_reorient_transform": [
    [0.0, -1.0, 0.0, 79.0],
    [1.0, 0.0, 0.0, 0.0],
    [0.0, 0.0, 1.0, 0.0],
    [0.0, 0.0, 0.0, 1.0]
],
  "dcmmeta_shape": [80, 80, 30, 200],
  "dcmmeta_slice_dim": 2,
  "dcmmeta_version": 0.6,
  "global": {
    "const": {
      "AccessionNumber": "qa",
      "AcquisitionMatrix": [80, 0, 0, 80],
      "AngioFlag": "N",
      "BitsAllocated": 16,
      "BitsStored": 12,
      "BodyPartExamined": "BRAIN",
      "Columns": 480,
      "EchoNumbers": 1,
      "EchoTime": 35.0,
      "EchoTrainLength": 39,
      "FlipAngle": 90.0,
      "HighBit": 11,
      "ImageOrientationPatient": [0.9844418289417, -0.1757092730525, -0.0007326617888, 0.16774323229382, 0.9385529797452, 0.30162976018793],
      "ImagePositionPatient": [-824.93003224799, -539.45396505747, -259.78902302999],
      "ImageType": [
        "ORIGINAL",
        "PRIMARY",
        "M",
        "ND",
        "NORM",
        "MOSAIC"
],
      "ImagedNucleus": "1H",
      "ImagingFrequency": 123.252345,
      "InPlanePhaseEncodingDirection": "COL",
      "MRAcquisitionType": "2D",
      "MagneticFieldStrength": 3.0,
      "Manufacturer": "SIEMENS",
      "ManufacturerModelName": "Prisma",
      "Modality": "MR",
      "NumberOfAverages": 1.0,
      "NumberOfPhaseEncodingSteps": 79,
      "PercentPhaseFieldOfView": 100.0,
      "PercentSampling": 100.0,
      "PerformedProcedureStepStartTime": "095807.490000",
      "PhotometricInterpretation": "MONOCHROME2",
      "PixelBandwidth": 2315.0,
      "PixelRepresentation": 0,
      "PixelSpacing": [3.0, 3.0],
      "ProtocolName": "func-bold_task-rest_acq-p2",
      "RepetitionTime": 2000.0,
      "Rows": 480,
      "SAR": 0.05567357020689,
      "SamplesPerPixel": 1,
      "ScanOptions": "FS",
      "ScanningSequence": "EP",
      "SequenceName": "*epfid2d1_80",
      "SequenceVariant": "SK",
      "SeriesDescription": "func-bold_task-rest_acq-p2",
      "SeriesNumber": 5,
      "SeriesTime": "100032.311000",
      "SliceLocation": -44.28586557664,
      "SliceThickness": 3.5,
      "SmallestImagePixelValue": 0,
      "SoftwareVersions": "syngo MR E11",
      "SpacingBetweenSlices": 3.9900001186647,
      "SpecificCharacterSet": "ISO_IR 100",
      "StudyID": "2",
      "StudyTime": "095807.428000",
      "TransmitCoilName": "Body",
      "VariableFlipAngleFlag": "N",
      "WindowCenterWidthExplanation": "Algo1",
      "dBdt": 0.0},
    "slices": {}
  },
  "time": {
    "samples": {
      "AcquisitionNumber": [1, 2, 3, 4, 5, 6, 7, 8, 9, 10, 11, 12, 13, 14, 15, 16, 17, 18, 19, 20, 21, 22, 23, 24, 25, 26, 27, 28, 29, 30, 31, 32, 33, 34, 35, 36, 37, 38, 39, 40, 41, 42, 43, 44, 45, 46, 47, 48, 49, 50, 51, 52, 53, 54, 55, 56, 57, 58, 59, 60, 61, 62, 63, 64, 65, 66, 67, 68, 69, 70, 71, 72, 73, 74, 75, 76, 77, 78, 79, 80, 81, 82, 83, 84, 85, 86, 87, 88, 89, 90, 91, 92, 93, 94, 95, 96, 97, 98, 99, 100, 101, 102, 103, 104, 105, 106, 107, 108, 109, 110, 111, 112, 113, 114, 115, 116, 117, 118, 119, 120, 121, 122, 123, 124, 125, 126, 127, 128, 129, 130, 131, 132, 133, 134, 135, 136, 137, 138, 139, 140, 141, 142, 143, 144, 145, 146, 147, 148, 149, 150, 151, 152, 153, 154, 155, 156, 157, 158, 159, 160, 161, 162, 163, 164, 165, 166, 167, 168, 169, 170, 171, 172, 173, 174, 175, 176, 177, 178, 179, 180, 181, 182, 183, 184, 185, 186, 187, 188, 189, 190, 191, 192, 193, 194, 195, 196, 197, 198, 199, 200],
      "AcquisitionTime": ["095938.830000", "095940.830000", "095942.830000", "095944.830000", "095946.830000", "095948.830000", "095950.830000", "095952.830000", "095954.830000", "095956.830000", "095958.830000", "100000.830000", "100002.830000", "100004.830000", "100006.830000", "100008.830000", "100010.830000", "100012.830000", "100014.830000", "100016.830000", "100018.830000", "100020.830000", "100022.830000", "100024.830000", "100026.830000", "100028.830000", "100030.830000", "100032.830000", "100034.830000", "100036.830000", "100038.830000", "100040.830000", "100042.830000", "100044.830000", "100046.830000", "100048.830000", "100050.830000", "100052.830000", "100054.830000", "100056.830000", "100058.830000", "100100.830000", "100102.830000", "100104.830000", "100106.830000", "100108.830000", "100110.830000", "100112.830000", "100114.830000", "100116.830000", "100118.830000", "100120.830000", "100122.830000", "100124.830000", "100126.830000", "100128.830000", "100130.830000", "100132.830000", "100134.830000", "100136.830000", "100138.830000", "100140.830000", "100142.830000", "100144.830000", "100146.830000", "100148.830000", "100150.830000", "100152.830000", "100154.830000", "100156.830000", "100158.830000", "100200.830000", "100202.830000", "100204.830000", "100206.830000", "100208.830000", "100210.830000", "100212.830000", "100214.830000", "100216.830000", "100218.830000", "100220.830000", "100222.830000", "100224.830000", "100226.830000", "100228.830000", "100230.830000", "100232.830000", "100234.830000", "100236.830000", "100238.830000", "100240.830000", "100242.830000", "100244.830000", "100246.830000", "100248.830000", "100250.830000", "100252.830000", "100254.830000", "100256.830000", "100258.830000", "100300.830000", "100302.830000", "100304.830000", "100306.830000", "100308.830000", "100310.830000", "100312.830000", "100314.830000", "100316.830000", "100318.830000", "100320.830000", "100322.830000", "100324.830000", "100326.830000", "100328.830000", "100330.830000", "100332.830000", "100334.830000", "100336.830000", "100338.830000", "100340.830000", "100342.830000", "100344.830000", "100346.830000", "100348.830000", "100350.830000", "100352.830000", "100354.830000", "100356.830000", "100358.830000", "100400.830000", "100402.830000", "100404.830000", "100406.830000", "100408.830000", "100410.830000", "100412.830000", "100414.830000", "100416.830000", "100418.830000", "100420.830000", "100422.830000", "100424.830000", "100426.830000", "100428.830000", "100430.830000", "100432.830000", "100434.830000", "100436.830000", "100438.830000", "100440.830000", "100442.830000", "100444.830000", "100446.830000", "100448.830000", "100450.830000", "100452.830000", "100454.830000", "100456.830000", "100458.830000", "100500.830000", "100502.830000", "100504.830000", "100506.830000", "100508.830000", "100510.830000", "100512.830000", "100514.830000", "100516.830000", "100518.830000", "100520.830000", "100522.830000", "100524.830000", "100526.830000", "100528.830000", "100530.830000", "100532.830000", "100534.830000", "100536.830000", "100538.830000", "100540.830000", "100542.830000", "100544.830000", "100546.830000", "100548.830000", "100550.830000", "100552.830000", "100554.830000", "100556.830000", "100558.830000", "100600.830000", "100602.830000", "100604.830000", "100606.830000", "100608.830000", "100610.830000", "100612.830000", "100614.830000", "100616.830000"],
      "ContentTime": ["100032.314000", "100032.318000", "100032.321000", "100032.323000", "100032.326000", "100032.328000", "100032.331000", "100032.333000", "100032.336000", "100032.338000", "100032.341000", "100032.343000", "100032.346000", "100032.348000", "100032.351000", "100032.354000", "100032.356000", "100032.359000", "100032.361000", "100032.364000", "100032.366000", "100032.369000", "100032.372000", "100032.374000", "100032.377000", "100032.379000", "100112.310000", "100112.312000", "100112.315000", "100112.317000", "100112.320000", "100112.323000", "100112.325000", "100112.328000", "100112.331000", "100112.333000", "100112.336000", "100112.338000", "100112.341000", "100112.344000", "100112.346000", "100112.349000", "100112.351000", "100112.354000", "100112.356000", "100112.359000", "100152.309000", "100152.312000", "100152.315000", "100152.317000", "100152.320000", "100152.323000", "100152.325000", "100152.328000", "100152.330000", "100152.333000", "100152.335000", "100152.338000", "100152.341000", "100152.343000", "100152.346000", "100152.348000", "100152.351000", "100152.354000", "100152.356000", "100152.359000", "100232.309000", "100232.312000", "100232.315000", "100232.317000", "100232.320000", "100232.322000", "100232.325000", "100232.327000", "100232.330000", "100232.333000", "100232.335000", "100232.338000", "100232.340000", "100232.343000", "100232.345000", "100232.348000", "100232.351000", "100232.353000", "100232.356000", "100232.358000", "100312.309000", "100312.312000", "100312.315000", "100312.317000", "100312.320000", "100312.323000", "100312.325000", "100312.328000", "100312.331000", "100312.333000", "100312.336000", "100312.338000", "100312.341000", "100312.343000", "100312.346000", "100312.349000", "100312.351000", "100312.354000", "100312.356000", "100312.374000", "100352.309000", "100352.312000", "100352.315000", "100352.317000", "100352.320000", "100352.323000", "100352.325000", "100352.328000", "100352.331000", "100352.333000", "100352.336000", "100352.338000", "100352.341000", "100352.344000", "100352.346000", "100352.349000", "100352.351000", "100352.354000", "100352.357000", "100352.359000", "100432.309000", "100432.312000", "100432.314000", "100432.317000", "100432.320000", "100432.322000", "100432.325000", "100432.327000", "100432.330000", "100432.333000", "100432.335000", "100432.338000", "100432.340000", "100432.343000", "100432.346000", "100432.348000", "100432.351000", "100432.353000", "100432.356000", "100432.359000", "100512.310000", "100512.312000", "100512.315000", "100512.318000", "100512.320000", "100512.323000", "100512.326000", "100512.328000", "100512.331000", "100512.333000", "100512.336000", "100512.339000", "100512.341000", "100512.344000", "100512.346000", "100512.349000", "100512.352000", "100512.354000", "100512.357000", "100512.359000", "100552.310000", "100552.312000", "100552.315000", "100552.318000", "100552.320000", "100552.323000", "100552.325000", "100552.328000", "100552.331000", "100552.333000", "100552.336000", "100552.338000", "100552.341000", "100552.344000", "100552.346000", "100552.349000", "100552.351000", "100552.354000", "100552.356000", "100552.359000", "100618.717000", "100618.720000", "100618.722000", "100618.725000", "100618.728000", "100618.730000", "100618.733000", "100618.736000", "100618.738000", "100618.741000", "100618.744000", "100618.750000", "100618.756000", "100618.761000"],
      "InstanceCreationTime": ["100032.314000", "100032.318000", "100032.321000", "100032.323000", "100032.326000", "100032.328000", "100032.331000", "100032.333000", "100032.336000", "100032.338000", "100032.341000", "100032.343000", "100032.346000", "100032.348000", "100032.351000", "100032.354000", "100032.356000", "100032.359000", "100032.361000", "100032.364000", "100032.366000", "100032.369000", "100032.372000", "100032.374000", "100032.377000", "100032.379000", "100112.310000", "100112.312000", "100112.315000", "100112.317000", "100112.320000", "100112.323000", "100112.325000", "100112.328000", "100112.331000", "100112.333000", "100112.336000", "100112.338000", "100112.341000", "100112.344000", "100112.346000", "100112.349000", "100112.351000", "100112.354000", "100112.356000", "100112.359000", "100152.309000", "100152.312000", "100152.315000", "100152.317000", "100152.320000", "100152.323000", "100152.325000", "100152.328000", "100152.330000", "100152.333000", "100152.335000", "100152.338000", "100152.341000", "100152.343000", "100152.346000", "100152.348000", "100152.351000", "100152.354000", "100152.356000", "100152.359000", "100232.309000", "100232.312000", "100232.315000", "100232.317000", "100232.320000", "100232.322000", "100232.325000", "100232.327000", "100232.330000", "100232.333000", "100232.335000", "100232.338000", "100232.340000", "100232.343000", "100232.345000", "100232.348000", "100232.351000", "100232.353000", "100232.356000", "100232.358000", "100312.309000", "100312.312000", "100312.315000", "100312.317000", "100312.320000", "100312.323000", "100312.325000", "100312.328000", "100312.331000", "100312.333000", "100312.336000", "100312.338000", "100312.341000", "100312.343000", "100312.346000", "100312.349000", "100312.351000", "100312.354000", "100312.356000", "100312.374000", "100352.309000", "100352.312000", "100352.315000", "100352.317000", "100352.320000", "100352.323000", "100352.325000", "100352.328000", "100352.331000", "100352.333000", "100352.336000", "100352.338000", "100352.341000", "100352.344000", "100352.346000", "100352.349000", "100352.351000", "100352.354000", "100352.357000", "100352.359000", "100432.309000", "100432.312000", "100432.314000", "100432.317000", "100432.320000", "100432.322000", "100432.325000", "100432.327000", "100432.330000", "100432.333000", "100432.335000", "100432.338000", "100432.340000", "100432.343000", "100432.346000", "100432.348000", "100432.351000", "100432.353000", "100432.356000", "100432.359000", "100512.310000", "100512.312000", "100512.315000", "100512.318000", "100512.320000", "100512.323000", "100512.326000", "100512.328000", "100512.331000", "100512.333000", "100512.336000", "100512.339000", "100512.341000", "100512.344000", "100512.346000", "100512.349000", "100512.352000", "100512.354000", "100512.357000", "100512.359000", "100552.310000", "100552.312000", "100552.315000", "100552.318000", "100552.320000", "100552.323000", "100552.325000", "100552.328000", "100552.331000", "100552.333000", "100552.336000", "100552.338000", "100552.341000", "100552.344000", "100552.346000", "100552.349000", "100552.351000", "100552.354000", "100552.356000", "100552.359000", "100618.717000", "100618.720000", "100618.722000", "100618.725000", "100618.728000", "100618.730000", "100618.733000", "100618.736000", "100618.738000", "100618.741000", "100618.744000", "100618.750000", "100618.756000", "100618.761000"],
      "InstanceNumber": [1, 2, 3, 4, 5, 6, 7, 8, 9, 10, 11, 12, 13, 14, 15, 16, 17, 18, 19, 20, 21, 22, 23, 24, 25, 26, 27, 28, 29, 30, 31, 32, 33, 34, 35, 36, 37, 38, 39, 40, 41, 42, 43, 44, 45, 46, 47, 48, 49, 50, 51, 52, 53, 54, 55, 56, 57, 58, 59, 60, 61, 62, 63, 64, 65, 66, 67, 68, 69, 70, 71, 72, 73, 74, 75, 76, 77, 78, 79, 80, 81, 82, 83, 84, 85, 86, 87, 88, 89, 90, 91, 92, 93, 94, 95, 96, 97, 98, 99, 100, 101, 102, 103, 104, 105, 106, 107, 108, 109, 110, 111, 112, 113, 114, 115, 116, 117, 118, 119, 120, 121, 122, 123, 124, 125, 126, 127, 128, 129, 130, 131, 132, 133, 134, 135, 136, 137, 138, 139, 140, 141, 142, 143, 144, 145, 146, 147, 148, 149, 150, 151, 152, 153, 154, 155, 156, 157, 158, 159, 160, 161, 162, 163, 164, 165, 166, 167, 168, 169, 170, 171, 172, 173, 174, 175, 176, 177, 178, 179, 180, 181, 182, 183, 184, 185, 186, 187, 188, 189, 190, 191, 192, 193, 194, 195, 196, 197, 198, 199, 200],
      "LargestImagePixelValue": [2223, 2229, 2237, 2233, 2232, 2242, 2242, 2227, 2234, 2231, 2232, 2230, 2238, 2229, 2239, 2235, 2235, 2233, 2233, 2238, 2232, 2240, 2235, 2230, 2234, 2227, 2233, 2231, 2238, 2227, 2233, 2224, 2227, 2226, 2239, 2231, 2232, 2237, 2233, 2232, 2235, 2230, 2233, 2230, 2236, 2235, 2226, 2238, 2236, 2233, 2225, 2239, 2234, 2235, 2243, 2238, 2248, 2238, 2231, 2231, 2237, 2237, 2224, 2240, 2232, 2242, 2236, 2243, 2250, 2245, 2244, 2235, 2237, 2240, 2240, 2242, 2239, 2232, 2235, 2233, 2237, 2238, 2233, 2240, 2239, 2236, 2239, 2237, 2243, 2241, 2236, 2234, 2234, 2233, 2238, 2243, 2244, 2241, 2238, 2232, 2240, 2238, 2239, 2237, 2239, 2237, 2241, 2239, 2242, 2241, 2243, 2238, 2248, 2242, 2245, 2244, 2247, 2247, 2247, 2245, 2240, 2246, 2243, 2249, 2240, 2243, 2236, 2249, 2242, 2244, 2246, 2245, 2249, 2247, 2236, 2240, 2246, 2239, 2244, 2239, 2244, 2247, 2250, 2241, 2238, 2236, 2237, 2241, 2239, 2242, 2242, 2253, 2243, 2245, 2241, 2251, 2246, 2247, 2246, 2244, 2255, 2249, 2255, 2241, 2253, 2250, 2247, 2250, 2243, 2253, 2255, 2245, 2243, 2234, 2243, 2247, 2239, 2236, 2242, 2244, 2244, 2242, 2246, 2247, 2238, 2245, 2242, 2248, 2238, 2245, 2248, 2258, 2246, 2251, 2240, 2245, 2249, 2247, 2249, 2249],
      "WindowCenter": [1048.0, 1048.0, 1048.0, 1048.0, 1048.0, 1048.0, 1048.0, 1048.0, 1048.0, 1048.0, 1048.0, 1048.0, 1048.0, 1048.0, 1048.0, 1048.0, 1048.0, 1048.0, 1048.0, 1048.0, 1048.0, 1048.0, 1048.0, 1048.0, 1048.0, 1048.0, 1048.0, 1048.0, 1048.0, 1048.0, 1048.0, 1048.0, 1048.0, 1048.0, 1048.0, 1048.0, 1048.0, 1048.0, 1048.0, 1048.0, 1048.0, 1048.0, 1048.0, 1048.0, 1048.0, 1048.0, 1048.0, 1048.0, 1048.0, 1048.0, 1048.0, 1047.0, 1047.0, 1047.0, 1047.0, 1048.0, 1048.0, 1047.0, 1048.0, 1048.0, 1047.0, 1047.0, 1048.0, 1048.0, 1048.0, 1048.0, 1048.0, 1048.0, 1048.0, 1048.0, 1048.0, 1048.0, 1048.0, 1048.0, 1047.0, 1048.0, 1048.0, 1047.0, 1047.0, 1048.0, 1047.0, 1047.0, 1047.0, 1047.0, 1047.0, 1047.0, 1047.0, 1047.0, 1047.0, 1047.0, 1047.0, 1047.0, 1047.0, 1047.0, 1047.0, 1047.0, 1047.0, 1047.0, 1047.0, 1047.0, 1047.0, 1047.0, 1047.0, 1047.0, 1047.0, 1047.0, 1047.0, 1047.0, 1047.0, 1047.0, 1047.0, 1047.0, 1047.0, 1047.0, 1047.0, 1047.0, 1047.0, 1047.0, 1047.0, 1047.0, 1047.0, 1047.0, 1047.0, 1047.0, 1047.0, 1047.0, 1047.0, 1047.0, 1047.0, 1047.0, 1047.0, 1047.0, 1047.0, 1047.0, 1047.0, 1047.0, 1047.0, 1047.0, 1047.0, 1047.0, 1047.0, 1047.0, 1047.0, 1047.0, 1047.0, 1047.0, 1047.0, 1047.0, 1047.0, 1047.0, 1047.0, 1047.0, 1047.0, 1047.0, 1047.0, 1047.0, 1047.0, 1047.0, 1047.0, 1047.0, 1047.0, 1047.0, 1047.0, 1047.0, 1047.0, 1047.0, 1047.0, 1047.0, 1047.0, 1047.0, 1047.0, 1047.0, 1047.0, 1047.0, 1047.0, 1047.0, 1047.0, 1047.0, 1047.0, 1047.0, 1047.0, 1047.0, 1047.0, 1047.0, 1047.0, 1047.0, 1047.0, 1047.0, 1047.0, 1047.0, 1047.0, 1047.0, 1047.0, 1047.0, 1047.0, 1047.0, 1047.0, 1047.0, 1047.0, 1047.0],
      "WindowWidth": [2337.0, 2337.0, 2337.0, 2337.0, 2337.0, 2337.0, 2337.0, 2337.0, 2337.0, 2337.0, 2337.0, 2337.0, 2337.0, 2336.0, 2337.0, 2336.0, 2336.0, 2336.0, 2336.0, 2335.0, 2336.0, 2336.0, 2336.0, 2336.0, 2336.0, 2336.0, 2336.0, 2336.0, 2336.0, 2335.0, 2336.0, 2336.0, 2335.0, 2335.0, 2336.0, 2336.0, 2336.0, 2336.0, 2336.0, 2335.0, 2335.0, 2335.0, 2335.0, 2336.0, 2336.0, 2335.0, 2335.0, 2335.0, 2335.0, 2335.0, 2335.0, 2335.0, 2335.0, 2335.0, 2335.0, 2335.0, 2335.0, 2334.0, 2335.0, 2335.0, 2335.0, 2335.0, 2335.0, 2335.0, 2335.0, 2335.0, 2335.0, 2335.0, 2335.0, 2335.0, 2335.0, 2335.0, 2335.0, 2335.0, 2336.0, 2335.0, 2335.0, 2335.0, 2335.0, 2335.0, 2335.0, 2334.0, 2335.0, 2335.0, 2335.0, 2334.0, 2334.0, 2334.0, 2334.0, 2335.0, 2334.0, 2335.0, 2334.0, 2334.0, 2334.0, 2334.0, 2335.0, 2335.0, 2334.0, 2334.0, 2335.0, 2335.0, 2335.0, 2334.0, 2334.0, 2334.0, 2334.0, 2334.0, 2334.0, 2335.0, 2334.0, 2334.0, 2334.0, 2334.0, 2334.0, 2334.0, 2334.0, 2334.0, 2334.0, 2334.0, 2334.0, 2334.0, 2334.0, 2334.0, 2334.0, 2334.0, 2334.0, 2334.0, 2334.0, 2334.0, 2334.0, 2334.0, 2334.0, 2334.0, 2334.0, 2334.0, 2334.0, 2334.0, 2334.0, 2334.0, 2334.0, 2334.0, 2334.0, 2334.0, 2334.0, 2334.0, 2334.0, 2334.0, 2334.0, 2334.0, 2334.0, 2334.0, 2333.0, 2334.0, 2333.0, 2334.0, 2334.0, 2334.0, 2333.0, 2333.0, 2334.0, 2333.0, 2334.0, 2334.0, 2334.0, 2334.0, 2334.0, 2333.0, 2334.0, 2333.0, 2334.0, 2333.0, 2333.0, 2334.0, 2333.0, 2333.0, 2333.0, 2333.0, 2334.0, 2333.0, 2333.0, 2333.0, 2334.0, 2333.0, 2334.0, 2334.0, 2333.0, 2334.0, 2333.0, 2333.0, 2334.0, 2333.0, 2333.0, 2334.0, 2333.0, 2333.0, 2333.0, 2333.0, 2333.0, 2333.0]
    },
    "slices": {}
  }
}