{
  "AcquisitionMatrixPE": 80,
  "AcquisitionNumber": 1,
  "AcquisitionTime": "10:20:10.492500",
  "BandwidthPerPixelPhaseEncode": 25,
  "BaseResolution": 80,
  "BodyPartExamined": "BRAIN",
  "CoilCombinationMethod": "Sum of Squares",
  "ConsistencyInfo": "N4_VE11C_LATEST_20160120",
  "ConversionSoftware": "dcm2niix",
  "ConversionSoftwareVersion": "v1.0.20220720",
  "DerivedVendorReportedEchoSpacing": 0.0005,
  "DeviceSerialNumber": "66112",
  "DwellTime": 2.7e-06,
  "EchoTime": 0.03,
  "EchoTrainLength": 80,
  "EffectiveEchoSpacing": 0.0005,
  "FlipAngle": 10,
  "HeudiconvVersion": "0.13.1",
  "ImageOrientationPatientDICOM": [0.984442, -0.175709, -0.000732662, 0.167743, 0.938553, 0.30163],
  "ImageOrientationText": "Tra>Cor(17.3)>Sag(3.0)",
  "ImageType": [
    "ORIGINAL",
    "PRIMARY",
    "M",
    "ND",
    "NORM",
    "MOSAIC"
],
  "ImagingFrequency": 123.252,
  "InPlanePhaseEncodingDirectionDICOM": "COL",
  "InstitutionAddress": "Maynard 3,Hanover,NH,US,03755",
  "InstitutionName": "Dartmouth College - PBS",
  "InstitutionalDepartmentName": "Department",
  "MRAcquisitionType": "2D",
  "MagneticFieldStrength": 3,
  "Manufacturer": "Siemens",
  "ManufacturersModelName": "Prisma",
  "MatrixCoilMode": "SENSE",
  "Modality": "MR",
  "NonlinearGradientCorrection": false,
  "PartialFourier": 1,
  "PatientPosition": "HFS",
  "PercentPhaseFOV": 100,
  "PercentSampling": 100,
  "PhaseEncodingDirection": "j-",
  "PhaseEncodingSteps": 80,
  "PhaseResolution": 1,
  "PixelBandwidth": 2315,
  "ProcedureStepDescription": "dbic^QA",
  "ProtocolName": "func-bold_fa-10",
  "PulseSequenceDetails": "%SiemensSeq%\\ep2d_bold",
  "ReceiveCoilActiveElements": "HEA;HEP",
  "ReceiveCoilName": "Head_32",
  "ReconMatrixPE": 80,
  "RepetitionTime": 2,
  "SAR": 0.0117362,
  "ScanOptions": "FS",
  "ScanningSequence": "EP",
  "SequenceName": "*epfid2d1_80",
  "SequenceVariant": "SK",
  "SeriesDescription": "func-bold_fa-10",
  "SeriesNumber": 10,
  "ShimSetting": [4142, -7694, -7521, 256, -91, -80, 20, 81],
  "SliceThickness": 3.5,
  "SliceTiming": [0.99, 0, 1.055, 0.065, 1.12, 0.13, 1.1875, 0.1975, 1.2525, 0.2625, 1.32, 0.33, 1.385, 0.395, 1.45, 0.46, 1.5175, 0.5275, 1.5825, 0.5925, 1.65, 0.66, 1.715, 0.725, 1.78, 0.79, 1.8475, 0.8575, 1.9125, 0.9225],
  "SoftwareVersions": "syngo MR E11",
  "SpacingBetweenSlices": 3.99,
  "StationName": "AWP66112",
  "TotalReadoutTime": 0.0395,
  "TxRefAmp": 227.776,
  "dcmmeta_affine": [
    [-2.9533255100250244, 0.5032296776771545, 0.20872288942337036, 93.82328796386719],
    [0.5271278023719788, 2.8156590461730957, 1.185268759727478, -140.91049194335938],
    [-0.002197985304519534, -0.9048892855644226, 3.8041651248931885, -6.344367504119873],
    [0.0, 0.0, 0.0, 1.0]
],
  "dcmmeta_reorient_transform": [
    [0.0, -1.0, 0.0, 79.0],
    [1.0, 0.0, 0.0, 0.0],
    [0.0, 0.0, 1.0, 0.0],
    [0.0, 0.0, 0.0, 1.0]
],
  "dcmmeta_shape": [80, 80, 30, 200],
  "dcmmeta_slice_dim": 2,
  "dcmmeta_version": 0.6,
  "global": {
    "const": {
      "AccessionNumber": "qa",
      "AcquisitionMatrix": [80, 0, 0, 80],
      "AngioFlag": "N",
      "BitsAllocated": 16,
      "BitsStored": 12,
      "BodyPartExamined": "BRAIN",
      "Columns": 480,
      "EchoNumbers": 1,
      "EchoTime": 30.0,
      "EchoTrainLength": 80,
      "FlipAngle": 10.0,
      "HighBit": 11,
      "ImageOrientationPatient": [0.9844418289417, -0.1757092730525, -0.0007326617888, 0.16774323229382, 0.9385529797452, 0.30162976018793],
      "ImagePositionPatient": [-824.88947152564, -539.23279081735, -258.36887990255],
      "ImageType": [
        "ORIGINAL",
        "PRIMARY",
        "M",
        "ND",
        "NORM",
        "MOSAIC"
],
      "ImagedNucleus": "1H",
      "ImagingFrequency": 123.252346,
      "InPlanePhaseEncodingDirection": "COL",
      "MRAcquisitionType": "2D",
      "MagneticFieldStrength": 3.0,
      "Manufacturer": "SIEMENS",
      "ManufacturerModelName": "Prisma",
      "Modality": "MR",
      "NumberOfAverages": 1.0,
      "NumberOfPhaseEncodingSteps": 80,
      "PercentPhaseFieldOfView": 100.0,
      "PercentSampling": 100.0,
      "PerformedProcedureStepStartTime": "095807.490000",
      "PhotometricInterpretation": "MONOCHROME2",
      "PixelBandwidth": 2315.0,
      "PixelRepresentation": 0,
      "PixelSpacing": [3.0, 3.0],
      "ProtocolName": "func-bold_fa-10",
      "RepetitionTime": 2000.0,
      "Rows": 480,
      "SAR": 0.01173618474505,
      "SamplesPerPixel": 1,
      "ScanOptions": "FS",
      "ScanningSequence": "EP",
      "SequenceName": "*epfid2d1_80",
      "SequenceVariant": "SK",
      "SeriesDescription": "func-bold_fa-10",
      "SeriesNumber": 10,
      "SeriesTime": "102052.310000",
      "SliceLocation": -42.999689603018,
      "SliceThickness": 3.5,
      "SmallestImagePixelValue": 0,
      "SoftwareVersions": "syngo MR E11",
      "SpacingBetweenSlices": 3.9899998678352,
      "SpecificCharacterSet": "ISO_IR 100",
      "StudyID": "2",
      "StudyTime": "095807.428000",
      "TransmitCoilName": "Body",
      "VariableFlipAngleFlag": "N",
      "WindowCenterWidthExplanation": "Algo1",
      "dBdt": 0.0},
    "slices": {}
  },
  "time": {
    "samples": {
      "AcquisitionNumber": [1, 2, 3, 4, 5, 6, 7, 8, 9, 10, 11, 12, 13, 14, 15, 16, 17, 18, 19, 20, 21, 22, 23, 24, 25, 26, 27, 28, 29, 30, 31, 32, 33, 34, 35, 36, 37, 38, 39, 40, 41, 42, 43, 44, 45, 46, 47, 48, 49, 50, 51, 52, 53, 54, 55, 56, 57, 58, 59, 60, 61, 62, 63, 64, 65, 66, 67, 68, 69, 70, 71, 72, 73, 74, 75, 76, 77, 78, 79, 80, 81, 82, 83, 84, 85, 86, 87, 88, 89, 90, 91, 92, 93, 94, 95, 96, 97, 98, 99, 100, 101, 102, 103, 104, 105, 106, 107, 108, 109, 110, 111, 112, 113, 114, 115, 116, 117, 118, 119, 120, 121, 122, 123, 124, 125, 126, 127, 128, 129, 130, 131, 132, 133, 134, 135, 136, 137, 138, 139, 140, 141, 142, 143, 144, 145, 146, 147, 148, 149, 150, 151, 152, 153, 154, 155, 156, 157, 158, 159, 160, 161, 162, 163, 164, 165, 166, 167, 168, 169, 170, 171, 172, 173, 174, 175, 176, 177, 178, 179, 180, 181, 182, 183, 184, 185, 186, 187, 188, 189, 190, 191, 192, 193, 194, 195, 196, 197, 198, 199, 200],
      "AcquisitionTime": ["102010.492500", "102012.492500", "102014.492500", "102016.492500", "102018.492500", "102020.492500", "102022.492500", "102024.492500", "102026.492500", "102028.492500", "102030.492500", "102032.492500", "102034.492500", "102036.492500", "102038.492500", "102040.492500", "102042.492500", "102044.492500", "102046.492500", "102048.492500", "102050.492500", "102052.492500", "102054.492500", "102056.492500", "102058.492500", "102100.492500", "102102.492500", "102104.492500", "102106.492500", "102108.492500", "102110.492500", "102112.492500", "102114.492500", "102116.492500", "102118.492500", "102120.492500", "102122.492500", "102124.492500", "102126.492500", "102128.492500", "102130.492500", "102132.492500", "102134.492500", "102136.492500", "102138.492500", "102140.492500", "102142.492500", "102144.492500", "102146.492500", "102148.492500", "102150.492500", "102152.492500", "102154.492500", "102156.492500", "102158.492500", "102200.492500", "102202.492500", "102204.492500", "102206.492500", "102208.492500", "102210.492500", "102212.492500", "102214.492500", "102216.492500", "102218.492500", "102220.492500", "102222.492500", "102224.492500", "102226.492500", "102228.492500", "102230.492500", "102232.492500", "102234.492500", "102236.492500", "102238.492500", "102240.492500", "102242.492500", "102244.492500", "102246.492500", "102248.492500", "102250.492500", "102252.492500", "102254.492500", "102256.492500", "102258.492500", "102300.492500", "102302.492500", "102304.492500", "102306.492500", "102308.492500", "102310.492500", "102312.492500", "102314.492500", "102316.492500", "102318.492500", "102320.492500", "102322.492500", "102324.492500", "102326.492500", "102328.492500", "102330.492500", "102332.492500", "102334.492500", "102336.492500", "102338.492500", "102340.492500", "102342.492500", "102344.492500", "102346.492500", "102348.492500", "102350.492500", "102352.492500", "102354.492500", "102356.492500", "102358.492500", "102400.492500", "102402.492500", "102404.492500", "102406.492500", "102408.492500", "102410.492500", "102412.492500", "102414.492500", "102416.492500", "102418.492500", "102420.492500", "102422.492500", "102424.492500", "102426.492500", "102428.492500", "102430.492500", "102432.492500", "102434.492500", "102436.492500", "102438.492500", "102440.492500", "102442.492500", "102444.492500", "102446.492500", "102448.492500", "102450.492500", "102452.492500", "102454.492500", "102456.492500", "102458.492500", "102500.492500", "102502.492500", "102504.492500", "102506.492500", "102508.492500", "102510.492500", "102512.492500", "102514.492500", "102516.492500", "102518.492500", "102520.492500", "102522.492500", "102524.492500", "102526.492500", "102528.492500", "102530.492500", "102532.492500", "102534.492500", "102536.492500", "102538.492500", "102540.492500", "102542.492500", "102544.492500", "102546.492500", "102548.492500", "102550.492500", "102552.492500", "102554.492500", "102556.492500", "102558.492500", "102600.492500", "102602.492500", "102604.492500", "102606.492500", "102608.492500", "102610.492500", "102612.492500", "102614.492500", "102616.492500", "102618.492500", "102620.492500", "102622.492500", "102624.492500", "102626.492500", "102628.492500", "102630.492500", "102632.492500", "102634.492500", "102636.492500", "102638.492500", "102640.492500", "102642.492500", "102644.492500", "102646.492500", "102648.492500"],
      "ContentTime": ["102052.313000", "102052.317000", "102052.319000", "102052.322000", "102052.324000", "102052.327000", "102052.330000", "102052.332000", "102052.334000", "102052.337000", "102052.339000", "102052.342000", "102052.344000", "102052.347000", "102052.349000", "102052.352000", "102052.354000", "102052.357000", "102052.369000", "102052.372000", "102052.374000", "102132.310000", "102132.313000", "102132.315000", "102132.318000", "102132.320000", "102132.323000", "102132.325000", "102132.328000", "102132.331000", "102132.333000", "102132.336000", "102132.338000", "102132.341000", "102132.343000", "102132.346000", "102132.348000", "102132.351000", "102132.353000", "102132.356000", "102132.358000", "102212.309000", "102212.313000", "102212.315000", "102212.318000", "102212.320000", "102212.323000", "102212.325000", "102212.328000", "102212.330000", "102212.337000", "102212.339000", "102212.342000", "102212.344000", "102212.347000", "102212.349000", "102212.352000", "102212.354000", "102212.357000", "102212.359000", "102212.362000", "102252.308000", "102252.311000", "102252.314000", "102252.316000", "102252.319000", "102252.321000", "102252.324000", "102252.326000", "102252.329000", "102252.331000", "102252.334000", "102252.336000", "102252.339000", "102252.341000", "102252.344000", "102252.346000", "102252.349000", "102252.351000", "102252.354000", "102252.356000", "102332.309000", "102332.312000", "102332.315000", "102332.317000", "102332.320000", "102332.322000", "102332.325000", "102332.327000", "102332.330000", "102332.332000", "102332.335000", "102332.338000", "102332.340000", "102332.343000", "102332.345000", "102332.348000", "102332.350000", "102332.353000", "102332.355000", "102332.358000", "102412.309000", "102412.312000", "102412.315000", "102412.317000", "102412.320000", "102412.322000", "102412.325000", "102412.327000", "102412.330000", "102412.332000", "102412.335000", "102412.337000", "102412.340000", "102412.342000", "102412.345000", "102412.347000", "102412.350000", "102412.352000", "102412.355000", "102412.357000", "102452.309000", "102452.312000", "102452.315000", "102452.317000", "102452.320000", "102452.322000", "102452.325000", "102452.327000", "102452.330000", "102452.332000", "102452.335000", "102452.338000", "102452.340000", "102452.343000", "102452.345000", "102452.348000", "102452.350000", "102452.353000", "102452.355000", "102452.358000", "102532.308000", "102532.311000", "102532.314000", "102532.316000", "102532.319000", "102532.321000", "102532.324000", "102532.327000", "102532.329000", "102532.332000", "102532.334000", "102532.337000", "102532.339000", "102532.342000", "102532.344000", "102532.347000", "102532.349000", "102532.352000", "102532.354000", "102532.357000", "102612.310000", "102612.312000", "102612.315000", "102612.318000", "102612.320000", "102612.323000", "102612.325000", "102612.328000", "102612.330000", "102612.333000", "102612.335000", "102612.338000", "102612.340000", "102612.343000", "102612.345000", "102612.348000", "102612.350000", "102612.353000", "102612.355000", "102612.358000", "102649.615000", "102649.618000", "102649.620000", "102649.623000", "102649.625000", "102649.628000", "102649.631000", "102649.633000", "102649.636000", "102649.638000", "102649.641000", "102649.644000", "102649.647000", "102649.656000", "102649.659000", "102649.665000", "102649.668000", "102649.675000", "102649.679000"],
      "InstanceCreationTime": ["102052.313000", "102052.317000", "102052.319000", "102052.322000", "102052.324000", "102052.327000", "102052.330000", "102052.332000", "102052.334000", "102052.337000", "102052.339000", "102052.342000", "102052.344000", "102052.347000", "102052.349000", "102052.352000", "102052.354000", "102052.357000", "102052.369000", "102052.372000", "102052.374000", "102132.310000", "102132.313000", "102132.315000", "102132.318000", "102132.320000", "102132.323000", "102132.325000", "102132.328000", "102132.331000", "102132.333000", "102132.336000", "102132.338000", "102132.341000", "102132.343000", "102132.346000", "102132.348000", "102132.351000", "102132.353000", "102132.356000", "102132.358000", "102212.309000", "102212.313000", "102212.315000", "102212.318000", "102212.320000", "102212.323000", "102212.325000", "102212.328000", "102212.330000", "102212.337000", "102212.339000", "102212.342000", "102212.344000", "102212.347000", "102212.349000", "102212.352000", "102212.354000", "102212.357000", "102212.359000", "102212.362000", "102252.308000", "102252.311000", "102252.314000", "102252.316000", "102252.319000", "102252.321000", "102252.324000", "102252.326000", "102252.329000", "102252.331000", "102252.334000", "102252.336000", "102252.339000", "102252.341000", "102252.344000", "102252.346000", "102252.349000", "102252.351000", "102252.354000", "102252.356000", "102332.309000", "102332.312000", "102332.315000", "102332.317000", "102332.320000", "102332.322000", "102332.325000", "102332.327000", "102332.330000", "102332.332000", "102332.335000", "102332.338000", "102332.340000", "102332.343000", "102332.345000", "102332.348000", "102332.350000", "102332.353000", "102332.355000", "102332.358000", "102412.309000", "102412.312000", "102412.315000", "102412.317000", "102412.320000", "102412.322000", "102412.325000", "102412.327000", "102412.330000", "102412.332000", "102412.335000", "102412.337000", "102412.340000", "102412.342000", "102412.345000", "102412.347000", "102412.350000", "102412.352000", "102412.355000", "102412.357000", "102452.309000", "102452.312000", "102452.315000", "102452.317000", "102452.320000", "102452.322000", "102452.325000", "102452.327000", "102452.330000", "102452.332000", "102452.335000", "102452.338000", "102452.340000", "102452.343000", "102452.345000", "102452.348000", "102452.350000", "102452.353000", "102452.355000", "102452.358000", "102532.308000", "102532.311000", "102532.314000", "102532.316000", "102532.319000", "102532.321000", "102532.324000", "102532.327000", "102532.329000", "102532.332000", "102532.334000", "102532.337000", "102532.339000", "102532.342000", "102532.344000", "102532.347000", "102532.349000", "102532.352000", "102532.354000", "102532.357000", "102612.310000", "102612.312000", "102612.315000", "102612.318000", "102612.320000", "102612.323000", "102612.325000", "102612.328000", "102612.330000", "102612.333000", "102612.335000", "102612.338000", "102612.340000", "102612.343000", "102612.345000", "102612.348000", "102612.350000", "102612.353000", "102612.355000", "102612.358000", "102649.615000", "102649.618000", "102649.620000", "102649.623000", "102649.625000", "102649.628000", "102649.631000", "102649.633000", "102649.636000", "102649.638000", "102649.641000", "102649.644000", "102649.647000", "102649.656000", "102649.659000", "102649.665000", "102649.668000", "102649.675000", "102649.679000"],
      "InstanceNumber": [1, 2, 3, 4, 5, 6, 7, 8, 9, 10, 11, 12, 13, 14, 15, 16, 17, 18, 19, 20, 21, 22, 23, 24, 25, 26, 27, 28, 29, 30, 31, 32, 33, 34, 35, 36, 37, 38, 39, 40, 41, 42, 43, 44, 45, 46, 47, 48, 49, 50, 51, 52, 53, 54, 55, 56, 57, 58, 59, 60, 61, 62, 63, 64, 65, 66, 67, 68, 69, 70, 71, 72, 73, 74, 75, 76, 77, 78, 79, 80, 81, 82, 83, 84, 85, 86, 87, 88, 89, 90, 91, 92, 93, 94, 95, 96, 97, 98, 99, 100, 101, 102, 103, 104, 105, 106, 107, 108, 109, 110, 111, 112, 113, 114, 115, 116, 117, 118, 119, 120, 121, 122, 123, 124, 125, 126, 127, 128, 129, 130, 131, 132, 133, 134, 135, 136, 137, 138, 139, 140, 141, 142, 143, 144, 145, 146, 147, 148, 149, 150, 151, 152, 153, 154, 155, 156, 157, 158, 159, 160, 161, 162, 163, 164, 165, 166, 167, 168, 169, 170, 171, 172, 173, 174, 175, 176, 177, 178, 179, 180, 181, 182, 183, 184, 185, 186, 187, 188, 189, 190, 191, 192, 193, 194, 195, 196, 197, 198, 199, 200],
      "LargestImagePixelValue": [388, 387, 387, 388, 387, 386, 387, 385, 389, 388, 388, 388, 387, 388, 387, 389, 387, 387, 388, 388, 389, 388, 387, 387, 388, 385, 387, 386, 388, 386, 385, 385, 387, 387, 386, 387, 388, 388, 389, 385, 386, 388, 387, 386, 387, 390, 388, 387, 387, 386, 386, 386, 385, 387, 386, 385, 386, 388, 386, 388, 386, 385, 387, 387, 386, 386, 388, 387, 387, 387, 386, 387, 388, 389, 386, 388, 385, 387, 387, 388, 387, 386, 389, 386, 386, 387, 386, 387, 386, 387, 388, 388, 387, 386, 387, 386, 388, 385, 387, 388, 386, 386, 386, 388, 388, 388, 387, 387, 388, 387, 387, 384, 389, 387, 388, 388, 387, 386, 387, 387, 387, 386, 386, 388, 387, 388, 386, 385, 385, 387, 386, 387, 388, 384, 386, 385, 385, 387, 385, 387, 385, 388, 388, 386, 388, 386, 388, 386, 385, 387, 387, 387, 387, 387, 387, 388, 386, 387, 388, 386, 388, 388, 386, 386, 387, 386, 388, 387, 386, 388, 388, 387, 386, 387, 387, 385, 387, 388, 391, 387, 388, 386, 389, 385, 387, 388, 386, 387, 388, 389, 389, 388, 386, 387, 389, 386, 387, 388, 386, 387],
      "WindowCenter": [310.0, 310.0, 310.0, 310.0, 310.0, 310.0, 310.0, 310.0, 310.0, 310.0, 310.0, 310.0, 310.0, 310.0, 309.0, 310.0, 310.0, 310.0, 310.0, 310.0, 310.0, 309.0, 310.0, 310.0, 310.0, 310.0, 310.0, 309.0, 310.0, 310.0, 310.0, 310.0, 309.0, 310.0, 310.0, 310.0, 310.0, 309.0, 309.0, 310.0, 309.0, 309.0, 310.0, 309.0, 309.0, 310.0, 310.0, 310.0, 310.0, 310.0, 309.0, 310.0, 309.0, 309.0, 310.0, 310.0, 309.0, 309.0, 309.0, 310.0, 309.0, 309.0, 309.0, 309.0, 310.0, 309.0, 309.0, 309.0, 309.0, 309.0, 309.0, 310.0, 309.0, 310.0, 309.0, 309.0, 309.0, 309.0, 309.0, 309.0, 310.0, 309.0, 310.0, 309.0, 309.0, 309.0, 309.0, 309.0, 309.0, 309.0, 309.0, 309.0, 309.0, 309.0, 309.0, 309.0, 309.0, 309.0, 309.0, 309.0, 309.0, 309.0, 309.0, 309.0, 310.0, 309.0, 310.0, 310.0, 309.0, 309.0, 310.0, 310.0, 309.0, 309.0, 309.0, 310.0, 309.0, 310.0, 309.0, 310.0, 309.0, 309.0, 309.0, 309.0, 309.0, 309.0, 309.0, 309.0, 309.0, 309.0, 309.0, 309.0, 309.0, 309.0, 309.0, 309.0, 310.0, 310.0, 309.0, 309.0, 309.0, 310.0, 309.0, 309.0, 309.0, 310.0, 309.0, 309.0, 309.0, 309.0, 309.0, 309.0, 309.0, 309.0, 309.0, 309.0, 309.0, 310.0, 309.0, 309.0, 309.0, 310.0, 309.0, 309.0, 309.0, 309.0, 309.0, 309.0, 309.0, 309.0, 310.0, 309.0, 309.0, 309.0, 309.0, 309.0, 309.0, 309.0, 310.0, 309.0, 309.0, 309.0, 309.0, 309.0, 309.0, 309.0, 309.0, 309.0, 309.0, 309.0, 309.0, 309.0, 309.0, 309.0, 309.0, 309.0, 309.0, 309.0, 309.0, 309.0],
      "WindowWidth": [669.0, 669.0, 668.0, 669.0, 669.0, 669.0, 668.0, 669.0, 669.0, 668.0, 668.0, 669.0, 669.0, 669.0, 668.0, 669.0, 669.0, 669.0, 669.0, 669.0, 669.0, 668.0, 668.0, 668.0, 669.0, 668.0, 668.0, 668.0, 668.0, 668.0, 669.0, 669.0, 668.0, 668.0, 668.0, 669.0, 669.0, 668.0, 668.0, 668.0, 668.0, 668.0, 668.0, 668.0, 668.0, 669.0, 668.0, 668.0, 669.0, 668.0, 668.0, 668.0, 668.0, 668.0, 668.0, 668.0, 668.0, 668.0, 668.0, 668.0, 668.0, 668.0, 668.0, 668.0, 669.0, 668.0, 668.0, 668.0, 668.0, 668.0, 668.0, 668.0, 668.0, 668.0, 668.0, 668.0, 668.0, 668.0, 668.0, 668.0, 668.0, 668.0, 669.0, 668.0, 668.0, 668.0, 668.0, 668.0, 668.0, 668.0, 668.0, 668.0, 668.0, 668.0, 668.0, 668.0, 668.0, 668.0, 668.0, 668.0, 668.0, 668.0, 668.0, 668.0, 668.0, 668.0, 668.0, 668.0, 668.0, 668.0, 668.0, 668.0, 668.0, 668.0, 668.0, 668.0, 668.0, 668.0, 668.0, 668.0, 668.0, 668.0, 668.0, 668.0, 668.0, 668.0, 668.0, 668.0, 668.0, 668.0, 668.0, 668.0, 668.0, 668.0, 668.0, 668.0, 668.0, 668.0, 668.0, 668.0, 668.0, 668.0, 668.0, 668.0, 668.0, 668.0, 668.0, 668.0, 668.0, 668.0, 668.0, 668.0, 668.0, 668.0, 668.0, 668.0, 668.0, 668.0, 668.0, 668.0, 668.0, 668.0, 668.0, 668.0, 668.0, 668.0, 668.0, 668.0, 668.0, 668.0, 668.0, 668.0, 668.0, 668.0, 668.0, 668.0, 667.0, 668.0, 668.0, 668.0, 667.0, 668.0, 668.0, 668.0, 668.0, 668.0, 668.0, 668.0, 668.0, 668.0, 667.0, 668.0, 668.0, 668.0, 668.0, 668.0, 668.0, 667.0, 668.0, 667.0]
    },
    "slices": {}
  }
}