{
  "AcquisitionMatrixPE": 80,
  "AcquisitionNumber": 1,
  "AcquisitionTime": "09:06:25.782500",
  "BandwidthPerPixelPhaseEncode": 48.077,
  "BaseResolution": 80,
  "BodyPartExamined": "BRAIN",
  "CoilCombinationMethod": "Sum of Squares",
  "ConsistencyInfo": "N4_VE11C_LATEST_20160120",
  "ConversionSoftware": "dcm2niix",
  "ConversionSoftwareVersion": "v1.0.20220720",
  "DerivedVendorReportedEchoSpacing": 0.000519999,
  "DeviceSerialNumber": "66112",
  "DwellTime": 2.7e-06,
  "EchoTime": 0.035,
  "EchoTrainLength": 39,
  "EffectiveEchoSpacing": 0.00026,
  "FlipAngle": 90,
  "HeudiconvVersion": "0.13.1",
  "ImageOrientationPatientDICOM": [0.973447, -0.228912, -0.000911247, 0.218305, 0.927126, 0.304598],
  "ImageOrientationText": "Tra>Cor(17.3)>Sag(3.9)",
  "ImageType": [
    "ORIGINAL",
    "PRIMARY",
    "M",
    "ND",
    "NORM",
    "MOSAIC"
],
  "ImagingFrequency": 123.253,
  "InPlanePhaseEncodingDirectionDICOM": "COL",
  "InstitutionAddress": "Maynard 3,Hanover,NH,US,03755",
  "InstitutionName": "Dartmouth College - PBS",
  "InstitutionalDepartmentName": "Department",
  "MRAcquisitionType": "2D",
  "MagneticFieldStrength": 3,
  "Manufacturer": "Siemens",
  "ManufacturersModelName": "Prisma",
  "MatrixCoilMode": "GRAPPA",
  "Modality": "MR",
  "NonlinearGradientCorrection": false,
  "ParallelReductionFactorInPlane": 2,
  "PartialFourier": 1,
  "PatientPosition": "HFS",
  "PercentPhaseFOV": 100,
  "PercentSampling": 100,
  "PhaseEncodingDirection": "j-",
  "PhaseEncodingSteps": 79,
  "PhaseResolution": 1,
  "PixelBandwidth": 2315,
  "ProcedureStepDescription": "dbic^QA",
  "ProtocolName": "func-bold_task-rest_acq-p2",
  "PulseSequenceDetails": "%SiemensSeq%\\ep2d_bold",
  "ReceiveCoilActiveElements": "HEA;HEP",
  "ReceiveCoilName": "Head_32",
  "ReconMatrixPE": 80,
  "RefLinesPE": 24,
  "RepetitionTime": 2,
  "SAR": 0.0477348,
  "ScanOptions": "FS",
  "ScanningSequence": "EP",
  "SequenceName": "*epfid2d1_80",
  "SequenceVariant": "SK",
  "SeriesDescription": "func-bold_task-rest_acq-p2",
  "SeriesNumber": 5,
  "ShimSetting": [4169, -7692, -7499, 267, -42, -147, -50, 71],
  "SliceThickness": 3.5,
  "SliceTiming": [0.99, 0, 1.055, 0.065, 1.12, 0.1325, 1.1875, 0.1975, 1.2525, 0.2625, 1.32, 0.33, 1.385, 0.395, 1.45, 0.4625, 1.5175, 0.5275, 1.5825, 0.5925, 1.65, 0.66, 1.715, 0.725, 1.78, 0.79, 1.8475, 0.8575, 1.9125, 0.9225],
  "SoftwareVersions": "syngo MR E11",
  "SpacingBetweenSlices": 3.99,
  "StationName": "AWP66112",
  "TaskName": "rest",
  "TotalReadoutTime": 0.02054,
  "TxRefAmp": 229.459,
  "dcmmeta_affine": [
    [-2.920339822769165, 0.6549143195152283, 0.27483704686164856, 81.98140716552734],
    [0.6867365837097168, 2.7813782691955566, 1.1838700771331787, -133.40040588378906],
    [-0.0027337397914379835, -0.9137954115867615, 3.8003969192504883, -20.80617332458496],
    [0.0, 0.0, 0.0, 1.0]
],
  "dcmmeta_reorient_transform": [
    [0.0, -1.0, 0.0, 79.0],
    [1.0, 0.0, 0.0, 0.0],
    [0.0, 0.0, 1.0, 0.0],
    [0.0, 0.0, 0.0, 1.0]
],
  "dcmmeta_shape": [80, 80, 30, 200],
  "dcmmeta_slice_dim": 2,
  "dcmmeta_version": 0.6,
  "global": {
    "const": {
      "AccessionNumber": "qa",
      "AcquisitionMatrix": [80, 0, 0, 80],
      "AngioFlag": "N",
      "BitsAllocated": 16,
      "BitsStored": 12,
      "BodyPartExamined": "BRAIN",
      "Columns": 480,
      "EchoNumbers": 1,
      "EchoTime": 35.0,
      "EchoTrainLength": 39,
      "FlipAngle": 90.0,
      "HighBit": 11,
      "ImageOrientationPatient": [0.97344664646135, -0.2289122017777, -0.0009112466328, 0.21830476467973, 0.92712609948053, 0.3045984658204],
      "ImagePositionPatient": [-848.77048200211, -505.25682107762, -275.20834090588],
      "ImageType": [
        "ORIGINAL",
        "PRIMARY",
        "M",
        "ND",
        "NORM",
        "MOSAIC"
],
      "ImagedNucleus": "1H",
      "ImagingFrequency": 123.252517,
      "InPlanePhaseEncodingDirection": "COL",
      "MRAcquisitionType": "2D",
      "MagneticFieldStrength": 3.0,
      "Manufacturer": "SIEMENS",
      "ManufacturerModelName": "Prisma",
      "Modality": "MR",
      "NumberOfAverages": 1.0,
      "NumberOfPhaseEncodingSteps": 79,
      "PercentPhaseFieldOfView": 100.0,
      "PercentSampling": 100.0,
      "PerformedProcedureStepStartTime": "090503.236000",
      "PhotometricInterpretation": "MONOCHROME2",
      "PixelBandwidth": 2315.0,
      "PixelRepresentation": 0,
      "PixelSpacing": [3.0, 3.0],
      "ProtocolName": "func-bold_task-rest_acq-p2",
      "RepetitionTime": 2000.0,
      "Rows": 480,
      "SAR": 0.04773476050688,
      "SamplesPerPixel": 1,
      "ScanOptions": "FS",
      "ScanningSequence": "EP",
      "SequenceName": "*epfid2d1_80",
      "SequenceVariant": "SK",
      "SeriesDescription": "func-bold_task-rest_acq-p2",
      "SeriesNumber": 5,
      "SeriesTime": "090709.287000",
      "SliceLocation": -53.75161114407,
      "SliceThickness": 3.5,
      "SmallestImagePixelValue": 0,
      "SoftwareVersions": "syngo MR E11",
      "SpacingBetweenSlices": 3.9900000175165,
      "SpecificCharacterSet": "ISO_IR 100",
      "StudyID": "35",
      "StudyTime": "090503.187000",
      "TransmitCoilName": "Body",
      "VariableFlipAngleFlag": "N",
      "WindowCenterWidthExplanation": "Algo1",
      "dBdt": 0.0},
    "slices": {}
  },
  "time": {
    "samples": {
      "AcquisitionNumber": [1, 2, 3, 4, 5, 6, 7, 8, 9, 10, 11, 12, 13, 14, 15, 16, 17, 18, 19, 20, 21, 22, 23, 24, 25, 26, 27, 28, 29, 30, 31, 32, 33, 34, 35, 36, 37, 38, 39, 40, 41, 42, 43, 44, 45, 46, 47, 48, 49, 50, 51, 52, 53, 54, 55, 56, 57, 58, 59, 60, 61, 62, 63, 64, 65, 66, 67, 68, 69, 70, 71, 72, 73, 74, 75, 76, 77, 78, 79, 80, 81, 82, 83, 84, 85, 86, 87, 88, 89, 90, 91, 92, 93, 94, 95, 96, 97, 98, 99, 100, 101, 102, 103, 104, 105, 106, 107, 108, 109, 110, 111, 112, 113, 114, 115, 116, 117, 118, 119, 120, 121, 122, 123, 124, 125, 126, 127, 128, 129, 130, 131, 132, 133, 134, 135, 136, 137, 138, 139, 140, 141, 142, 143, 144, 145, 146, 147, 148, 149, 150, 151, 152, 153, 154, 155, 156, 157, 158, 159, 160, 161, 162, 163, 164, 165, 166, 167, 168, 169, 170, 171, 172, 173, 174, 175, 176, 177, 178, 179, 180, 181, 182, 183, 184, 185, 186, 187, 188, 189, 190, 191, 192, 193, 194, 195, 196, 197, 198, 199, 200],
      "AcquisitionTime": ["090625.782500", "090627.782500", "090629.782500", "090631.782500", "090633.782500", "090635.782500", "090637.782500", "090639.782500", "090641.782500", "090643.782500", "090645.782500", "090647.782500", "090649.782500", "090651.782500", "090653.782500", "090655.782500", "090657.782500", "090659.782500", "090701.782500", "090703.782500", "090705.782500", "090707.782500", "090709.782500", "090711.782500", "090713.782500", "090715.782500", "090717.782500", "090719.782500", "090721.782500", "090723.782500", "090725.782500", "090727.782500", "090729.782500", "090731.782500", "090733.782500", "090735.782500", "090737.782500", "090739.782500", "090741.782500", "090743.782500", "090745.782500", "090747.782500", "090749.782500", "090751.782500", "090753.782500", "090755.782500", "090757.782500", "090759.782500", "090801.782500", "090803.782500", "090805.782500", "090807.782500", "090809.782500", "090811.782500", "090813.782500", "090815.782500", "090817.782500", "090819.782500", "090821.782500", "090823.782500", "090825.782500", "090827.782500", "090829.782500", "090831.782500", "090833.782500", "090835.782500", "090837.782500", "090839.782500", "090841.782500", "090843.782500", "090845.782500", "090847.782500", "090849.782500", "090851.782500", "090853.782500", "090855.782500", "090857.782500", "090859.782500", "090901.782500", "090903.782500", "090905.782500", "090907.782500", "090909.782500", "090911.782500", "090913.782500", "090915.782500", "090917.782500", "090919.782500", "090921.782500", "090923.782500", "090925.782500", "090927.782500", "090929.782500", "090931.782500", "090933.782500", "090935.782500", "090937.782500", "090939.782500", "090941.782500", "090943.782500", "090945.782500", "090947.782500", "090949.782500", "090951.782500", "090953.782500", "090955.782500", "090957.782500", "090959.782500", "091001.782500", "091003.782500", "091005.782500", "091007.782500", "091009.782500", "091011.782500", "091013.782500", "091015.782500", "091017.782500", "091019.782500", "091021.782500", "091023.782500", "091025.782500", "091027.782500", "091029.782500", "091031.782500", "091033.782500", "091035.782500", "091037.782500", "091039.782500", "091041.782500", "091043.782500", "091045.782500", "091047.782500", "091049.782500", "091051.782500", "091053.782500", "091055.782500", "091057.782500", "091059.782500", "091101.782500", "091103.782500", "091105.782500", "091107.782500", "091109.782500", "091111.782500", "091113.782500", "091115.782500", "091117.782500", "091119.782500", "091121.782500", "091123.782500", "091125.782500", "091127.782500", "091129.782500", "091131.782500", "091133.782500", "091135.782500", "091137.782500", "091139.782500", "091141.782500", "091143.782500", "091145.782500", "091147.782500", "091149.782500", "091151.782500", "091153.782500", "091155.782500", "091157.782500", "091159.782500", "091201.782500", "091203.782500", "091205.782500", "091207.782500", "091209.782500", "091211.782500", "091213.782500", "091215.782500", "091217.782500", "091219.782500", "091221.782500", "091223.782500", "091225.782500", "091227.782500", "091229.782500", "091231.782500", "091233.782500", "091235.782500", "091237.782500", "091239.782500", "091241.782500", "091243.782500", "091245.782500", "091247.782500", "091249.782500", "091251.782500", "091253.782500", "091255.782500", "091257.782500", "091259.782500", "091301.782500", "091303.782500"],
      "ContentTime": ["090709.290000", "090709.294000", "090709.296000", "090709.299000", "090709.301000", "090709.304000", "090709.307000", "090709.309000", "090709.312000", "090709.314000", "090709.317000", "090709.319000", "090709.322000", "090709.330000", "090709.333000", "090709.336000", "090709.338000", "090709.341000", "090709.343000", "090709.346000", "090709.349000", "090709.351000", "090749.284000", "090749.287000", "090749.290000", "090749.292000", "090749.295000", "090749.298000", "090749.300000", "090749.303000", "090749.305000", "090749.308000", "090749.310000", "090749.313000", "090749.316000", "090749.318000", "090749.321000", "090749.323000", "090749.326000", "090749.329000", "090749.331000", "090749.334000", "090809.285000", "090809.287000", "090809.290000", "090809.293000", "090809.295000", "090809.298000", "090809.300000", "090809.303000", "090809.305000", "090809.308000", "090849.285000", "090849.290000", "090849.293000", "090849.296000", "090849.299000", "090849.302000", "090849.304000", "090849.307000", "090849.309000", "090849.312000", "090849.315000", "090849.317000", "090849.320000", "090849.322000", "090849.325000", "090849.327000", "090849.330000", "090849.332000", "090849.342000", "090849.345000", "090929.285000", "090929.288000", "090929.291000", "090929.294000", "090929.296000", "090929.299000", "090929.301000", "090929.304000", "090929.307000", "090929.309000", "090929.312000", "090929.314000", "090929.317000", "090929.319000", "090929.322000", "090929.324000", "090929.327000", "090929.330000", "090929.332000", "090929.335000", "091009.284000", "091009.287000", "091009.290000", "091009.293000", "091009.295000", "091009.298000", "091009.300000", "091009.303000", "091009.306000", "091009.308000", "091009.311000", "091009.313000", "091009.316000", "091009.319000", "091009.321000", "091009.324000", "091009.326000", "091009.329000", "091009.331000", "091009.334000", "091049.285000", "091049.287000", "091049.290000", "091049.293000", "091049.295000", "091049.298000", "091049.300000", "091049.303000", "091049.305000", "091049.308000", "091049.311000", "091049.313000", "091049.316000", "091049.318000", "091049.321000", "091049.324000", "091049.326000", "091049.329000", "091049.331000", "091049.334000", "091129.286000", "091129.288000", "091129.291000", "091129.294000", "091129.296000", "091129.299000", "091129.302000", "091129.304000", "091129.307000", "091129.309000", "091129.312000", "091129.314000", "091129.317000", "091129.320000", "091129.322000", "091129.325000", "091129.327000", "091129.330000", "091129.333000", "091129.335000", "091209.285000", "091209.288000", "091209.291000", "091209.293000", "091209.296000", "091209.299000", "091209.301000", "091209.304000", "091209.307000", "091209.309000", "091209.312000", "091209.314000", "091209.317000", "091209.320000", "091209.322000", "091209.325000", "091209.327000", "091209.330000", "091209.333000", "091209.335000", "091249.285000", "091249.288000", "091249.290000", "091249.293000", "091249.295000", "091249.298000", "091249.300000", "091249.303000", "091249.306000", "091249.308000", "091249.311000", "091249.314000", "091249.316000", "091249.319000", "091249.321000", "091249.324000", "091249.327000", "091249.329000", "091249.332000", "091249.334000", "091305.125000", "091305.128000", "091305.131000", "091305.133000", "091305.136000", "091305.139000", "091305.141000", "091305.144000"],
      "InstanceCreationTime": ["090709.290000", "090709.294000", "090709.296000", "090709.299000", "090709.301000", "090709.304000", "090709.307000", "090709.309000", "090709.312000", "090709.314000", "090709.317000", "090709.319000", "090709.322000", "090709.330000", "090709.333000", "090709.336000", "090709.338000", "090709.341000", "090709.343000", "090709.346000", "090709.349000", "090709.351000", "090749.284000", "090749.287000", "090749.290000", "090749.292000", "090749.295000", "090749.298000", "090749.300000", "090749.303000", "090749.305000", "090749.308000", "090749.310000", "090749.313000", "090749.316000", "090749.318000", "090749.321000", "090749.323000", "090749.326000", "090749.329000", "090749.331000", "090749.334000", "090809.285000", "090809.287000", "090809.290000", "090809.293000", "090809.295000", "090809.298000", "090809.300000", "090809.303000", "090809.305000", "090809.308000", "090849.285000", "090849.290000", "090849.293000", "090849.296000", "090849.299000", "090849.302000", "090849.304000", "090849.307000", "090849.309000", "090849.312000", "090849.315000", "090849.317000", "090849.320000", "090849.322000", "090849.325000", "090849.327000", "090849.330000", "090849.332000", "090849.342000", "090849.345000", "090929.285000", "090929.288000", "090929.291000", "090929.294000", "090929.296000", "090929.299000", "090929.301000", "090929.304000", "090929.307000", "090929.309000", "090929.312000", "090929.314000", "090929.317000", "090929.319000", "090929.322000", "090929.324000", "090929.327000", "090929.330000", "090929.332000", "090929.335000", "091009.284000", "091009.287000", "091009.290000", "091009.293000", "091009.295000", "091009.298000", "091009.300000", "091009.303000", "091009.306000", "091009.308000", "091009.311000", "091009.313000", "091009.316000", "091009.319000", "091009.321000", "091009.324000", "091009.326000", "091009.329000", "091009.331000", "091009.334000", "091049.285000", "091049.287000", "091049.290000", "091049.293000", "091049.295000", "091049.298000", "091049.300000", "091049.303000", "091049.305000", "091049.308000", "091049.311000", "091049.313000", "091049.316000", "091049.318000", "091049.321000", "091049.324000", "091049.326000", "091049.329000", "091049.331000", "091049.334000", "091129.286000", "091129.288000", "091129.291000", "091129.294000", "091129.296000", "091129.299000", "091129.302000", "091129.304000", "091129.307000", "091129.309000", "091129.312000", "091129.314000", "091129.317000", "091129.320000", "091129.322000", "091129.325000", "091129.327000", "091129.330000", "091129.333000", "091129.335000", "091209.285000", "091209.288000", "091209.291000", "091209.293000", "091209.296000", "091209.299000", "091209.301000", "091209.304000", "091209.307000", "091209.309000", "091209.312000", "091209.314000", "091209.317000", "091209.320000", "091209.322000", "091209.325000", "091209.327000", "091209.330000", "091209.333000", "091209.335000", "091249.285000", "091249.288000", "091249.290000", "091249.293000", "091249.295000", "091249.298000", "091249.300000", "091249.303000", "091249.306000", "091249.308000", "091249.311000", "091249.314000", "091249.316000", "091249.319000", "091249.321000", "091249.324000", "091249.327000", "091249.329000", "091249.332000", "091249.334000", "091305.125000", "091305.128000", "091305.131000", "091305.133000", "091305.136000", "091305.139000", "091305.141000", "091305.144000"],
      "InstanceNumber": [1, 2, 3, 4, 5, 6, 7, 8, 9, 10, 11, 12, 13, 14, 15, 16, 17, 18, 19, 20, 21, 22, 23, 24, 25, 26, 27, 28, 29, 30, 31, 32, 33, 34, 35, 36, 37, 38, 39, 40, 41, 42, 43, 44, 45, 46, 47, 48, 49, 50, 51, 52, 53, 54, 55, 56, 57, 58, 59, 60, 61, 62, 63, 64, 65, 66, 67, 68, 69, 70, 71, 72, 73, 74, 75, 76, 77, 78, 79, 80, 81, 82, 83, 84, 85, 86, 87, 88, 89, 90, 91, 92, 93, 94, 95, 96, 97, 98, 99, 100, 101, 102, 103, 104, 105, 106, 107, 108, 109, 110, 111, 112, 113, 114, 115, 116, 117, 118, 119, 120, 121, 122, 123, 124, 125, 126, 127, 128, 129, 130, 131, 132, 133, 134, 135, 136, 137, 138, 139, 140, 141, 142, 143, 144, 145, 146, 147, 148, 149, 150, 151, 152, 153, 154, 155, 156, 157, 158, 159, 160, 161, 162, 163, 164, 165, 166, 167, 168, 169, 170, 171, 172, 173, 174, 175, 176, 177, 178, 179, 180, 181, 182, 183, 184, 185, 186, 187, 188, 189, 190, 191, 192, 193, 194, 195, 196, 197, 198, 199, 200],
      "LargestImagePixelValue": [2350, 2359, 2350, 2357, 2359, 2354, 2353, 2359, 2357, 2343, 2357, 2349, 2348, 2363, 2360, 2346, 2357, 2354, 2353, 2348, 2358, 2352, 2353, 2348, 2350, 2351, 2352, 2350, 2346, 2349, 2350, 2349, 2347, 2351, 2354, 2356, 2349, 2350, 2349, 2341, 2358, 2353, 2357, 2348, 2339, 2342, 2350, 2347, 2348, 2351, 2353, 2355, 2348, 2348, 2345, 2348, 2347, 2347, 2338, 2350, 2343, 2341, 2355, 2345, 2344, 2348, 2350, 2340, 2354, 2349, 2354, 2350, 2340, 2350, 2347, 2345, 2351, 2350, 2356, 2349, 2347, 2347, 2353, 2350, 2348, 2348, 2349, 2344, 2348, 2343, 2347, 2345, 2350, 2347, 2348, 2339, 2354, 2345, 2343, 2348, 2351, 2358, 2346, 2354, 2346, 2360, 2347, 2350, 2342, 2351, 2354, 2350, 2351, 2350, 2349, 2348, 2358, 2346, 2351, 2353, 2351, 2356, 2350, 2353, 2345, 2350, 2348, 2349, 2344, 2335, 2355, 2339, 2362, 2348, 2345, 2342, 2364, 2358, 2342, 2356, 2345, 2347, 2348, 2344, 2341, 2349, 2351, 2342, 2340, 2351, 2345, 2354, 2350, 2345, 2354, 2352, 2343, 2350, 2344, 2349, 2348, 2351, 2337, 2344, 2347, 2343, 2339, 2352, 2351, 2353, 2346, 2348, 2341, 2342, 2341, 2335, 2329, 2318, 2341, 2329, 2324, 2315, 2318, 2317, 2333, 2314, 2319, 2298, 2313, 2290, 2297, 2286, 2318, 2317, 2294, 2292, 2273, 2288, 2277, 2290],
      "WindowCenter": [1008.0, 1008.0, 1008.0, 1008.0, 1009.0, 1008.0, 1008.0, 1008.0, 1008.0, 1008.0, 1008.0, 1008.0, 1008.0, 1008.0, 1008.0, 1008.0, 1008.0, 1008.0, 1009.0, 1008.0, 1008.0, 1008.0, 1008.0, 1008.0, 1008.0, 1008.0, 1008.0, 1008.0, 1008.0, 1008.0, 1008.0, 1008.0, 1008.0, 1008.0, 1008.0, 1008.0, 1008.0, 1008.0, 1008.0, 1008.0, 1008.0, 1008.0, 1008.0, 1008.0, 1008.0, 1008.0, 1008.0, 1008.0, 1008.0, 1008.0, 1008.0, 1008.0, 1008.0, 1008.0, 1008.0, 1008.0, 1008.0, 1008.0, 1008.0, 1008.0, 1008.0, 1008.0, 1008.0, 1008.0, 1008.0, 1008.0, 1008.0, 1008.0, 1008.0, 1008.0, 1008.0, 1007.0, 1008.0, 1007.0, 1007.0, 1007.0, 1007.0, 1007.0, 1007.0, 1007.0, 1007.0, 1007.0, 1007.0, 1007.0, 1007.0, 1007.0, 1007.0, 1007.0, 1007.0, 1007.0, 1007.0, 1007.0, 1007.0, 1007.0, 1007.0, 1007.0, 1007.0, 1007.0, 1007.0, 1007.0, 1007.0, 1007.0, 1007.0, 1007.0, 1007.0, 1007.0, 1007.0, 1007.0, 1007.0, 1007.0, 1007.0, 1007.0, 1007.0, 1007.0, 1007.0, 1007.0, 1007.0, 1007.0, 1007.0, 1007.0, 1007.0, 1007.0, 1007.0, 1007.0, 1008.0, 1007.0, 1007.0, 1007.0, 1007.0, 1007.0, 1007.0, 1007.0, 1007.0, 1007.0, 1007.0, 1007.0, 1007.0, 1008.0, 1007.0, 1007.0, 1007.0, 1007.0, 1007.0, 1007.0, 1007.0, 1007.0, 1007.0, 1007.0, 1007.0, 1007.0, 1007.0, 1007.0, 1007.0, 1007.0, 1007.0, 1007.0, 1008.0, 1007.0, 1007.0, 1007.0, 1007.0, 1007.0, 1007.0, 1007.0, 1007.0, 1007.0, 1007.0, 1007.0, 1007.0, 1007.0, 1007.0, 1007.0, 1007.0, 1007.0, 1007.0, 1007.0, 1006.0, 1006.0, 1006.0, 1006.0, 1006.0, 1007.0, 1006.0, 1006.0, 1007.0, 1006.0, 1006.0, 1006.0, 1006.0, 1006.0, 1006.0, 1007.0, 1006.0, 1006.0, 1006.0, 1006.0, 1006.0, 1006.0, 1006.0, 1006.0],
      "WindowWidth": [2221.0, 2221.0, 2221.0, 2221.0, 2221.0, 2221.0, 2221.0, 2221.0, 2221.0, 2221.0, 2221.0, 2221.0, 2221.0, 2222.0, 2221.0, 2221.0, 2221.0, 2221.0, 2222.0, 2221.0, 2221.0, 2221.0, 2221.0, 2221.0, 2221.0, 2221.0, 2221.0, 2221.0, 2221.0, 2221.0, 2221.0, 2221.0, 2221.0, 2221.0, 2221.0, 2221.0, 2221.0, 2221.0, 2221.0, 2221.0, 2221.0, 2221.0, 2221.0, 2221.0, 2221.0, 2221.0, 2221.0, 2221.0, 2221.0, 2221.0, 2221.0, 2221.0, 2221.0, 2221.0, 2221.0, 2221.0, 2221.0, 2221.0, 2220.0, 2221.0, 2221.0, 2221.0, 2221.0, 2221.0, 2221.0, 2221.0, 2221.0, 2220.0, 2221.0, 2220.0, 2221.0, 2220.0, 2220.0, 2220.0, 2221.0, 2220.0, 2220.0, 2220.0, 2220.0, 2220.0, 2220.0, 2220.0, 2220.0, 2220.0, 2220.0, 2220.0, 2220.0, 2220.0, 2220.0, 2220.0, 2220.0, 2220.0, 2220.0, 2220.0, 2220.0, 2220.0, 2220.0, 2220.0, 2220.0, 2220.0, 2220.0, 2220.0, 2220.0, 2220.0, 2220.0, 2220.0, 2220.0, 2220.0, 2220.0, 2220.0, 2219.0, 2220.0, 2220.0, 2220.0, 2219.0, 2219.0, 2219.0, 2219.0, 2219.0, 2219.0, 2219.0, 2219.0, 2219.0, 2219.0, 2220.0, 2219.0, 2219.0, 2219.0, 2219.0, 2219.0, 2219.0, 2219.0, 2219.0, 2219.0, 2219.0, 2219.0, 2219.0, 2219.0, 2219.0, 2219.0, 2219.0, 2219.0, 2219.0, 2218.0, 2218.0, 2218.0, 2218.0, 2218.0, 2218.0, 2218.0, 2218.0, 2218.0, 2218.0, 2218.0, 2218.0, 2218.0, 2218.0, 2218.0, 2218.0, 2218.0, 2218.0, 2218.0, 2218.0, 2218.0, 2218.0, 2218.0, 2218.0, 2218.0, 2218.0, 2218.0, 2218.0, 2218.0, 2218.0, 2218.0, 2218.0, 2218.0, 2217.0, 2217.0, 2217.0, 2217.0, 2217.0, 2217.0, 2217.0, 2217.0, 2218.0, 2217.0, 2217.0, 2217.0, 2217.0, 2217.0, 2217.0, 2217.0, 2217.0, 2217.0, 2217.0, 2217.0, 2217.0, 2217.0, 2217.0, 2217.0]
    },
    "slices": {}
  }
}