{
  "AcquisitionMatrixPE": 80,
  "AcquisitionNumber": 1,
  "AcquisitionTime": "09:08:28.735000",
  "BandwidthPerPixelPhaseEncode": 48.077,
  "BaseResolution": 80,
  "BodyPartExamined": "BRAIN",
  "CoilCombinationMethod": "Sum of Squares",
  "ConsistencyInfo": "N4_VE11E_LATEST_20181129",
  "ConversionSoftware": "dcm2niix",
  "ConversionSoftwareVersion": "v1.0.20220720",
  "DerivedVendorReportedEchoSpacing": 0.000519999,
  "DeviceSerialNumber": "66112",
  "DwellTime": 2.7e-06,
  "EchoTime": 0.035,
  "EchoTrainLength": 39,
  "EffectiveEchoSpacing": 0.00026,
  "FlipAngle": 90,
  "HeudiconvVersion": "0.13.1",
  "ImageOrientationPatientDICOM": [0.992841, 0.119442, -0.000302734, -0.113471, 0.943997, 0.309828],
  "ImageOrientationText": "Tra>Cor(17.9)>Sag(-2.1)",
  "ImageType": [
    "ORIGINAL",
    "PRIMARY",
    "M",
    "ND",
    "NORM",
    "MOSAIC"
],
  "ImagingFrequency": 123.259,
  "InPlanePhaseEncodingDirectionDICOM": "COL",
  "InstitutionAddress": "Maynard 3,Hanover,NH,US,03755",
  "InstitutionName": "Dartmouth College - PBS",
  "InstitutionalDepartmentName": "Department",
  "MRAcquisitionType": "2D",
  "MagneticFieldStrength": 3,
  "Manufacturer": "Siemens",
  "ManufacturersModelName": "Prisma",
  "MatrixCoilMode": "GRAPPA",
  "Modality": "MR",
  "NonlinearGradientCorrection": false,
  "ParallelReductionFactorInPlane": 2,
  "PartialFourier": 1,
  "PatientPosition": "HFS",
  "PercentPhaseFOV": 100,
  "PercentSampling": 100,
  "PhaseEncodingDirection": "j-",
  "PhaseEncodingSteps": 79,
  "PhaseResolution": 1,
  "PixelBandwidth": 2315,
  "ProcedureStepDescription": "dbic^QA",
  "ProtocolName": "func-bold_task-rest_acq-p2",
  "PulseSequenceDetails": "%SiemensSeq%\\ep2d_bold",
  "ReceiveCoilActiveElements": "HC1-7;NC1,2",
  "ReceiveCoilName": "HeadNeck_64",
  "ReconMatrixPE": 80,
  "RefLinesPE": 24,
  "RepetitionTime": 2,
  "SAR": 0.0361317,
  "ScanOptions": "FS",
  "ScanningSequence": "EP",
  "SequenceName": "*epfid2d1_80",
  "SequenceVariant": "SK",
  "SeriesDescription": "func-bold_task-rest_acq-p2",
  "SeriesNumber": 5,
  "ShimSetting": [4219, -7739, -7483, -96, -158, -305, -82, 94],
  "SliceThickness": 3.5,
  "SliceTiming": [0.99, 0, 1.055, 0.065, 1.12, 0.1325, 1.1875, 0.1975, 1.2525, 0.2625, 1.32, 0.33, 1.385, 0.395, 1.45, 0.4625, 1.5175, 0.5275, 1.5825, 0.5925, 1.65, 0.66, 1.715, 0.725, 1.78, 0.7925, 1.8475, 0.8575, 1.9125, 0.9225],
  "SoftwareVersions": "syngo MR E11",
  "SpacingBetweenSlices": 3.99,
  "StationName": "AWP66112",
  "TaskName": "rest",
  "TotalReadoutTime": 0.02054,
  "TxRefAmp": 214.401,
  "dcmmeta_affine": [
    [-2.9785234928131104, -0.34041306376457214, -0.14879560470581055, 136.75108337402344],
    [-0.35832464694976807, 2.8319919109344482, 1.2272274494171143, -112.10794067382812],
    [-0.0009082011529244483, -0.9294844269752502, 3.7936623096466064, -15.495784759521484],
    [0.0, 0.0, 0.0, 1.0]
],
  "dcmmeta_reorient_transform": [
    [0.0, -1.0, 0.0, 79.0],
    [1.0, 0.0, 0.0, 0.0],
    [0.0, 0.0, 1.0, 0.0],
    [0.0, 0.0, 0.0, 1.0]
],
  "dcmmeta_shape": [80, 80, 30, 200],
  "dcmmeta_slice_dim": 2,
  "dcmmeta_version": 0.6,
  "global": {
    "const": {
      "AccessionNumber": "qa64",
      "AcquisitionMatrix": [80, 0, 0, 80],
      "AngioFlag": "N",
      "BitsAllocated": 16,
      "BitsStored": 12,
      "BodyPartExamined": "BRAIN",
      "Columns": 480,
      "EchoNumbers": 1,
      "EchoTime": 35.0,
      "EchoTrainLength": 39,
      "FlipAngle": 90.0,
      "HighBit": 11,
      "ImageOrientationPatient": [0.99284118832248, 0.11944154688675, -0.0003027337253, -0.1134710167504, 0.94399727294951, 0.30982814110652],
      "ImagePositionPatient": [-637.48054796123, -749.68270706464, -274.64029862454],
      "ImageType": [
        "ORIGINAL",
        "PRIMARY",
        "M",
        "ND",
        "NORM",
        "MOSAIC"
],
      "ImagedNucleus": "1H",
      "ImagingFrequency": 123.259269,
      "InPlanePhaseEncodingDirection": "COL",
      "LargestImagePixelValue": 4095,
      "MRAcquisitionType": "2D",
      "MagneticFieldStrength": 3.0,
      "Manufacturer": "SIEMENS",
      "ManufacturerModelName": "Prisma",
      "Modality": "MR",
      "NumberOfAverages": 1.0,
      "NumberOfPhaseEncodingSteps": 79,
      "PercentPhaseFieldOfView": 100.0,
      "PercentSampling": 100.0,
      "PerformedProcedureStepStartTime": "090659.901000",
      "PhotometricInterpretation": "MONOCHROME2",
      "PixelBandwidth": 2315.0,
      "PixelRepresentation": 0,
      "PixelSpacing": [3.0, 3.0],
      "ProtocolName": "func-bold_task-rest_acq-p2",
      "RepetitionTime": 2000.0,
      "Rows": 480,
      "SAR": 0.03613166692028,
      "SamplesPerPixel": 1,
      "ScanOptions": "FS",
      "ScanningSequence": "EP",
      "SequenceName": "*epfid2d1_80",
      "SequenceVariant": "SK",
      "SeriesDescription": "func-bold_task-rest_acq-p2",
      "SeriesNumber": 5,
      "SeriesTime": "090926.869000",
      "SliceLocation": -54.31470313659,
      "SliceThickness": 3.5,
      "SmallestImagePixelValue": 0,
      "SoftwareVersions": "syngo MR E11",
      "SpacingBetweenSlices": 3.9900000505959,
      "SpecificCharacterSet": "ISO_IR 100",
      "StudyID": "5",
      "StudyTime": "090659.804000",
      "TransmitCoilName": "Body",
      "VariableFlipAngleFlag": "N",
      "WindowCenterWidthExplanation": "Algo1"
    },
    "slices": {}
  },
  "time": {
    "samples": {
      "AcquisitionNumber": [1, 2, 3, 4, 5, 6, 7, 8, 9, 10, 11, 12, 13, 14, 15, 16, 17, 18, 19, 20, 21, 22, 23, 24, 25, 26, 27, 28, 29, 30, 31, 32, 33, 34, 35, 36, 37, 38, 39, 40, 41, 42, 43, 44, 45, 46, 47, 48, 49, 50, 51, 52, 53, 54, 55, 56, 57, 58, 59, 60, 61, 62, 63, 64, 65, 66, 67, 68, 69, 70, 71, 72, 73, 74, 75, 76, 77, 78, 79, 80, 81, 82, 83, 84, 85, 86, 87, 88, 89, 90, 91, 92, 93, 94, 95, 96, 97, 98, 99, 100, 101, 102, 103, 104, 105, 106, 107, 108, 109, 110, 111, 112, 113, 114, 115, 116, 117, 118, 119, 120, 121, 122, 123, 124, 125, 126, 127, 128, 129, 130, 131, 132, 133, 134, 135, 136, 137, 138, 139, 140, 141, 142, 143, 144, 145, 146, 147, 148, 149, 150, 151, 152, 153, 154, 155, 156, 157, 158, 159, 160, 161, 162, 163, 164, 165, 166, 167, 168, 169, 170, 171, 172, 173, 174, 175, 176, 177, 178, 179, 180, 181, 182, 183, 184, 185, 186, 187, 188, 189, 190, 191, 192, 193, 194, 195, 196, 197, 198, 199, 200],
      "AcquisitionTime": ["090828.735000", "090830.735000", "090832.735000", "090834.735000", "090836.735000", "090838.735000", "090840.735000", "090842.735000", "090844.735000", "090846.735000", "090848.735000", "090850.735000", "090852.735000", "090854.735000", "090856.735000", "090858.735000", "090900.735000", "090902.735000", "090904.735000", "090906.735000", "090908.735000", "090910.735000", "090912.735000", "090914.735000", "090916.735000", "090918.735000", "090920.735000", "090922.735000", "090924.735000", "090926.735000", "090928.735000", "090930.735000", "090932.735000", "090934.735000", "090936.735000", "090938.735000", "090940.735000", "090942.735000", "090944.735000", "090946.735000", "090948.735000", "090950.735000", "090952.735000", "090954.735000", "090956.735000", "090958.735000", "091000.735000", "091002.735000", "091004.735000", "091006.735000", "091008.735000", "091010.735000", "091012.735000", "091014.735000", "091016.735000", "091018.735000", "091020.735000", "091022.735000", "091024.735000", "091026.735000", "091028.735000", "091030.735000", "091032.735000", "091034.735000", "091036.735000", "091038.735000", "091040.735000", "091042.735000", "091044.735000", "091046.735000", "091048.735000", "091050.735000", "091052.735000", "091054.735000", "091056.735000", "091058.735000", "091100.735000", "091102.735000", "091104.735000", "091106.735000", "091108.735000", "091110.735000", "091112.735000", "091114.735000", "091116.735000", "091118.735000", "091120.735000", "091122.735000", "091124.735000", "091126.735000", "091128.735000", "091130.735000", "091132.735000", "091134.735000", "091136.735000", "091138.735000", "091140.735000", "091142.735000", "091144.735000", "091146.735000", "091148.735000", "091150.735000", "091152.735000", "091154.735000", "091156.735000", "091158.735000", "091200.735000", "091202.735000", "091204.735000", "091206.735000", "091208.735000", "091210.735000", "091212.735000", "091214.735000", "091216.735000", "091218.735000", "091220.735000", "091222.735000", "091224.735000", "091226.735000", "091228.735000", "091230.735000", "091232.735000", "091234.735000", "091236.735000", "091238.735000", "091240.735000", "091242.735000", "091244.735000", "091246.735000", "091248.735000", "091250.735000", "091252.735000", "091254.735000", "091256.735000", "091258.735000", "091300.735000", "091302.735000", "091304.735000", "091306.735000", "091308.735000", "091310.735000", "091312.735000", "091314.735000", "091316.735000", "091318.735000", "091320.735000", "091322.735000", "091324.735000", "091326.735000", "091328.735000", "091330.735000", "091332.735000", "091334.735000", "091336.735000", "091338.735000", "091340.735000", "091342.735000", "091344.735000", "091346.735000", "091348.735000", "091350.735000", "091352.735000", "091354.735000", "091356.735000", "091358.735000", "091400.735000", "091402.735000", "091404.735000", "091406.735000", "091408.735000", "091410.735000", "091412.735000", "091414.735000", "091416.735000", "091418.735000", "091420.735000", "091422.735000", "091424.735000", "091426.735000", "091428.735000", "091430.735000", "091432.735000", "091434.735000", "091436.735000", "091438.735000", "091440.735000", "091442.735000", "091444.735000", "091446.735000", "091448.735000", "091450.735000", "091452.735000", "091454.735000", "091456.735000", "091458.735000", "091500.735000", "091502.735000", "091504.735000", "091506.735000"],
      "ContentTime": ["090926.873000", "090926.876000", "090926.879000", "090926.881000", "090926.884000", "090926.886000", "090926.888000", "090926.891000", "090926.893000", "090926.895000", "090926.898000", "090926.900000", "090926.906000", "090926.909000", "090926.911000", "090926.914000", "090926.916000", "090926.918000", "090926.921000", "090926.923000", "090926.925000", "090926.928000", "090926.930000", "090926.933000", "090926.935000", "090926.937000", "090926.939000", "090926.942000", "090926.944000", "091006.868000", "091006.871000", "091006.873000", "091006.876000", "091006.878000", "091006.880000", "091006.883000", "091006.885000", "091006.887000", "091006.890000", "091006.892000", "091006.894000", "091006.897000", "091006.899000", "091006.901000", "091006.904000", "091006.906000", "091006.908000", "091006.911000", "091006.913000", "091046.868000", "091046.871000", "091046.873000", "091046.876000", "091046.878000", "091046.881000", "091046.883000", "091046.885000", "091046.888000", "091046.890000", "091046.892000", "091046.895000", "091046.897000", "091046.900000", "091046.902000", "091046.904000", "091046.907000", "091046.909000", "091046.912000", "091046.914000", "091126.868000", "091126.871000", "091126.873000", "091126.876000", "091126.878000", "091126.881000", "091126.883000", "091126.885000", "091126.888000", "091126.890000", "091126.892000", "091126.895000", "091126.897000", "091126.899000", "091126.902000", "091126.904000", "091126.907000", "091126.909000", "091126.911000", "091126.914000", "091206.867000", "091206.870000", "091206.872000", "091206.875000", "091206.877000", "091206.879000", "091206.882000", "091206.884000", "091206.887000", "091206.889000", "091206.891000", "091206.894000", "091206.896000", "091206.902000", "091206.904000", "091206.907000", "091206.909000", "091206.911000", "091206.914000", "091206.916000", "091246.868000", "091246.871000", "091246.873000", "091246.876000", "091246.878000", "091246.881000", "091246.883000", "091246.885000", "091246.888000", "091246.890000", "091246.892000", "091246.895000", "091246.897000", "091246.899000", "091246.902000", "091246.904000", "091246.907000", "091246.909000", "091246.911000", "091246.914000", "091326.868000", "091326.871000", "091326.873000", "091326.876000", "091326.878000", "091326.880000", "091326.883000", "091326.885000", "091326.888000", "091326.890000", "091326.892000", "091326.895000", "091326.897000", "091326.900000", "091326.902000", "091326.904000", "091326.907000", "091326.909000", "091326.912000", "091326.914000", "091406.867000", "091406.870000", "091406.873000", "091406.875000", "091406.878000", "091406.880000", "091406.883000", "091406.885000", "091406.888000", "091406.890000", "091406.893000", "091406.895000", "091406.898000", "091406.900000", "091406.902000", "091406.905000", "091406.908000", "091406.911000", "091406.913000", "091406.916000", "091446.868000", "091446.871000", "091446.873000", "091446.876000", "091446.878000", "091446.880000", "091446.883000", "091446.885000", "091446.887000", "091446.890000", "091446.892000", "091446.895000", "091446.897000", "091446.899000", "091446.902000", "091446.904000", "091446.906000", "091446.909000", "091446.911000", "091446.913000", "091508.403000", "091508.408000", "091508.410000", "091508.417000", "091508.420000", "091508.424000", "091508.427000", "091508.433000", "091508.436000", "091508.439000", "091508.441000"],
      "InstanceCreationTime": ["090926.873000", "090926.876000", "090926.879000", "090926.881000", "090926.884000", "090926.886000", "090926.888000", "090926.891000", "090926.893000", "090926.895000", "090926.898000", "090926.900000", "090926.906000", "090926.909000", "090926.911000", "090926.914000", "090926.916000", "090926.918000", "090926.921000", "090926.923000", "090926.925000", "090926.928000", "090926.930000", "090926.933000", "090926.935000", "090926.937000", "090926.939000", "090926.942000", "090926.944000", "091006.868000", "091006.871000", "091006.873000", "091006.876000", "091006.878000", "091006.880000", "091006.883000", "091006.885000", "091006.887000", "091006.890000", "091006.892000", "091006.894000", "091006.897000", "091006.899000", "091006.901000", "091006.904000", "091006.906000", "091006.908000", "091006.911000", "091006.913000", "091046.868000", "091046.871000", "091046.873000", "091046.876000", "091046.878000", "091046.881000", "091046.883000", "091046.885000", "091046.888000", "091046.890000", "091046.892000", "091046.895000", "091046.897000", "091046.900000", "091046.902000", "091046.904000", "091046.907000", "091046.909000", "091046.912000", "091046.914000", "091126.868000", "091126.871000", "091126.873000", "091126.876000", "091126.878000", "091126.881000", "091126.883000", "091126.885000", "091126.888000", "091126.890000", "091126.892000", "091126.895000", "091126.897000", "091126.899000", "091126.902000", "091126.904000", "091126.907000", "091126.909000", "091126.911000", "091126.914000", "091206.867000", "091206.870000", "091206.872000", "091206.875000", "091206.877000", "091206.879000", "091206.882000", "091206.884000", "091206.887000", "091206.889000", "091206.891000", "091206.894000", "091206.896000", "091206.902000", "091206.904000", "091206.907000", "091206.909000", "091206.911000", "091206.914000", "091206.916000", "091246.868000", "091246.871000", "091246.873000", "091246.876000", "091246.878000", "091246.881000", "091246.883000", "091246.885000", "091246.888000", "091246.890000", "091246.892000", "091246.895000", "091246.897000", "091246.899000", "091246.902000", "091246.904000", "091246.907000", "091246.909000", "091246.911000", "091246.914000", "091326.868000", "091326.871000", "091326.873000", "091326.876000", "091326.878000", "091326.880000", "091326.883000", "091326.885000", "091326.888000", "091326.890000", "091326.892000", "091326.895000", "091326.897000", "091326.900000", "091326.902000", "091326.904000", "091326.907000", "091326.909000", "091326.912000", "091326.914000", "091406.867000", "091406.870000", "091406.873000", "091406.875000", "091406.878000", "091406.880000", "091406.883000", "091406.885000", "091406.888000", "091406.890000", "091406.893000", "091406.895000", "091406.898000", "091406.900000", "091406.902000", "091406.905000", "091406.908000", "091406.911000", "091406.913000", "091406.916000", "091446.868000", "091446.871000", "091446.873000", "091446.876000", "091446.878000", "091446.880000", "091446.883000", "091446.885000", "091446.887000", "091446.890000", "091446.892000", "091446.895000", "091446.897000", "091446.899000", "091446.902000", "091446.904000", "091446.906000", "091446.909000", "091446.911000", "091446.913000", "091508.403000", "091508.408000", "091508.410000", "091508.417000", "091508.420000", "091508.424000", "091508.427000", "091508.433000", "091508.436000", "091508.439000", "091508.441000"],
      "InstanceNumber": [1, 2, 3, 4, 5, 6, 7, 8, 9, 10, 11, 12, 13, 14, 15, 16, 17, 18, 19, 20, 21, 22, 23, 24, 25, 26, 27, 28, 29, 30, 31, 32, 33, 34, 35, 36, 37, 38, 39, 40, 41, 42, 43, 44, 45, 46, 47, 48, 49, 50, 51, 52, 53, 54, 55, 56, 57, 58, 59, 60, 61, 62, 63, 64, 65, 66, 67, 68, 69, 70, 71, 72, 73, 74, 75, 76, 77, 78, 79, 80, 81, 82, 83, 84, 85, 86, 87, 88, 89, 90, 91, 92, 93, 94, 95, 96, 97, 98, 99, 100, 101, 102, 103, 104, 105, 106, 107, 108, 109, 110, 111, 112, 113, 114, 115, 116, 117, 118, 119, 120, 121, 122, 123, 124, 125, 126, 127, 128, 129, 130, 131, 132, 133, 134, 135, 136, 137, 138, 139, 140, 141, 142, 143, 144, 145, 146, 147, 148, 149, 150, 151, 152, 153, 154, 155, 156, 157, 158, 159, 160, 161, 162, 163, 164, 165, 166, 167, 168, 169, 170, 171, 172, 173, 174, 175, 176, 177, 178, 179, 180, 181, 182, 183, 184, 185, 186, 187, 188, 189, 190, 191, 192, 193, 194, 195, 196, 197, 198, 199, 200],
      "WindowCenter": [1525.0, 1524.0, 1523.0, 1524.0, 1523.0, 1523.0, 1523.0, 1523.0, 1523.0, 1522.0, 1522.0, 1522.0, 1523.0, 1522.0, 1522.0, 1522.0, 1522.0, 1522.0, 1522.0, 1522.0, 1521.0, 1521.0, 1521.0, 1521.0, 1520.0, 1520.0, 1520.0, 1520.0, 1521.0, 1521.0, 1520.0, 1520.0, 1519.0, 1520.0, 1520.0, 1520.0, 1519.0, 1519.0, 1519.0, 1519.0, 1519.0, 1519.0, 1519.0, 1520.0, 1519.0, 1519.0, 1518.0, 1519.0, 1518.0, 1519.0, 1519.0, 1518.0, 1518.0, 1518.0, 1519.0, 1517.0, 1518.0, 1519.0, 1519.0, 1518.0, 1518.0, 1518.0, 1517.0, 1518.0, 1517.0, 1518.0, 1518.0, 1518.0, 1518.0, 1518.0, 1517.0, 1518.0, 1517.0, 1517.0, 1517.0, 1518.0, 1517.0, 1518.0, 1518.0, 1517.0, 1517.0, 1517.0, 1517.0, 1517.0, 1517.0, 1517.0, 1517.0, 1517.0, 1517.0, 1517.0, 1516.0, 1517.0, 1516.0, 1516.0, 1516.0, 1516.0, 1516.0, 1517.0, 1517.0, 1517.0, 1517.0, 1516.0, 1516.0, 1516.0, 1516.0, 1516.0, 1516.0, 1516.0, 1516.0, 1516.0, 1517.0, 1516.0, 1516.0, 1517.0, 1515.0, 1516.0, 1516.0, 1516.0, 1516.0, 1516.0, 1517.0, 1516.0, 1516.0, 1516.0, 1516.0, 1516.0, 1516.0, 1515.0, 1516.0, 1516.0, 1516.0, 1515.0, 1515.0, 1515.0, 1515.0, 1515.0, 1515.0, 1516.0, 1515.0, 1515.0, 1515.0, 1516.0, 1516.0, 1515.0, 1515.0, 1514.0, 1514.0, 1515.0, 1514.0, 1514.0, 1514.0, 1514.0, 1514.0, 1515.0, 1514.0, 1514.0, 1514.0, 1514.0, 1514.0, 1514.0, 1515.0, 1514.0, 1514.0, 1514.0, 1514.0, 1515.0, 1514.0, 1514.0, 1514.0, 1514.0, 1514.0, 1513.0, 1514.0, 1513.0, 1514.0, 1515.0, 1514.0, 1514.0, 1514.0, 1514.0, 1514.0, 1513.0, 1513.0, 1513.0, 1514.0, 1514.0, 1513.0, 1514.0, 1514.0, 1514.0, 1514.0, 1514.0, 1514.0, 1513.0, 1513.0, 1514.0, 1513.0, 1513.0, 1514.0, 1513.0],
      "WindowWidth": [3429.0, 3428.0, 3428.0, 3428.0, 3428.0, 3427.0, 3427.0, 3427.0, 3427.0, 3427.0, 3427.0, 3427.0, 3427.0, 3427.0, 3427.0, 3427.0, 3426.0, 3426.0, 3426.0, 3426.0, 3426.0, 3426.0, 3426.0, 3426.0, 3426.0, 3426.0, 3426.0, 3426.0, 3426.0, 3426.0, 3425.0, 3425.0, 3426.0, 3425.0, 3425.0, 3425.0, 3425.0, 3425.0, 3425.0, 3425.0, 3425.0, 3425.0, 3425.0, 3425.0, 3425.0, 3425.0, 3425.0, 3424.0, 3425.0, 3424.0, 3424.0, 3424.0, 3425.0, 3424.0, 3424.0, 3425.0, 3424.0, 3424.0, 3424.0, 3424.0, 3424.0, 3424.0, 3424.0, 3424.0, 3424.0, 3424.0, 3424.0, 3424.0, 3424.0, 3424.0, 3424.0, 3424.0, 3424.0, 3424.0, 3423.0, 3423.0, 3423.0, 3423.0, 3423.0, 3423.0, 3423.0, 3423.0, 3423.0, 3423.0, 3423.0, 3423.0, 3423.0, 3423.0, 3423.0, 3423.0, 3423.0, 3422.0, 3423.0, 3423.0, 3423.0, 3423.0, 3423.0, 3422.0, 3422.0, 3422.0, 3422.0, 3423.0, 3422.0, 3422.0, 3422.0, 3422.0, 3422.0, 3422.0, 3422.0, 3422.0, 3422.0, 3422.0, 3422.0, 3421.0, 3422.0, 3421.0, 3421.0, 3421.0, 3421.0, 3421.0, 3421.0, 3421.0, 3421.0, 3421.0, 3421.0, 3421.0, 3421.0, 3421.0, 3421.0, 3421.0, 3421.0, 3421.0, 3421.0, 3421.0, 3421.0, 3421.0, 3421.0, 3420.0, 3420.0, 3420.0, 3420.0, 3420.0, 3420.0, 3420.0, 3420.0, 3420.0, 3420.0, 3420.0, 3420.0, 3420.0, 3420.0, 3420.0, 3420.0, 3420.0, 3420.0, 3420.0, 3420.0, 3420.0, 3420.0, 3420.0, 3419.0, 3420.0, 3420.0, 3420.0, 3420.0, 3419.0, 3420.0, 3420.0, 3419.0, 3419.0, 3419.0, 3419.0, 3419.0, 3419.0, 3419.0, 3419.0, 3419.0, 3419.0, 3419.0, 3419.0, 3419.0, 3419.0, 3419.0, 3419.0, 3418.0, 3418.0, 3419.0, 3418.0, 3418.0, 3418.0, 3418.0, 3418.0, 3418.0, 3419.0, 3418.0, 3418.0, 3418.0, 3418.0, 3418.0, 3418.0]
    },
    "slices": {}
  }
}