{
  "AcquisitionMatrixPE": 80,
  "AcquisitionNumber": 1,
  "AcquisitionTime": "08:55:2.567500",
  "BandwidthPerPixelPhaseEncode": 25,
  "BaseResolution": 80,
  "BodyPartExamined": "BRAIN",
  "CoilCombinationMethod": "Sum of Squares",
  "ConsistencyInfo": "N4_VE11C_LATEST_20160120",
  "ConversionSoftware": "dcm2niix",
  "ConversionSoftwareVersion": "v1.0.20220720",
  "DerivedVendorReportedEchoSpacing": 0.0005,
  "DeviceSerialNumber": "66112",
  "DwellTime": 2.7e-06,
  "EchoTime": 0.03,
  "EchoTrainLength": 80,
  "EffectiveEchoSpacing": 0.0005,
  "FlipAngle": 10,
  "HeudiconvVersion": "0.13.1",
  "ImageOrientationPatientDICOM": [0.980703, -0.195498, -0.00110424, 0.186192, 0.932268, 0.310175],
  "ImageOrientationText": "Tra>Cor(17.8)>Sag(3.4)",
  "ImageType": [
    "ORIGINAL",
    "PRIMARY",
    "M",
    "ND",
    "NORM",
    "MOSAIC"
],
  "ImagingFrequency": 123.252,
  "InPlanePhaseEncodingDirectionDICOM": "COL",
  "InstitutionAddress": "Maynard 3,Hanover,NH,US,03755",
  "InstitutionName": "Dartmouth College - PBS",
  "InstitutionalDepartmentName": "Department",
  "MRAcquisitionType": "2D",
  "MagneticFieldStrength": 3,
  "Manufacturer": "Siemens",
  "ManufacturersModelName": "Prisma",
  "MatrixCoilMode": "SENSE",
  "Modality": "MR",
  "NonlinearGradientCorrection": false,
  "PartialFourier": 1,
  "PatientPosition": "HFS",
  "PercentPhaseFOV": 100,
  "PercentSampling": 100,
  "PhaseEncodingDirection": "j-",
  "PhaseEncodingSteps": 80,
  "PhaseResolution": 1,
  "PixelBandwidth": 2315,
  "ProcedureStepDescription": "dbic^QA",
  "ProtocolName": "func-bold_fa-10",
  "PulseSequenceDetails": "%SiemensSeq%\\ep2d_bold",
  "ReceiveCoilActiveElements": "HC1-7;NC1,2",
  "ReceiveCoilName": "HeadNeck_64",
  "ReconMatrixPE": 80,
  "RepetitionTime": 2,
  "SAR": 0.00861969,
  "ScanOptions": "FS",
  "ScanningSequence": "EP",
  "SequenceName": "*epfid2d1_80",
  "SequenceVariant": "SK",
  "SeriesDescription": "func-bold_fa-10",
  "SeriesNumber": 9,
  "ShimSetting": [4140, -7713, -7512, 212, -65, -271, -54, 108],
  "SliceThickness": 3.5,
  "SliceTiming": [0.99, 0, 1.055, 0.065, 1.12, 0.13, 1.1875, 0.1975, 1.2525, 0.2625, 1.32, 0.33, 1.385, 0.395, 1.45, 0.46, 1.5175, 0.5275, 1.5825, 0.5925, 1.65, 0.66, 1.715, 0.725, 1.78, 0.79, 1.8475, 0.8575, 1.9125, 0.9225],
  "SoftwareVersions": "syngo MR E11",
  "SpacingBetweenSlices": 3.99,
  "StationName": "AWP66112",
  "TotalReadoutTime": 0.0395,
  "TxRefAmp": 211.104,
  "dcmmeta_affine": [
    [-2.942110300064087, 0.5585770606994629, 0.2378406971693039, 92.25801849365234],
    [0.5864952206611633, 2.796804904937744, 1.2145355939865112, -140.28524780273438],
    [-0.003312718356028199, -0.9305238127708435, 3.7932090759277344, -20.551607131958008],
    [0.0, 0.0, 0.0, 1.0]
],
  "dcmmeta_reorient_transform": [
    [0.0, -1.0, 0.0, 79.0],
    [1.0, 0.0, 0.0, 0.0],
    [0.0, 0.0, 1.0, 0.0],
    [0.0, 0.0, 0.0, 1.0]
],
  "dcmmeta_shape": [80, 80, 30, 200],
  "dcmmeta_slice_dim": 2,
  "dcmmeta_version": 0.6,
  "global": {
    "const": {
      "AccessionNumber": "qa64",
      "AcquisitionMatrix": [80, 0, 0, 80],
      "AngioFlag": "N",
      "BitsAllocated": 16,
      "BitsStored": 12,
      "BodyPartExamined": "BRAIN",
      "Columns": 480,
      "EchoNumbers": 1,
      "EchoTime": 30.0,
      "EchoTrainLength": 80,
      "FlipAngle": 10.0,
      "HighBit": 11,
      "ImageOrientationPatient": [0.98070339545865, -0.1954984163391, -0.0011042394466, 0.1861923566637, 0.9322682646806, 0.31017461048486],
      "ImagePositionPatient": [-836.52305553223, -522.72423406223, -279.50521167267],
      "ImageType": [
        "ORIGINAL",
        "PRIMARY",
        "M",
        "ND",
        "NORM",
        "MOSAIC"
],
      "ImagedNucleus": "1H",
      "ImagingFrequency": 123.252375,
      "InPlanePhaseEncodingDirection": "COL",
      "MRAcquisitionType": "2D",
      "MagneticFieldStrength": 3.0,
      "Manufacturer": "SIEMENS",
      "ManufacturerModelName": "Prisma",
      "Modality": "MR",
      "NumberOfAverages": 1.0,
      "NumberOfPhaseEncodingSteps": 80,
      "PercentPhaseFieldOfView": 100.0,
      "PercentSampling": 100.0,
      "PerformedProcedureStepStartTime": "083609.474000",
      "PhotometricInterpretation": "MONOCHROME2",
      "PixelBandwidth": 2315.0,
      "PixelRepresentation": 0,
      "PixelSpacing": [3.0, 3.0],
      "ProtocolName": "func-bold_fa-10",
      "RepetitionTime": 2000.0,
      "Rows": 480,
      "SAR": 0.0086196926074,
      "SamplesPerPixel": 1,
      "ScanOptions": "FS",
      "ScanningSequence": "EP",
      "SequenceName": "*epfid2d1_80",
      "SequenceVariant": "SK",
      "SeriesDescription": "func-bold_fa-10",
      "SeriesNumber": 9,
      "SeriesTime": "085558.978000",
      "SliceLocation": -56.740668544146,
      "SliceThickness": 3.5,
      "SmallestImagePixelValue": 0,
      "SoftwareVersions": "syngo MR E11",
      "SpacingBetweenSlices": 3.9900000025059,
      "SpecificCharacterSet": "ISO_IR 100",
      "StudyID": "46",
      "StudyTime": "083609.423000",
      "TransmitCoilName": "Body",
      "VariableFlipAngleFlag": "N",
      "WindowCenterWidthExplanation": "Algo1",
      "dBdt": 0.0},
    "slices": {}
  },
  "time": {
    "samples": {
      "AcquisitionNumber": [1, 2, 3, 4, 5, 6, 7, 8, 9, 10, 11, 12, 13, 14, 15, 16, 17, 18, 19, 20, 21, 22, 23, 24, 25, 26, 27, 28, 29, 30, 31, 32, 33, 34, 35, 36, 37, 38, 39, 40, 41, 42, 43, 44, 45, 46, 47, 48, 49, 50, 51, 52, 53, 54, 55, 56, 57, 58, 59, 60, 61, 62, 63, 64, 65, 66, 67, 68, 69, 70, 71, 72, 73, 74, 75, 76, 77, 78, 79, 80, 81, 82, 83, 84, 85, 86, 87, 88, 89, 90, 91, 92, 93, 94, 95, 96, 97, 98, 99, 100, 101, 102, 103, 104, 105, 106, 107, 108, 109, 110, 111, 112, 113, 114, 115, 116, 117, 118, 119, 120, 121, 122, 123, 124, 125, 126, 127, 128, 129, 130, 131, 132, 133, 134, 135, 136, 137, 138, 139, 140, 141, 142, 143, 144, 145, 146, 147, 148, 149, 150, 151, 152, 153, 154, 155, 156, 157, 158, 159, 160, 161, 162, 163, 164, 165, 166, 167, 168, 169, 170, 171, 172, 173, 174, 175, 176, 177, 178, 179, 180, 181, 182, 183, 184, 185, 186, 187, 188, 189, 190, 191, 192, 193, 194, 195, 196, 197, 198, 199, 200],
      "AcquisitionTime": ["085502.567500", "085504.567500", "085506.567500", "085508.567500", "085510.567500", "085512.567500", "085514.567500", "085516.567500", "085518.567500", "085520.567500", "085522.567500", "085524.567500", "085526.567500", "085528.567500", "085530.567500", "085532.567500", "085534.567500", "085536.567500", "085538.567500", "085540.567500", "085542.567500", "085544.567500", "085546.567500", "085548.567500", "085550.567500", "085552.567500", "085554.567500", "085556.567500", "085558.567500", "085600.567500", "085602.567500", "085604.567500", "085606.567500", "085608.567500", "085610.567500", "085612.567500", "085614.567500", "085616.567500", "085618.567500", "085620.567500", "085622.567500", "085624.567500", "085626.567500", "085628.567500", "085630.567500", "085632.567500", "085634.567500", "085636.567500", "085638.567500", "085640.567500", "085642.567500", "085644.567500", "085646.567500", "085648.567500", "085650.567500", "085652.567500", "085654.567500", "085656.567500", "085658.567500", "085700.567500", "085702.567500", "085704.567500", "085706.567500", "085708.567500", "085710.567500", "085712.567500", "085714.567500", "085716.567500", "085718.567500", "085720.567500", "085722.567500", "085724.567500", "085726.567500", "085728.567500", "085730.567500", "085732.567500", "085734.567500", "085736.567500", "085738.567500", "085740.567500", "085742.567500", "085744.567500", "085746.567500", "085748.567500", "085750.567500", "085752.567500", "085754.567500", "085756.567500", "085758.567500", "085800.567500", "085802.567500", "085804.567500", "085806.567500", "085808.567500", "085810.567500", "085812.567500", "085814.567500", "085816.567500", "085818.567500", "085820.567500", "085822.567500", "085824.567500", "085826.567500", "085828.567500", "085830.567500", "085832.567500", "085834.567500", "085836.567500", "085838.567500", "085840.567500", "085842.567500", "085844.567500", "085846.567500", "085848.567500", "085850.567500", "085852.567500", "085854.567500", "085856.567500", "085858.567500", "085900.567500", "085902.567500", "085904.567500", "085906.567500", "085908.567500", "085910.567500", "085912.567500", "085914.567500", "085916.567500", "085918.567500", "085920.567500", "085922.567500", "085924.567500", "085926.567500", "085928.567500", "085930.567500", "085932.567500", "085934.567500", "085936.567500", "085938.567500", "085940.567500", "085942.567500", "085944.567500", "085946.567500", "085948.567500", "085950.567500", "085952.567500", "085954.567500", "085956.567500", "085958.567500", "090000.567500", "090002.567500", "090004.567500", "090006.567500", "090008.567500", "090010.567500", "090012.567500", "090014.567500", "090016.567500", "090018.567500", "090020.567500", "090022.567500", "090024.567500", "090026.567500", "090028.567500", "090030.567500", "090032.567500", "090034.567500", "090036.567500", "090038.567500", "090040.567500", "090042.567500", "090044.567500", "090046.567500", "090048.567500", "090050.567500", "090052.567500", "090054.567500", "090056.567500", "090058.567500", "090100.567500", "090102.567500", "090104.567500", "090106.567500", "090108.567500", "090110.567500", "090112.567500", "090114.567500", "090116.567500", "090118.567500", "090120.567500", "090122.567500", "090124.567500", "090126.567500", "090128.567500", "090130.567500", "090132.567500", "090134.567500", "090136.567500", "090138.567500", "090140.567500"],
      "ContentTime": ["085558.981000", "085558.985000", "085558.993000", "085558.995000", "085558.998000", "085559.001000", "085559.004000", "085559.006000", "085559.009000", "085559.011000", "085559.015000", "085559.017000", "085559.020000", "085559.022000", "085559.025000", "085559.027000", "085559.030000", "085559.032000", "085559.035000", "085559.037000", "085559.040000", "085559.042000", "085559.045000", "085559.047000", "085559.054000", "085559.056000", "085559.059000", "085559.061000", "085638.976000", "085638.979000", "085638.982000", "085638.984000", "085638.987000", "085638.989000", "085638.992000", "085638.994000", "085638.997000", "085639.000000", "085639.003000", "085639.005000", "085639.008000", "085639.010000", "085639.013000", "085639.015000", "085639.018000", "085639.020000", "085639.023000", "085639.025000", "085718.976000", "085718.979000", "085718.982000", "085718.984000", "085718.987000", "085718.989000", "085718.992000", "085718.994000", "085718.997000", "085719.000000", "085719.003000", "085719.005000", "085719.020000", "085719.022000", "085719.025000", "085719.027000", "085719.030000", "085719.032000", "085719.035000", "085719.037000", "085758.977000", "085758.979000", "085758.982000", "085758.984000", "085758.987000", "085758.989000", "085758.992000", "085758.994000", "085758.997000", "085759.000000", "085759.003000", "085759.005000", "085759.008000", "085759.010000", "085759.013000", "085759.016000", "085759.018000", "085759.021000", "085759.023000", "085759.026000", "085838.976000", "085838.979000", "085838.982000", "085838.984000", "085838.987000", "085838.989000", "085838.992000", "085838.994000", "085838.997000", "085839.000000", "085839.003000", "085839.005000", "085839.008000", "085839.011000", "085839.014000", "085839.016000", "085839.019000", "085839.021000", "085839.024000", "085839.026000", "085918.976000", "085918.979000", "085918.982000", "085918.984000", "085918.987000", "085918.989000", "085918.992000", "085918.994000", "085918.997000", "085919.000000", "085919.003000", "085919.005000", "085919.009000", "085919.011000", "085919.014000", "085919.016000", "085919.019000", "085919.021000", "085919.024000", "085919.028000", "085958.976000", "085958.979000", "085958.982000", "085958.984000", "085958.987000", "085958.989000", "085958.992000", "085958.994000", "085958.997000", "085959.000000", "085959.003000", "085959.005000", "085959.008000", "085959.011000", "085959.013000", "085959.016000", "085959.018000", "085959.021000", "085959.023000", "085959.026000", "090038.976000", "090038.979000", "090038.982000", "090038.984000", "090038.987000", "090038.989000", "090038.992000", "090038.994000", "090038.997000", "090039.000000", "090039.003000", "090039.005000", "090039.008000", "090039.011000", "090039.013000", "090039.016000", "090039.018000", "090039.021000", "090039.023000", "090039.026000", "090118.976000", "090118.979000", "090118.982000", "090118.984000", "090118.987000", "090118.989000", "090118.992000", "090118.994000", "090118.997000", "090119.000000", "090119.003000", "090119.006000", "090119.009000", "090119.011000", "090119.014000", "090119.016000", "090119.019000", "090119.021000", "090119.024000", "090119.026000", "090142.437000", "090142.440000", "090142.443000", "090142.445000", "090142.448000", "090142.450000", "090142.453000", "090142.455000", "090142.458000", "090142.460000", "090142.463000", "090142.466000"],
      "InstanceCreationTime": ["085558.981000", "085558.985000", "085558.993000", "085558.995000", "085558.998000", "085559.001000", "085559.004000", "085559.006000", "085559.009000", "085559.011000", "085559.015000", "085559.017000", "085559.020000", "085559.022000", "085559.025000", "085559.027000", "085559.030000", "085559.032000", "085559.035000", "085559.037000", "085559.040000", "085559.042000", "085559.045000", "085559.047000", "085559.054000", "085559.056000", "085559.059000", "085559.061000", "085638.976000", "085638.979000", "085638.982000", "085638.984000", "085638.987000", "085638.989000", "085638.992000", "085638.994000", "085638.997000", "085639.000000", "085639.003000", "085639.005000", "085639.008000", "085639.010000", "085639.013000", "085639.015000", "085639.018000", "085639.020000", "085639.023000", "085639.025000", "085718.976000", "085718.979000", "085718.982000", "085718.984000", "085718.987000", "085718.989000", "085718.992000", "085718.994000", "085718.997000", "085719.000000", "085719.003000", "085719.005000", "085719.020000", "085719.022000", "085719.025000", "085719.027000", "085719.030000", "085719.032000", "085719.035000", "085719.037000", "085758.977000", "085758.979000", "085758.982000", "085758.984000", "085758.987000", "085758.989000", "085758.992000", "085758.994000", "085758.997000", "085759.000000", "085759.003000", "085759.005000", "085759.008000", "085759.010000", "085759.013000", "085759.016000", "085759.018000", "085759.021000", "085759.023000", "085759.026000", "085838.976000", "085838.979000", "085838.982000", "085838.984000", "085838.987000", "085838.989000", "085838.992000", "085838.994000", "085838.997000", "085839.000000", "085839.003000", "085839.005000", "085839.008000", "085839.011000", "085839.014000", "085839.016000", "085839.019000", "085839.021000", "085839.024000", "085839.026000", "085918.976000", "085918.979000", "085918.982000", "085918.984000", "085918.987000", "085918.989000", "085918.992000", "085918.994000", "085918.997000", "085919.000000", "085919.003000", "085919.005000", "085919.009000", "085919.011000", "085919.014000", "085919.016000", "085919.019000", "085919.021000", "085919.024000", "085919.028000", "085958.976000", "085958.979000", "085958.982000", "085958.984000", "085958.987000", "085958.989000", "085958.992000", "085958.994000", "085958.997000", "085959.000000", "085959.003000", "085959.005000", "085959.008000", "085959.011000", "085959.013000", "085959.016000", "085959.018000", "085959.021000", "085959.023000", "085959.026000", "090038.976000", "090038.979000", "090038.982000", "090038.984000", "090038.987000", "090038.989000", "090038.992000", "090038.994000", "090038.997000", "090039.000000", "090039.003000", "090039.005000", "090039.008000", "090039.011000", "090039.013000", "090039.016000", "090039.018000", "090039.021000", "090039.023000", "090039.026000", "090118.976000", "090118.979000", "090118.982000", "090118.984000", "090118.987000", "090118.989000", "090118.992000", "090118.994000", "090118.997000", "090119.000000", "090119.003000", "090119.006000", "090119.009000", "090119.011000", "090119.014000", "090119.016000", "090119.019000", "090119.021000", "090119.024000", "090119.026000", "090142.437000", "090142.440000", "090142.443000", "090142.445000", "090142.448000", "090142.450000", "090142.453000", "090142.455000", "090142.458000", "090142.460000", "090142.463000", "090142.466000"],
      "InstanceNumber": [1, 2, 3, 4, 5, 6, 7, 8, 9, 10, 11, 12, 13, 14, 15, 16, 17, 18, 19, 20, 21, 22, 23, 24, 25, 26, 27, 28, 29, 30, 31, 32, 33, 34, 35, 36, 37, 38, 39, 40, 41, 42, 43, 44, 45, 46, 47, 48, 49, 50, 51, 52, 53, 54, 55, 56, 57, 58, 59, 60, 61, 62, 63, 64, 65, 66, 67, 68, 69, 70, 71, 72, 73, 74, 75, 76, 77, 78, 79, 80, 81, 82, 83, 84, 85, 86, 87, 88, 89, 90, 91, 92, 93, 94, 95, 96, 97, 98, 99, 100, 101, 102, 103, 104, 105, 106, 107, 108, 109, 110, 111, 112, 113, 114, 115, 116, 117, 118, 119, 120, 121, 122, 123, 124, 125, 126, 127, 128, 129, 130, 131, 132, 133, 134, 135, 136, 137, 138, 139, 140, 141, 142, 143, 144, 145, 146, 147, 148, 149, 150, 151, 152, 153, 154, 155, 156, 157, 158, 159, 160, 161, 162, 163, 164, 165, 166, 167, 168, 169, 170, 171, 172, 173, 174, 175, 176, 177, 178, 179, 180, 181, 182, 183, 184, 185, 186, 187, 188, 189, 190, 191, 192, 193, 194, 195, 196, 197, 198, 199, 200],
      "LargestImagePixelValue": [658, 653, 652, 652, 653, 655, 656, 651, 649, 646, 648, 643, 646, 647, 648, 649, 649, 646, 648, 649, 646, 650, 651, 653, 651, 651, 652, 650, 651, 650, 648, 651, 651, 654, 649, 650, 649, 650, 655, 651, 649, 647, 651, 653, 654, 649, 651, 651, 651, 653, 651, 649, 657, 650, 654, 654, 653, 653, 655, 657, 655, 652, 655, 648, 655, 660, 654, 657, 652, 653, 651, 654, 652, 656, 651, 655, 657, 656, 654, 653, 654, 654, 653, 654, 655, 651, 656, 652, 654, 652, 653, 656, 653, 657, 656, 653, 656, 657, 657, 656, 656, 660, 660, 652, 656, 656, 655, 663, 662, 660, 665, 663, 658, 662, 660, 658, 655, 662, 654, 662, 662, 660, 658, 660, 660, 663, 657, 655, 659, 655, 657, 660, 658, 662, 664, 658, 655, 661, 655, 662, 662, 659, 658, 657, 660, 666, 666, 668, 659, 663, 665, 662, 661, 666, 654, 658, 661, 664, 660, 658, 658, 659, 661, 659, 663, 661, 660, 659, 659, 660, 664, 663, 662, 662, 661, 662, 664, 665, 667, 665, 660, 661, 663, 664, 664, 661, 660, 660, 662, 663, 662, 665, 658, 663, 660, 665, 661, 663, 662, 665],
      "WindowCenter": [455.0, 455.0, 455.0, 455.0, 455.0, 455.0, 455.0, 451.0, 449.0, 449.0, 449.0, 449.0, 449.0, 449.0, 449.0, 449.0, 449.0, 449.0, 450.0, 449.0, 449.0, 450.0, 450.0, 452.0, 451.0, 451.0, 450.0, 450.0, 450.0, 450.0, 449.0, 450.0, 450.0, 450.0, 450.0, 451.0, 449.0, 451.0, 450.0, 450.0, 450.0, 450.0, 450.0, 450.0, 451.0, 450.0, 450.0, 451.0, 451.0, 450.0, 450.0, 449.0, 452.0, 450.0, 450.0, 450.0, 451.0, 451.0, 452.0, 450.0, 452.0, 450.0, 450.0, 450.0, 451.0, 451.0, 450.0, 450.0, 450.0, 450.0, 450.0, 451.0, 450.0, 450.0, 450.0, 450.0, 452.0, 450.0, 451.0, 450.0, 450.0, 450.0, 451.0, 450.0, 450.0, 451.0, 450.0, 451.0, 450.0, 450.0, 451.0, 450.0, 450.0, 450.0, 451.0, 450.0, 451.0, 450.0, 450.0, 451.0, 450.0, 451.0, 450.0, 450.0, 450.0, 450.0, 450.0, 453.0, 454.0, 454.0, 454.0, 454.0, 452.0, 451.0, 450.0, 451.0, 451.0, 452.0, 450.0, 450.0, 450.0, 451.0, 450.0, 451.0, 450.0, 452.0, 450.0, 451.0, 450.0, 450.0, 451.0, 451.0, 451.0, 450.0, 451.0, 451.0, 451.0, 451.0, 451.0, 451.0, 451.0, 451.0, 451.0, 451.0, 451.0, 454.0, 454.0, 454.0, 452.0, 451.0, 451.0, 451.0, 451.0, 451.0, 451.0, 451.0, 451.0, 454.0, 452.0, 451.0, 451.0, 451.0, 451.0, 451.0, 451.0, 451.0, 451.0, 451.0, 451.0, 451.0, 451.0, 451.0, 451.0, 451.0, 451.0, 451.0, 451.0, 451.0, 451.0, 451.0, 451.0, 451.0, 451.0, 451.0, 451.0, 451.0, 451.0, 452.0, 451.0, 451.0, 450.0, 451.0, 451.0, 451.0, 450.0, 451.0, 450.0, 451.0, 451.0, 451.0],
      "WindowWidth": [944.0, 944.0, 944.0, 944.0, 945.0, 945.0, 944.0, 938.0, 933.0, 934.0, 934.0, 934.0, 934.0, 935.0, 934.0, 934.0, 935.0, 935.0, 936.0, 935.0, 935.0, 936.0, 936.0, 939.0, 937.0, 938.0, 936.0, 936.0, 936.0, 936.0, 935.0, 936.0, 936.0, 936.0, 936.0, 937.0, 935.0, 937.0, 936.0, 936.0, 936.0, 936.0, 936.0, 936.0, 937.0, 936.0, 936.0, 936.0, 937.0, 936.0, 936.0, 935.0, 939.0, 936.0, 936.0, 936.0, 937.0, 937.0, 939.0, 936.0, 939.0, 936.0, 936.0, 936.0, 937.0, 938.0, 936.0, 936.0, 936.0, 936.0, 936.0, 937.0, 936.0, 937.0, 936.0, 937.0, 939.0, 936.0, 937.0, 936.0, 936.0, 936.0, 937.0, 936.0, 936.0, 937.0, 936.0, 937.0, 936.0, 936.0, 937.0, 936.0, 936.0, 936.0, 937.0, 936.0, 937.0, 936.0, 936.0, 937.0, 936.0, 937.0, 936.0, 936.0, 936.0, 936.0, 936.0, 942.0, 944.0, 944.0, 944.0, 944.0, 939.0, 937.0, 936.0, 937.0, 937.0, 939.0, 936.0, 936.0, 936.0, 937.0, 936.0, 937.0, 936.0, 939.0, 936.0, 937.0, 936.0, 937.0, 937.0, 938.0, 937.0, 937.0, 937.0, 937.0, 937.0, 937.0, 937.0, 937.0, 937.0, 937.0, 937.0, 937.0, 937.0, 943.0, 944.0, 943.0, 939.0, 937.0, 937.0, 937.0, 937.0, 937.0, 937.0, 938.0, 937.0, 943.0, 940.0, 937.0, 937.0, 937.0, 938.0, 937.0, 937.0, 937.0, 937.0, 937.0, 937.0, 937.0, 937.0, 937.0, 937.0, 937.0, 937.0, 937.0, 937.0, 937.0, 937.0, 937.0, 937.0, 937.0, 937.0, 937.0, 937.0, 937.0, 937.0, 939.0, 937.0, 937.0, 937.0, 937.0, 937.0, 937.0, 937.0, 938.0, 937.0, 937.0, 937.0, 937.0]
    },
    "slices": {}
  }
}