{
  "AcquisitionMatrixPE": 80,
  "AcquisitionNumber": 1,
  "AcquisitionTime": "15:55:54.502500",
  "BandwidthPerPixelPhaseEncode": 25,
  "BaseResolution": 80,
  "BodyPartExamined": "BRAIN",
  "CoilCombinationMethod": "Sum of Squares",
  "ConsistencyInfo": "N4_VE11C_LATEST_20160120",
  "ConversionSoftware": "dcm2niix",
  "ConversionSoftwareVersion": "v1.0.20220720",
  "DerivedVendorReportedEchoSpacing": 0.0005,
  "DeviceSerialNumber": "66112",
  "DwellTime": 2.7e-06,
  "EchoTime": 0.03,
  "EchoTrainLength": 80,
  "EffectiveEchoSpacing": 0.0005,
  "FlipAngle": 10,
  "HeudiconvVersion": "0.13.1",
  "ImageOrientationPatientDICOM": [0.978376, -0.206832, 9.17772e-05, 0.196742, 0.930785, 0.308109],
  "ImageOrientationText": "Tra>Cor(17.6)>Sag(3.7)",
  "ImageType": [
    "ORIGINAL",
    "PRIMARY",
    "M",
    "ND",
    "NORM",
    "MOSAIC"
],
  "ImagingFrequency": 123.252,
  "InPlanePhaseEncodingDirectionDICOM": "COL",
  "InstitutionAddress": "Maynard 3,Hanover,NH,US,03755",
  "InstitutionName": "Dartmouth College - PBS",
  "InstitutionalDepartmentName": "Department",
  "MRAcquisitionType": "2D",
  "MagneticFieldStrength": 3,
  "Manufacturer": "Siemens",
  "ManufacturersModelName": "Prisma",
  "MatrixCoilMode": "SENSE",
  "Modality": "MR",
  "NonlinearGradientCorrection": false,
  "PartialFourier": 1,
  "PatientPosition": "HFS",
  "PercentPhaseFOV": 100,
  "PercentSampling": 100,
  "PhaseEncodingDirection": "j-",
  "PhaseEncodingSteps": 80,
  "PhaseResolution": 1,
  "PixelBandwidth": 2315,
  "ProcedureStepDescription": "dbic^QA",
  "ProtocolName": "func-bold_acq-32ch-10flip",
  "PulseSequenceDetails": "%SiemensSeq%\\ep2d_bold",
  "ReceiveCoilActiveElements": "HEA;HEP",
  "ReceiveCoilName": "Head_32",
  "ReconMatrixPE": 80,
  "RepetitionTime": 2,
  "SAR": 0.0117099,
  "ScanOptions": "FS",
  "ScanningSequence": "EP",
  "SequenceName": "*epfid2d1_80",
  "SequenceVariant": "SK",
  "SeriesDescription": "func-bold_acq-32ch-10flip",
  "SeriesNumber": 10,
  "ShimSetting": [4149, -7710, -7519, 223, -52, -25, -32, 62],
  "SliceThickness": 3.5,
  "SliceTiming": [0.99, 0, 1.0575, 0.0675, 1.1225, 0.1325, 1.1875, 0.1975, 1.255, 0.265, 1.32, 0.33, 1.3875, 0.3975, 1.4525, 0.4625, 1.5175, 0.5275, 1.585, 0.595, 1.65, 0.66, 1.7175, 0.7275, 1.7825, 0.7925, 1.8475, 0.8575, 1.915, 0.925],
  "SoftwareVersions": "syngo MR E11",
  "SpacingBetweenSlices": 3.99,
  "StationName": "AWP66112",
  "TotalReadoutTime": 0.0395,
  "TxRefAmp": 226.492,
  "dcmmeta_affine": [
    [-2.935129404067993, 0.5902268290519714, 0.2546108663082123, 89.69772338867188],
    [0.6204962730407715, 2.792356014251709, 1.2026996612548828, -131.5872039794922],
    [0.00027533152024261653, -0.9243268966674805, 3.7958905696868896, -18.093643188476562],
    [0.0, 0.0, 0.0, 1.0]
],
  "dcmmeta_reorient_transform": [
    [0.0, -1.0, 0.0, 79.0],
    [1.0, 0.0, 0.0, 0.0],
    [0.0, 0.0, 1.0, 0.0],
    [0.0, 0.0, 0.0, 1.0]
],
  "dcmmeta_shape": [80, 80, 30, 200],
  "dcmmeta_slice_dim": 2,
  "dcmmeta_version": 0.6,
  "global": {
    "const": {
      "AccessionNumber": "qa",
      "AcquisitionMatrix": [80, 0, 0, 80],
      "AngioFlag": "N",
      "BitsAllocated": 16,
      "BitsStored": 12,
      "BodyPartExamined": "BRAIN",
      "Columns": 480,
      "EchoNumbers": 1,
      "EchoTime": 30.0,
      "EchoTrainLength": 80,
      "FlipAngle": 10.0,
      "HighBit": 11,
      "ImageOrientationPatient": [0.97837644814038, -0.2068320993008, 9.177717605e-05, 0.19674227448281, 0.93078533617017, 0.3081089667665],
      "ImagePositionPatient": [-841.39687402649, -523.38085632189, -276.03591381247],
      "ImageType": [
        "ORIGINAL",
        "PRIMARY",
        "M",
        "ND",
        "NORM",
        "MOSAIC"
],
      "ImagedNucleus": "1H",
      "ImagingFrequency": 123.252397,
      "InPlanePhaseEncodingDirection": "COL",
      "MRAcquisitionType": "2D",
      "MagneticFieldStrength": 3.0,
      "Manufacturer": "SIEMENS",
      "ManufacturerModelName": "Prisma",
      "Modality": "MR",
      "NumberOfAverages": 1.0,
      "NumberOfPhaseEncodingSteps": 80,
      "PercentPhaseFieldOfView": 100.0,
      "PercentSampling": 100.0,
      "PerformedProcedureStepStartTime": "152550.199000",
      "PhotometricInterpretation": "MONOCHROME2",
      "PixelBandwidth": 2315.0,
      "PixelRepresentation": 0,
      "PixelSpacing": [3.0, 3.0],
      "ProtocolName": "func-bold_acq-32ch-10flip",
      "RepetitionTime": 2000.0,
      "Rows": 480,
      "SAR": 0.01170991176025,
      "SamplesPerPixel": 1,
      "ScanOptions": "FS",
      "ScanningSequence": "EP",
      "SequenceName": "*epfid2d1_80",
      "SequenceVariant": "SK",
      "SeriesDescription": "func-bold_acq-32ch-10flip",
      "SeriesNumber": 10,
      "SeriesTime": "155643.823000",
      "SliceLocation": -51.153728091663,
      "SliceThickness": 3.5,
      "SmallestImagePixelValue": 0,
      "SoftwareVersions": "syngo MR E11",
      "SpacingBetweenSlices": 3.9899999153385,
      "SpecificCharacterSet": "ISO_IR 100",
      "StudyID": "12",
      "StudyTime": "152550.083000",
      "TransmitCoilName": "Body",
      "VariableFlipAngleFlag": "N",
      "WindowCenterWidthExplanation": "Algo1",
      "dBdt": 0.0},
    "slices": {}
  },
  "time": {
    "samples": {
      "AcquisitionNumber": [1, 2, 3, 4, 5, 6, 7, 8, 9, 10, 11, 12, 13, 14, 15, 16, 17, 18, 19, 20, 21, 22, 23, 24, 25, 26, 27, 28, 29, 30, 31, 32, 33, 34, 35, 36, 37, 38, 39, 40, 41, 42, 43, 44, 45, 46, 47, 48, 49, 50, 51, 52, 53, 54, 55, 56, 57, 58, 59, 60, 61, 62, 63, 64, 65, 66, 67, 68, 69, 70, 71, 72, 73, 74, 75, 76, 77, 78, 79, 80, 81, 82, 83, 84, 85, 86, 87, 88, 89, 90, 91, 92, 93, 94, 95, 96, 97, 98, 99, 100, 101, 102, 103, 104, 105, 106, 107, 108, 109, 110, 111, 112, 113, 114, 115, 116, 117, 118, 119, 120, 121, 122, 123, 124, 125, 126, 127, 128, 129, 130, 131, 132, 133, 134, 135, 136, 137, 138, 139, 140, 141, 142, 143, 144, 145, 146, 147, 148, 149, 150, 151, 152, 153, 154, 155, 156, 157, 158, 159, 160, 161, 162, 163, 164, 165, 166, 167, 168, 169, 170, 171, 172, 173, 174, 175, 176, 177, 178, 179, 180, 181, 182, 183, 184, 185, 186, 187, 188, 189, 190, 191, 192, 193, 194, 195, 196, 197, 198, 199, 200],
      "AcquisitionTime": ["155554.502500", "155556.502500", "155558.502500", "155600.502500", "155602.502500", "155604.502500", "155606.502500", "155608.502500", "155610.502500", "155612.502500", "155614.502500", "155616.502500", "155618.502500", "155620.502500", "155622.502500", "155624.502500", "155626.502500", "155628.502500", "155630.502500", "155632.502500", "155634.502500", "155636.502500", "155638.502500", "155640.502500", "155642.502500", "155644.502500", "155646.502500", "155648.502500", "155650.502500", "155652.502500", "155654.502500", "155656.502500", "155658.502500", "155700.502500", "155702.502500", "155704.502500", "155706.502500", "155708.502500", "155710.502500", "155712.502500", "155714.502500", "155716.502500", "155718.502500", "155720.502500", "155722.502500", "155724.502500", "155726.502500", "155728.502500", "155730.502500", "155732.502500", "155734.502500", "155736.502500", "155738.502500", "155740.502500", "155742.502500", "155744.502500", "155746.502500", "155748.502500", "155750.502500", "155752.502500", "155754.502500", "155756.502500", "155758.502500", "155800.502500", "155802.502500", "155804.502500", "155806.502500", "155808.502500", "155810.502500", "155812.502500", "155814.502500", "155816.502500", "155818.502500", "155820.502500", "155822.502500", "155824.502500", "155826.502500", "155828.502500", "155830.502500", "155832.502500", "155834.502500", "155836.502500", "155838.502500", "155840.502500", "155842.502500", "155844.502500", "155846.502500", "155848.502500", "155850.502500", "155852.502500", "155854.502500", "155856.502500", "155858.502500", "155900.502500", "155902.502500", "155904.502500", "155906.502500", "155908.502500", "155910.502500", "155912.502500", "155914.502500", "155916.502500", "155918.502500", "155920.502500", "155922.502500", "155924.502500", "155926.502500", "155928.502500", "155930.502500", "155932.502500", "155934.502500", "155936.502500", "155938.502500", "155940.502500", "155942.502500", "155944.502500", "155946.502500", "155948.502500", "155950.502500", "155952.502500", "155954.502500", "155956.502500", "155958.502500", "160000.502500", "160002.502500", "160004.502500", "160006.502500", "160008.502500", "160010.502500", "160012.502500", "160014.502500", "160016.502500", "160018.502500", "160020.502500", "160022.502500", "160024.502500", "160026.502500", "160028.502500", "160030.502500", "160032.502500", "160034.502500", "160036.502500", "160038.502500", "160040.502500", "160042.502500", "160044.502500", "160046.502500", "160048.502500", "160050.502500", "160052.502500", "160054.502500", "160056.502500", "160058.502500", "160100.502500", "160102.502500", "160104.502500", "160106.502500", "160108.502500", "160110.502500", "160112.502500", "160114.502500", "160116.502500", "160118.502500", "160120.502500", "160122.502500", "160124.502500", "160126.502500", "160128.502500", "160130.502500", "160132.502500", "160134.502500", "160136.502500", "160138.502500", "160140.502500", "160142.502500", "160144.502500", "160146.502500", "160148.502500", "160150.502500", "160152.502500", "160154.502500", "160156.502500", "160158.502500", "160200.502500", "160202.502500", "160204.502500", "160206.502500", "160208.502500", "160210.502500", "160212.502500", "160214.502500", "160216.502500", "160218.502500", "160220.502500", "160222.502500", "160224.502500", "160226.502500", "160228.502500", "160230.502500", "160232.502500"],
      "ContentTime": ["155643.826000", "155643.830000", "155643.832000", "155643.835000", "155643.837000", "155643.849000", "155643.851000", "155643.854000", "155643.856000", "155643.859000", "155643.861000", "155643.865000", "155643.868000", "155643.870000", "155643.873000", "155643.875000", "155643.878000", "155643.880000", "155643.883000", "155643.885000", "155643.888000", "155643.907000", "155643.909000", "155643.912000", "155643.914000", "155723.821000", "155723.824000", "155723.827000", "155723.829000", "155723.832000", "155723.835000", "155723.837000", "155723.840000", "155723.842000", "155723.845000", "155723.847000", "155723.850000", "155723.852000", "155723.855000", "155723.857000", "155723.860000", "155723.863000", "155723.865000", "155723.868000", "155803.822000", "155803.824000", "155803.827000", "155803.829000", "155803.832000", "155803.835000", "155803.837000", "155803.840000", "155803.842000", "155803.845000", "155803.847000", "155803.850000", "155803.853000", "155803.855000", "155803.858000", "155803.861000", "155803.863000", "155803.866000", "155803.868000", "155803.871000", "155803.874000", "155823.821000", "155823.824000", "155823.827000", "155823.829000", "155823.832000", "155823.834000", "155823.837000", "155823.840000", "155823.842000", "155903.822000", "155903.824000", "155903.827000", "155903.830000", "155903.832000", "155903.835000", "155903.837000", "155903.840000", "155903.842000", "155903.845000", "155903.848000", "155903.850000", "155903.853000", "155903.855000", "155903.858000", "155903.860000", "155903.863000", "155903.866000", "155903.868000", "155903.871000", "155903.873000", "155943.821000", "155943.824000", "155943.827000", "155943.829000", "155943.832000", "155943.834000", "155943.837000", "155943.840000", "155943.842000", "155943.845000", "155943.847000", "155943.850000", "155943.852000", "155943.855000", "155943.862000", "155943.865000", "155943.868000", "155943.870000", "155943.873000", "155943.876000", "160023.821000", "160023.824000", "160023.827000", "160023.845000", "160023.848000", "160023.850000", "160023.854000", "160023.856000", "160023.859000", "160023.862000", "160023.864000", "160023.867000", "160023.869000", "160023.872000", "160023.874000", "160023.877000", "160023.879000", "160023.882000", "160023.884000", "160023.887000", "160103.821000", "160103.824000", "160103.827000", "160103.829000", "160103.832000", "160103.835000", "160103.837000", "160103.840000", "160103.842000", "160103.845000", "160103.847000", "160103.850000", "160103.853000", "160103.855000", "160103.858000", "160103.860000", "160103.863000", "160103.866000", "160103.868000", "160143.822000", "160143.824000", "160143.827000", "160143.830000", "160143.832000", "160143.835000", "160143.837000", "160143.840000", "160143.842000", "160143.845000", "160143.847000", "160143.850000", "160143.853000", "160143.855000", "160143.858000", "160143.861000", "160143.863000", "160143.866000", "160143.869000", "160143.872000", "160223.821000", "160223.823000", "160223.826000", "160223.829000", "160223.831000", "160223.834000", "160223.836000", "160223.839000", "160223.841000", "160223.844000", "160223.846000", "160223.849000", "160223.851000", "160223.854000", "160223.857000", "160223.859000", "160223.862000", "160223.864000", "160223.867000", "160223.870000", "160233.857000", "160233.860000", "160233.862000", "160233.865000", "160233.867000", "160233.870000"],
      "InstanceCreationTime": ["155643.826000", "155643.830000", "155643.832000", "155643.835000", "155643.837000", "155643.849000", "155643.851000", "155643.854000", "155643.856000", "155643.859000", "155643.861000", "155643.865000", "155643.868000", "155643.870000", "155643.873000", "155643.875000", "155643.878000", "155643.880000", "155643.883000", "155643.885000", "155643.888000", "155643.907000", "155643.909000", "155643.912000", "155643.914000", "155723.821000", "155723.824000", "155723.827000", "155723.829000", "155723.832000", "155723.835000", "155723.837000", "155723.840000", "155723.842000", "155723.845000", "155723.847000", "155723.850000", "155723.852000", "155723.855000", "155723.857000", "155723.860000", "155723.863000", "155723.865000", "155723.868000", "155803.822000", "155803.824000", "155803.827000", "155803.829000", "155803.832000", "155803.835000", "155803.837000", "155803.840000", "155803.842000", "155803.845000", "155803.847000", "155803.850000", "155803.853000", "155803.855000", "155803.858000", "155803.861000", "155803.863000", "155803.866000", "155803.868000", "155803.871000", "155803.874000", "155823.821000", "155823.824000", "155823.827000", "155823.829000", "155823.832000", "155823.834000", "155823.837000", "155823.840000", "155823.842000", "155903.822000", "155903.824000", "155903.827000", "155903.830000", "155903.832000", "155903.835000", "155903.837000", "155903.840000", "155903.842000", "155903.845000", "155903.848000", "155903.850000", "155903.853000", "155903.855000", "155903.858000", "155903.860000", "155903.863000", "155903.866000", "155903.868000", "155903.871000", "155903.873000", "155943.821000", "155943.824000", "155943.827000", "155943.829000", "155943.832000", "155943.834000", "155943.837000", "155943.840000", "155943.842000", "155943.845000", "155943.847000", "155943.850000", "155943.852000", "155943.855000", "155943.862000", "155943.865000", "155943.868000", "155943.870000", "155943.873000", "155943.876000", "160023.821000", "160023.824000", "160023.827000", "160023.845000", "160023.848000", "160023.850000", "160023.854000", "160023.856000", "160023.859000", "160023.862000", "160023.864000", "160023.867000", "160023.869000", "160023.872000", "160023.874000", "160023.877000", "160023.879000", "160023.882000", "160023.884000", "160023.887000", "160103.821000", "160103.824000", "160103.827000", "160103.829000", "160103.832000", "160103.835000", "160103.837000", "160103.840000", "160103.842000", "160103.845000", "160103.847000", "160103.850000", "160103.853000", "160103.855000", "160103.858000", "160103.860000", "160103.863000", "160103.866000", "160103.868000", "160143.822000", "160143.824000", "160143.827000", "160143.830000", "160143.832000", "160143.835000", "160143.837000", "160143.840000", "160143.842000", "160143.845000", "160143.847000", "160143.850000", "160143.853000", "160143.855000", "160143.858000", "160143.861000", "160143.863000", "160143.866000", "160143.869000", "160143.872000", "160223.821000", "160223.823000", "160223.826000", "160223.829000", "160223.831000", "160223.834000", "160223.836000", "160223.839000", "160223.841000", "160223.844000", "160223.846000", "160223.849000", "160223.851000", "160223.854000", "160223.857000", "160223.859000", "160223.862000", "160223.864000", "160223.867000", "160223.870000", "160233.857000", "160233.860000", "160233.862000", "160233.865000", "160233.867000", "160233.870000"],
      "InstanceNumber": [1, 2, 3, 4, 5, 6, 7, 8, 9, 10, 11, 12, 13, 14, 15, 16, 17, 18, 19, 20, 21, 22, 23, 24, 25, 26, 27, 28, 29, 30, 31, 32, 33, 34, 35, 36, 37, 38, 39, 40, 41, 42, 43, 44, 45, 46, 47, 48, 49, 50, 51, 52, 53, 54, 55, 56, 57, 58, 59, 60, 61, 62, 63, 64, 65, 66, 67, 68, 69, 70, 71, 72, 73, 74, 75, 76, 77, 78, 79, 80, 81, 82, 83, 84, 85, 86, 87, 88, 89, 90, 91, 92, 93, 94, 95, 96, 97, 98, 99, 100, 101, 102, 103, 104, 105, 106, 107, 108, 109, 110, 111, 112, 113, 114, 115, 116, 117, 118, 119, 120, 121, 122, 123, 124, 125, 126, 127, 128, 129, 130, 131, 132, 133, 134, 135, 136, 137, 138, 139, 140, 141, 142, 143, 144, 145, 146, 147, 148, 149, 150, 151, 152, 153, 154, 155, 156, 157, 158, 159, 160, 161, 162, 163, 164, 165, 166, 167, 168, 169, 170, 171, 172, 173, 174, 175, 176, 177, 178, 179, 180, 181, 182, 183, 184, 185, 186, 187, 188, 189, 190, 191, 192, 193, 194, 195, 196, 197, 198, 199, 200],
      "LargestImagePixelValue": [318, 318, 318, 318, 321, 318, 319, 317, 320, 319, 320, 319, 320, 319, 319, 319, 318, 318, 320, 319, 317, 318, 318, 319, 318, 318, 320, 318, 319, 317, 319, 319, 320, 319, 318, 318, 318, 320, 320, 319, 318, 319, 319, 318, 321, 318, 319, 319, 319, 318, 320, 320, 319, 320, 319, 319, 318, 318, 318, 318, 318, 319, 320, 321, 319, 319, 318, 319, 319, 318, 319, 318, 319, 318, 318, 318, 319, 318, 318, 319, 319, 318, 319, 319, 318, 319, 319, 319, 319, 318, 318, 319, 319, 319, 319, 319, 318, 318, 319, 319, 318, 319, 318, 319, 318, 319, 319, 320, 319, 318, 318, 317, 318, 319, 320, 319, 317, 319, 319, 319, 319, 319, 320, 318, 319, 318, 318, 319, 318, 317, 319, 319, 319, 320, 318, 319, 320, 320, 318, 320, 317, 319, 319, 319, 319, 318, 319, 318, 319, 318, 319, 320, 319, 318, 319, 318, 318, 318, 319, 319, 319, 320, 318, 320, 319, 319, 320, 319, 319, 319, 320, 319, 318, 319, 318, 319, 318, 319, 319, 319, 318, 318, 318, 319, 318, 319, 318, 319, 317, 319, 319, 320, 318, 319, 318, 319, 318, 318, 319, 320],
      "WindowCenter": [268.0, 269.0, 268.0, 269.0, 268.0, 269.0, 268.0, 269.0, 268.0, 268.0, 268.0, 268.0, 268.0, 269.0, 269.0, 268.0, 269.0, 268.0, 269.0, 268.0, 269.0, 268.0, 269.0, 269.0, 269.0, 268.0, 269.0, 268.0, 268.0, 268.0, 269.0, 268.0, 269.0, 268.0, 268.0, 269.0, 269.0, 268.0, 268.0, 268.0, 268.0, 269.0, 268.0, 269.0, 269.0, 268.0, 269.0, 268.0, 268.0, 269.0, 268.0, 268.0, 268.0, 268.0, 268.0, 269.0, 269.0, 268.0, 268.0, 269.0, 269.0, 268.0, 269.0, 269.0, 269.0, 268.0, 269.0, 269.0, 268.0, 268.0, 269.0, 269.0, 268.0, 268.0, 269.0, 269.0, 268.0, 268.0, 268.0, 268.0, 268.0, 268.0, 268.0, 268.0, 269.0, 269.0, 268.0, 268.0, 268.0, 268.0, 269.0, 268.0, 268.0, 268.0, 269.0, 269.0, 268.0, 269.0, 268.0, 268.0, 268.0, 268.0, 268.0, 268.0, 268.0, 269.0, 268.0, 269.0, 268.0, 269.0, 268.0, 268.0, 268.0, 268.0, 268.0, 268.0, 268.0, 268.0, 269.0, 268.0, 268.0, 268.0, 269.0, 268.0, 268.0, 268.0, 269.0, 268.0, 268.0, 268.0, 268.0, 268.0, 268.0, 268.0, 268.0, 268.0, 268.0, 268.0, 268.0, 268.0, 268.0, 268.0, 268.0, 268.0, 268.0, 268.0, 268.0, 268.0, 268.0, 268.0, 268.0, 268.0, 268.0, 268.0, 268.0, 268.0, 268.0, 268.0, 268.0, 268.0, 268.0, 268.0, 268.0, 268.0, 268.0, 268.0, 268.0, 268.0, 268.0, 268.0, 268.0, 268.0, 268.0, 268.0, 268.0, 268.0, 268.0, 268.0, 268.0, 268.0, 268.0, 268.0, 268.0, 268.0, 268.0, 268.0, 268.0, 268.0, 268.0, 268.0, 268.0, 268.0, 268.0, 268.0, 268.0, 268.0, 268.0, 268.0, 268.0, 268.0],
      "WindowWidth": [590.0, 590.0, 590.0, 590.0, 590.0, 590.0, 590.0, 590.0, 590.0, 590.0, 590.0, 590.0, 590.0, 590.0, 590.0, 590.0, 590.0, 590.0, 590.0, 590.0, 590.0, 590.0, 590.0, 590.0, 590.0, 590.0, 590.0, 590.0, 590.0, 590.0, 590.0, 590.0, 590.0, 590.0, 590.0, 590.0, 590.0, 590.0, 590.0, 590.0, 590.0, 590.0, 590.0, 590.0, 590.0, 590.0, 590.0, 590.0, 590.0, 590.0, 590.0, 590.0, 590.0, 590.0, 589.0, 590.0, 590.0, 590.0, 590.0, 590.0, 590.0, 590.0, 590.0, 590.0, 590.0, 590.0, 590.0, 590.0, 590.0, 590.0, 590.0, 590.0, 590.0, 589.0, 590.0, 590.0, 590.0, 590.0, 590.0, 590.0, 590.0, 590.0, 590.0, 590.0, 590.0, 590.0, 589.0, 590.0, 590.0, 590.0, 590.0, 589.0, 590.0, 590.0, 590.0, 590.0, 590.0, 590.0, 590.0, 590.0, 590.0, 590.0, 590.0, 590.0, 590.0, 590.0, 590.0, 590.0, 590.0, 590.0, 590.0, 590.0, 590.0, 589.0, 590.0, 589.0, 589.0, 590.0, 590.0, 590.0, 590.0, 589.0, 590.0, 590.0, 589.0, 589.0, 590.0, 590.0, 590.0, 590.0, 590.0, 590.0, 589.0, 589.0, 590.0, 590.0, 589.0, 589.0, 590.0, 589.0, 589.0, 590.0, 590.0, 590.0, 590.0, 589.0, 589.0, 589.0, 590.0, 590.0, 590.0, 590.0, 589.0, 590.0, 590.0, 589.0, 590.0, 590.0, 590.0, 590.0, 590.0, 590.0, 589.0, 590.0, 590.0, 590.0, 589.0, 590.0, 589.0, 589.0, 590.0, 589.0, 590.0, 589.0, 590.0, 589.0, 590.0, 590.0, 589.0, 589.0, 590.0, 590.0, 589.0, 590.0, 589.0, 590.0, 590.0, 590.0, 590.0, 589.0, 589.0, 589.0, 590.0, 589.0, 589.0, 589.0, 589.0, 589.0, 589.0, 589.0]
    },
    "slices": {}
  }
}