{
  "AcquisitionMatrixPE": 80,
  "AcquisitionNumber": 1,
  "AcquisitionTime": "15:49:7.495000",
  "BandwidthPerPixelPhaseEncode": 25,
  "BaseResolution": 80,
  "BodyPartExamined": "BRAIN",
  "CoilCombinationMethod": "Sum of Squares",
  "ConsistencyInfo": "N4_VE11C_LATEST_20160120",
  "ConversionSoftware": "dcm2niix",
  "ConversionSoftwareVersion": "v1.0.20220720",
  "DerivedVendorReportedEchoSpacing": 0.0005,
  "DeviceSerialNumber": "66112",
  "DwellTime": 2.7e-06,
  "EchoTime": 0.03,
  "EchoTrainLength": 80,
  "EffectiveEchoSpacing": 0.0005,
  "FlipAngle": 77,
  "HeudiconvVersion": "0.13.1",
  "ImageOrientationPatientDICOM": [0.978376, -0.206832, 9.17772e-05, 0.196742, 0.930785, 0.308109],
  "ImageOrientationText": "Tra>Cor(17.6)>Sag(3.7)",
  "ImageType": [
    "ORIGINAL",
    "PRIMARY",
    "M",
    "ND",
    "NORM",
    "MOSAIC"
],
  "ImagingFrequency": 123.252,
  "InPlanePhaseEncodingDirectionDICOM": "COL",
  "InstitutionAddress": "Maynard 3,Hanover,NH,US,03755",
  "InstitutionName": "Dartmouth College - PBS",
  "InstitutionalDepartmentName": "Department",
  "MRAcquisitionType": "2D",
  "MagneticFieldStrength": 3,
  "Manufacturer": "Siemens",
  "ManufacturersModelName": "Prisma",
  "MatrixCoilMode": "SENSE",
  "Modality": "MR",
  "NonlinearGradientCorrection": false,
  "PartialFourier": 1,
  "PatientPosition": "HFS",
  "PercentPhaseFOV": 100,
  "PercentSampling": 100,
  "PhaseEncodingDirection": "j-",
  "PhaseEncodingSteps": 80,
  "PhaseResolution": 1,
  "PixelBandwidth": 2315,
  "ProcedureStepDescription": "dbic^QA",
  "ProtocolName": "func-bold_acq-32ch-77flip",
  "PulseSequenceDetails": "%SiemensSeq%\\ep2d_bold",
  "ReceiveCoilActiveElements": "HEA;HEP",
  "ReceiveCoilName": "Head_32",
  "ReconMatrixPE": 80,
  "RepetitionTime": 2,
  "SAR": 0.0436531,
  "ScanOptions": "FS",
  "ScanningSequence": "EP",
  "SequenceName": "*epfid2d1_80",
  "SequenceVariant": "SK",
  "SeriesDescription": "func-bold_acq-32ch-77flip",
  "SeriesNumber": 8,
  "ShimSetting": [4149, -7710, -7519, 223, -52, -25, -32, 62],
  "SliceThickness": 3.5,
  "SliceTiming": [0.99, 0, 1.055, 0.065, 1.1225, 0.1325, 1.1875, 0.1975, 1.2525, 0.265, 1.32, 0.33, 1.385, 0.395, 1.4525, 0.4625, 1.5175, 0.5275, 1.5825, 0.595, 1.65, 0.66, 1.715, 0.725, 1.7825, 0.7925, 1.8475, 0.8575, 1.9125, 0.925],
  "SoftwareVersions": "syngo MR E11",
  "SpacingBetweenSlices": 3.99,
  "StationName": "AWP66112",
  "TotalReadoutTime": 0.0395,
  "TxRefAmp": 226.492,
  "dcmmeta_affine": [
    [-2.935129404067993, 0.5902268290519714, 0.2546108663082123, 89.69772338867188],
    [0.6204962730407715, 2.792356014251709, 1.2026996612548828, -131.5872039794922],
    [0.00027533152024261653, -0.9243268966674805, 3.7958905696868896, -18.093643188476562],
    [0.0, 0.0, 0.0, 1.0]
],
  "dcmmeta_reorient_transform": [
    [0.0, -1.0, 0.0, 79.0],
    [1.0, 0.0, 0.0, 0.0],
    [0.0, 0.0, 1.0, 0.0],
    [0.0, 0.0, 0.0, 1.0]
],
  "dcmmeta_shape": [80, 80, 30, 200],
  "dcmmeta_slice_dim": 2,
  "dcmmeta_version": 0.6,
  "global": {
    "const": {
      "AccessionNumber": "qa",
      "AcquisitionMatrix": [80, 0, 0, 80],
      "AngioFlag": "N",
      "BitsAllocated": 16,
      "BitsStored": 12,
      "BodyPartExamined": "BRAIN",
      "Columns": 480,
      "EchoNumbers": 1,
      "EchoTime": 30.0,
      "EchoTrainLength": 80,
      "FlipAngle": 77.0,
      "HighBit": 11,
      "ImageOrientationPatient": [0.97837644814038, -0.2068320993008, 9.177717605e-05, 0.19674227448281, 0.93078533617017, 0.3081089667665],
      "ImagePositionPatient": [-841.39687402649, -523.38085632189, -276.03591381247],
      "ImageType": [
        "ORIGINAL",
        "PRIMARY",
        "M",
        "ND",
        "NORM",
        "MOSAIC"
],
      "ImagedNucleus": "1H",
      "ImagingFrequency": 123.25239,
      "InPlanePhaseEncodingDirection": "COL",
      "MRAcquisitionType": "2D",
      "MagneticFieldStrength": 3.0,
      "Manufacturer": "SIEMENS",
      "ManufacturerModelName": "Prisma",
      "Modality": "MR",
      "NumberOfAverages": 1.0,
      "NumberOfPhaseEncodingSteps": 80,
      "PercentPhaseFieldOfView": 100.0,
      "PercentSampling": 100.0,
      "PerformedProcedureStepStartTime": "152550.199000",
      "PhotometricInterpretation": "MONOCHROME2",
      "PixelBandwidth": 2315.0,
      "PixelRepresentation": 0,
      "PixelSpacing": [3.0, 3.0],
      "ProtocolName": "func-bold_acq-32ch-77flip",
      "RepetitionTime": 2000.0,
      "Rows": 480,
      "SAR": 0.04365312565554,
      "SamplesPerPixel": 1,
      "ScanOptions": "FS",
      "ScanningSequence": "EP",
      "SequenceName": "*epfid2d1_80",
      "SequenceVariant": "SK",
      "SeriesDescription": "func-bold_acq-32ch-77flip",
      "SeriesNumber": 8,
      "SeriesTime": "155003.746000",
      "SliceLocation": -51.153728091663,
      "SliceThickness": 3.5,
      "SmallestImagePixelValue": 0,
      "SoftwareVersions": "syngo MR E11",
      "SpacingBetweenSlices": 3.9899999153385,
      "SpecificCharacterSet": "ISO_IR 100",
      "StudyID": "12",
      "StudyTime": "152550.083000",
      "TransmitCoilName": "Body",
      "VariableFlipAngleFlag": "N",
      "WindowCenterWidthExplanation": "Algo1",
      "dBdt": 0.0},
    "slices": {}
  },
  "time": {
    "samples": {
      "AcquisitionNumber": [1, 2, 3, 4, 5, 6, 7, 8, 9, 10, 11, 12, 13, 14, 15, 16, 17, 18, 19, 20, 21, 22, 23, 24, 25, 26, 27, 28, 29, 30, 31, 32, 33, 34, 35, 36, 37, 38, 39, 40, 41, 42, 43, 44, 45, 46, 47, 48, 49, 50, 51, 52, 53, 54, 55, 56, 57, 58, 59, 60, 61, 62, 63, 64, 65, 66, 67, 68, 69, 70, 71, 72, 73, 74, 75, 76, 77, 78, 79, 80, 81, 82, 83, 84, 85, 86, 87, 88, 89, 90, 91, 92, 93, 94, 95, 96, 97, 98, 99, 100, 101, 102, 103, 104, 105, 106, 107, 108, 109, 110, 111, 112, 113, 114, 115, 116, 117, 118, 119, 120, 121, 122, 123, 124, 125, 126, 127, 128, 129, 130, 131, 132, 133, 134, 135, 136, 137, 138, 139, 140, 141, 142, 143, 144, 145, 146, 147, 148, 149, 150, 151, 152, 153, 154, 155, 156, 157, 158, 159, 160, 161, 162, 163, 164, 165, 166, 167, 168, 169, 170, 171, 172, 173, 174, 175, 176, 177, 178, 179, 180, 181, 182, 183, 184, 185, 186, 187, 188, 189, 190, 191, 192, 193, 194, 195, 196, 197, 198, 199, 200],
      "AcquisitionTime": ["154907.495000", "154909.495000", "154911.495000", "154913.495000", "154915.495000", "154917.495000", "154919.495000", "154921.495000", "154923.495000", "154925.495000", "154927.495000", "154929.495000", "154931.495000", "154933.495000", "154935.495000", "154937.495000", "154939.495000", "154941.495000", "154943.495000", "154945.495000", "154947.495000", "154949.495000", "154951.495000", "154953.495000", "154955.495000", "154957.495000", "154959.495000", "155001.495000", "155003.495000", "155005.495000", "155007.495000", "155009.495000", "155011.495000", "155013.495000", "155015.495000", "155017.495000", "155019.495000", "155021.495000", "155023.495000", "155025.495000", "155027.495000", "155029.495000", "155031.495000", "155033.495000", "155035.495000", "155037.495000", "155039.495000", "155041.495000", "155043.495000", "155045.495000", "155047.495000", "155049.495000", "155051.495000", "155053.495000", "155055.495000", "155057.495000", "155059.495000", "155101.495000", "155103.495000", "155105.495000", "155107.495000", "155109.495000", "155111.495000", "155113.495000", "155115.495000", "155117.495000", "155119.495000", "155121.495000", "155123.495000", "155125.495000", "155127.495000", "155129.495000", "155131.495000", "155133.495000", "155135.495000", "155137.495000", "155139.495000", "155141.495000", "155143.495000", "155145.495000", "155147.495000", "155149.495000", "155151.495000", "155153.495000", "155155.495000", "155157.495000", "155159.495000", "155201.495000", "155203.495000", "155205.495000", "155207.495000", "155209.495000", "155211.495000", "155213.495000", "155215.495000", "155217.495000", "155219.495000", "155221.495000", "155223.495000", "155225.495000", "155227.495000", "155229.495000", "155231.495000", "155233.495000", "155235.495000", "155237.495000", "155239.495000", "155241.495000", "155243.495000", "155245.495000", "155247.495000", "155249.495000", "155251.495000", "155253.495000", "155255.495000", "155257.495000", "155259.495000", "155301.495000", "155303.495000", "155305.495000", "155307.495000", "155309.495000", "155311.495000", "155313.495000", "155315.495000", "155317.495000", "155319.495000", "155321.495000", "155323.495000", "155325.495000", "155327.495000", "155329.495000", "155331.495000", "155333.495000", "155335.495000", "155337.495000", "155339.495000", "155341.495000", "155343.495000", "155345.495000", "155347.495000", "155349.495000", "155351.495000", "155353.495000", "155355.495000", "155357.495000", "155359.495000", "155401.495000", "155403.495000", "155405.495000", "155407.495000", "155409.495000", "155411.495000", "155413.495000", "155415.495000", "155417.495000", "155419.495000", "155421.495000", "155423.495000", "155425.495000", "155427.495000", "155429.495000", "155431.495000", "155433.495000", "155435.495000", "155437.495000", "155439.495000", "155441.495000", "155443.495000", "155445.495000", "155447.495000", "155449.495000", "155451.495000", "155453.495000", "155455.495000", "155457.495000", "155459.495000", "155501.495000", "155503.495000", "155505.495000", "155507.495000", "155509.495000", "155511.495000", "155513.495000", "155515.495000", "155517.495000", "155519.495000", "155521.495000", "155523.495000", "155525.495000", "155527.495000", "155529.495000", "155531.495000", "155533.495000", "155535.495000", "155537.495000", "155539.495000", "155541.495000", "155543.495000", "155545.495000"],
      "ContentTime": ["155003.749000", "155003.753000", "155003.755000", "155003.758000", "155003.760000", "155003.763000", "155003.765000", "155003.768000", "155003.770000", "155003.773000", "155003.776000", "155003.778000", "155003.781000", "155003.783000", "155003.786000", "155003.788000", "155003.791000", "155003.793000", "155003.796000", "155003.798000", "155003.801000", "155003.804000", "155003.806000", "155003.809000", "155003.811000", "155003.814000", "155003.816000", "155003.819000", "155043.743000", "155043.746000", "155043.749000", "155043.751000", "155043.754000", "155043.756000", "155043.759000", "155043.762000", "155043.764000", "155043.767000", "155043.791000", "155043.793000", "155043.796000", "155043.798000", "155043.801000", "155043.804000", "155043.806000", "155043.809000", "155043.811000", "155043.814000", "155123.744000", "155123.747000", "155123.750000", "155123.752000", "155123.755000", "155123.758000", "155123.760000", "155123.763000", "155123.765000", "155123.768000", "155123.790000", "155123.792000", "155123.795000", "155123.797000", "155123.800000", "155123.802000", "155123.805000", "155123.807000", "155123.810000", "155123.813000", "155203.744000", "155203.747000", "155203.750000", "155203.752000", "155203.755000", "155203.757000", "155203.760000", "155203.763000", "155203.765000", "155203.768000", "155203.770000", "155203.773000", "155203.775000", "155203.778000", "155203.780000", "155203.783000", "155203.786000", "155203.788000", "155203.791000", "155203.800000", "155243.744000", "155243.747000", "155243.750000", "155243.752000", "155243.755000", "155243.758000", "155243.760000", "155243.763000", "155243.765000", "155243.768000", "155243.770000", "155243.773000", "155243.775000", "155243.778000", "155243.780000", "155243.783000", "155243.786000", "155243.788000", "155243.791000", "155243.793000", "155323.745000", "155323.747000", "155323.750000", "155323.752000", "155323.755000", "155323.757000", "155323.760000", "155323.763000", "155323.765000", "155323.768000", "155323.770000", "155323.773000", "155323.775000", "155323.778000", "155323.781000", "155323.783000", "155323.786000", "155323.801000", "155323.804000", "155323.806000", "155403.744000", "155403.747000", "155403.750000", "155403.752000", "155403.755000", "155403.757000", "155403.760000", "155403.762000", "155403.765000", "155403.768000", "155403.770000", "155403.773000", "155403.775000", "155403.778000", "155403.781000", "155403.783000", "155403.786000", "155403.788000", "155403.791000", "155403.793000", "155443.744000", "155443.747000", "155443.750000", "155443.752000", "155443.755000", "155443.757000", "155443.760000", "155443.762000", "155443.765000", "155443.768000", "155443.770000", "155443.773000", "155443.775000", "155443.778000", "155443.780000", "155443.783000", "155443.786000", "155443.788000", "155443.791000", "155443.793000", "155523.743000", "155523.746000", "155523.749000", "155523.751000", "155523.754000", "155523.757000", "155523.759000", "155523.762000", "155523.764000", "155523.767000", "155523.809000", "155523.812000", "155523.814000", "155523.817000", "155523.819000", "155523.822000", "155523.824000", "155523.827000", "155523.829000", "155523.832000", "155547.495000", "155547.498000", "155547.501000", "155547.503000", "155547.506000", "155547.509000", "155547.511000", "155547.514000", "155547.516000", "155547.519000", "155547.521000", "155547.524000"],
      "InstanceCreationTime": ["155003.749000", "155003.753000", "155003.755000", "155003.758000", "155003.760000", "155003.763000", "155003.765000", "155003.768000", "155003.770000", "155003.773000", "155003.776000", "155003.778000", "155003.781000", "155003.783000", "155003.786000", "155003.788000", "155003.791000", "155003.793000", "155003.796000", "155003.798000", "155003.801000", "155003.804000", "155003.806000", "155003.809000", "155003.811000", "155003.814000", "155003.816000", "155003.819000", "155043.743000", "155043.746000", "155043.749000", "155043.751000", "155043.754000", "155043.756000", "155043.759000", "155043.762000", "155043.764000", "155043.767000", "155043.791000", "155043.793000", "155043.796000", "155043.798000", "155043.801000", "155043.804000", "155043.806000", "155043.809000", "155043.811000", "155043.814000", "155123.744000", "155123.747000", "155123.750000", "155123.752000", "155123.755000", "155123.758000", "155123.760000", "155123.763000", "155123.765000", "155123.768000", "155123.790000", "155123.792000", "155123.795000", "155123.797000", "155123.800000", "155123.802000", "155123.805000", "155123.807000", "155123.810000", "155123.813000", "155203.744000", "155203.747000", "155203.750000", "155203.752000", "155203.755000", "155203.757000", "155203.760000", "155203.763000", "155203.765000", "155203.768000", "155203.770000", "155203.773000", "155203.775000", "155203.778000", "155203.780000", "155203.783000", "155203.786000", "155203.788000", "155203.791000", "155203.800000", "155243.744000", "155243.747000", "155243.750000", "155243.752000", "155243.755000", "155243.758000", "155243.760000", "155243.763000", "155243.765000", "155243.768000", "155243.770000", "155243.773000", "155243.775000", "155243.778000", "155243.780000", "155243.783000", "155243.786000", "155243.788000", "155243.791000", "155243.793000", "155323.745000", "155323.747000", "155323.750000", "155323.752000", "155323.755000", "155323.757000", "155323.760000", "155323.763000", "155323.765000", "155323.768000", "155323.770000", "155323.773000", "155323.775000", "155323.778000", "155323.781000", "155323.783000", "155323.786000", "155323.801000", "155323.804000", "155323.806000", "155403.744000", "155403.747000", "155403.750000", "155403.752000", "155403.755000", "155403.757000", "155403.760000", "155403.762000", "155403.765000", "155403.768000", "155403.770000", "155403.773000", "155403.775000", "155403.778000", "155403.781000", "155403.783000", "155403.786000", "155403.788000", "155403.791000", "155403.793000", "155443.744000", "155443.747000", "155443.750000", "155443.752000", "155443.755000", "155443.757000", "155443.760000", "155443.762000", "155443.765000", "155443.768000", "155443.770000", "155443.773000", "155443.775000", "155443.778000", "155443.780000", "155443.783000", "155443.786000", "155443.788000", "155443.791000", "155443.793000", "155523.743000", "155523.746000", "155523.749000", "155523.751000", "155523.754000", "155523.757000", "155523.759000", "155523.762000", "155523.764000", "155523.767000", "155523.809000", "155523.812000", "155523.814000", "155523.817000", "155523.819000", "155523.822000", "155523.824000", "155523.827000", "155523.829000", "155523.832000", "155547.495000", "155547.498000", "155547.501000", "155547.503000", "155547.506000", "155547.509000", "155547.511000", "155547.514000", "155547.516000", "155547.519000", "155547.521000", "155547.524000"],
      "InstanceNumber": [1, 2, 3, 4, 5, 6, 7, 8, 9, 10, 11, 12, 13, 14, 15, 16, 17, 18, 19, 20, 21, 22, 23, 24, 25, 26, 27, 28, 29, 30, 31, 32, 33, 34, 35, 36, 37, 38, 39, 40, 41, 42, 43, 44, 45, 46, 47, 48, 49, 50, 51, 52, 53, 54, 55, 56, 57, 58, 59, 60, 61, 62, 63, 64, 65, 66, 67, 68, 69, 70, 71, 72, 73, 74, 75, 76, 77, 78, 79, 80, 81, 82, 83, 84, 85, 86, 87, 88, 89, 90, 91, 92, 93, 94, 95, 96, 97, 98, 99, 100, 101, 102, 103, 104, 105, 106, 107, 108, 109, 110, 111, 112, 113, 114, 115, 116, 117, 118, 119, 120, 121, 122, 123, 124, 125, 126, 127, 128, 129, 130, 131, 132, 133, 134, 135, 136, 137, 138, 139, 140, 141, 142, 143, 144, 145, 146, 147, 148, 149, 150, 151, 152, 153, 154, 155, 156, 157, 158, 159, 160, 161, 162, 163, 164, 165, 166, 167, 168, 169, 170, 171, 172, 173, 174, 175, 176, 177, 178, 179, 180, 181, 182, 183, 184, 185, 186, 187, 188, 189, 190, 191, 192, 193, 194, 195, 196, 197, 198, 199, 200],
      "LargestImagePixelValue": [1887, 1884, 1887, 1885, 1887, 1888, 1887, 1886, 1885, 1888, 1886, 1887, 1887, 1885, 1887, 1884, 1886, 1887, 1887, 1885, 1886, 1885, 1886, 1885, 1888, 1885, 1886, 1886, 1886, 1885, 1886, 1886, 1885, 1886, 1887, 1887, 1886, 1888, 1885, 1886, 1885, 1887, 1885, 1885, 1886, 1887, 1886, 1885, 1884, 1885, 1884, 1886, 1885, 1887, 1886, 1883, 1885, 1885, 1884, 1887, 1887, 1886, 1885, 1885, 1886, 1886, 1887, 1887, 1886, 1885, 1887, 1886, 1887, 1886, 1887, 1885, 1884, 1886, 1887, 1886, 1886, 1885, 1885, 1885, 1887, 1884, 1888, 1885, 1888, 1887, 1887, 1884, 1887, 1885, 1887, 1886, 1886, 1888, 1886, 1887, 1886, 1886, 1886, 1888, 1886, 1885, 1887, 1885, 1883, 1885, 1887, 1887, 1885, 1887, 1886, 1887, 1888, 1887, 1887, 1887, 1889, 1887, 1888, 1889, 1889, 1887, 1888, 1889, 1887, 1889, 1889, 1887, 1888, 1887, 1884, 1888, 1887, 1887, 1888, 1887, 1888, 1887, 1887, 1885, 1887, 1886, 1889, 1887, 1886, 1888, 1887, 1888, 1889, 1887, 1886, 1888, 1888, 1888, 1888, 1886, 1888, 1888, 1889, 1888, 1888, 1887, 1888, 1887, 1888, 1889, 1887, 1888, 1888, 1887, 1887, 1888, 1888, 1889, 1891, 1889, 1889, 1886, 1887, 1890, 1888, 1888, 1888, 1887, 1888, 1889, 1887, 1889, 1886, 1888, 1888, 1889, 1888, 1889, 1887, 1888],
      "WindowCenter": [954.0, 954.0, 952.0, 954.0, 954.0, 952.0, 954.0, 953.0, 954.0, 954.0, 954.0, 953.0, 954.0, 954.0, 954.0, 952.0, 954.0, 954.0, 954.0, 954.0, 952.0, 952.0, 954.0, 952.0, 954.0, 954.0, 954.0, 954.0, 953.0, 952.0, 952.0, 954.0, 952.0, 954.0, 954.0, 954.0, 954.0, 954.0, 954.0, 954.0, 954.0, 954.0, 954.0, 953.0, 953.0, 954.0, 954.0, 952.0, 953.0, 953.0, 954.0, 952.0, 954.0, 954.0, 952.0, 954.0, 952.0, 953.0, 954.0, 954.0, 954.0, 954.0, 953.0, 954.0, 954.0, 954.0, 952.0, 954.0, 952.0, 954.0, 953.0, 954.0, 954.0, 952.0, 954.0, 954.0, 954.0, 954.0, 952.0, 954.0, 954.0, 954.0, 953.0, 952.0, 954.0, 954.0, 954.0, 954.0, 954.0, 954.0, 952.0, 953.0, 952.0, 954.0, 954.0, 954.0, 954.0, 952.0, 954.0, 954.0, 952.0, 954.0, 954.0, 953.0, 952.0, 954.0, 953.0, 953.0, 953.0, 953.0, 954.0, 954.0, 954.0, 952.0, 954.0, 953.0, 953.0, 953.0, 953.0, 953.0, 954.0, 953.0, 954.0, 954.0, 954.0, 954.0, 953.0, 953.0, 952.0, 953.0, 953.0, 953.0, 953.0, 953.0, 953.0, 952.0, 953.0, 953.0, 953.0, 953.0, 953.0, 953.0, 953.0, 953.0, 953.0, 953.0, 953.0, 953.0, 953.0, 953.0, 953.0, 952.0, 953.0, 953.0, 953.0, 952.0, 953.0, 952.0, 953.0, 953.0, 952.0, 952.0, 953.0, 953.0, 953.0, 953.0, 953.0, 953.0, 953.0, 953.0, 952.0, 953.0, 953.0, 953.0, 953.0, 953.0, 953.0, 952.0, 953.0, 953.0, 953.0, 953.0, 953.0, 953.0, 953.0, 953.0, 952.0, 953.0, 953.0, 953.0, 953.0, 953.0, 953.0, 952.0, 953.0, 953.0, 952.0, 953.0, 952.0, 953.0],
      "WindowWidth": [2068.0, 2068.0, 2066.0, 2068.0, 2068.0, 2066.0, 2068.0, 2067.0, 2068.0, 2068.0, 2068.0, 2067.0, 2068.0, 2068.0, 2068.0, 2066.0, 2068.0, 2068.0, 2068.0, 2068.0, 2066.0, 2066.0, 2068.0, 2066.0, 2068.0, 2068.0, 2068.0, 2068.0, 2068.0, 2066.0, 2066.0, 2068.0, 2067.0, 2068.0, 2068.0, 2068.0, 2068.0, 2068.0, 2068.0, 2068.0, 2068.0, 2068.0, 2068.0, 2068.0, 2068.0, 2068.0, 2068.0, 2067.0, 2067.0, 2067.0, 2068.0, 2066.0, 2068.0, 2068.0, 2067.0, 2068.0, 2067.0, 2068.0, 2068.0, 2068.0, 2068.0, 2068.0, 2067.0, 2068.0, 2068.0, 2068.0, 2067.0, 2068.0, 2066.0, 2068.0, 2067.0, 2068.0, 2068.0, 2067.0, 2068.0, 2067.0, 2068.0, 2068.0, 2067.0, 2068.0, 2067.0, 2067.0, 2067.0, 2066.0, 2067.0, 2067.0, 2068.0, 2067.0, 2068.0, 2067.0, 2067.0, 2067.0, 2066.0, 2067.0, 2068.0, 2068.0, 2067.0, 2066.0, 2068.0, 2067.0, 2066.0, 2067.0, 2067.0, 2067.0, 2066.0, 2067.0, 2067.0, 2068.0, 2067.0, 2068.0, 2067.0, 2068.0, 2068.0, 2067.0, 2068.0, 2068.0, 2067.0, 2068.0, 2067.0, 2067.0, 2067.0, 2067.0, 2068.0, 2068.0, 2068.0, 2068.0, 2068.0, 2067.0, 2066.0, 2067.0, 2068.0, 2067.0, 2067.0, 2067.0, 2067.0, 2066.0, 2067.0, 2068.0, 2067.0, 2067.0, 2068.0, 2067.0, 2067.0, 2067.0, 2067.0, 2066.0, 2067.0, 2067.0, 2066.0, 2067.0, 2067.0, 2066.0, 2067.0, 2067.0, 2067.0, 2066.0, 2067.0, 2066.0, 2067.0, 2067.0, 2066.0, 2066.0, 2068.0, 2067.0, 2067.0, 2067.0, 2067.0, 2067.0, 2066.0, 2067.0, 2066.0, 2066.0, 2067.0, 2067.0, 2067.0, 2067.0, 2067.0, 2066.0, 2067.0, 2067.0, 2067.0, 2067.0, 2067.0, 2068.0, 2067.0, 2067.0, 2066.0, 2067.0, 2067.0, 2068.0, 2068.0, 2067.0, 2067.0, 2066.0, 2067.0, 2067.0, 2066.0, 2067.0, 2066.0, 2067.0]
    },
    "slices": {}
  }
}