{
  "AcquisitionMatrixPE": 80,
  "AcquisitionNumber": 1,
  "AcquisitionTime": "10:07:33.097500",
  "BandwidthPerPixelPhaseEncode": 46.296,
  "BaseResolution": 80,
  "BodyPartExamined": "BRAIN",
  "CoilCombinationMethod": "Sum of Squares",
  "ConsistencyInfo": "N4_VE11E_LATEST_20181129",
  "ConversionSoftware": "dcm2niix",
  "ConversionSoftwareVersion": "v1.0.20220720",
  "DerivedVendorReportedEchoSpacing": 0.000540003,
  "DeviceSerialNumber": "66112",
  "DwellTime": 2.7e-06,
  "EchoTime": 0.035,
  "EchoTrainLength": 39,
  "EffectiveEchoSpacing": 0.000270002,
  "FlipAngle": 90,
  "HeudiconvVersion": "0.13.1",
  "ImageOrientationPatientDICOM": [0.98804, 0.154045, 0.00689135, -0.148898, 0.9415, 0.302336],
  "ImageOrientationText": "Tra>Cor(17.5)>Sag(-2.3)",
  "ImageType": [
    "ORIGINAL",
    "PRIMARY",
    "M",
    "ND",
    "NORM",
    "MOSAIC"
],
  "ImagingFrequency": 123.259,
  "InPlanePhaseEncodingDirectionDICOM": "COL",
  "InstitutionAddress": "Maynard 3,Hanover,NH,US,03755",
  "InstitutionName": "Dartmouth College - PBS",
  "InstitutionalDepartmentName": "Department",
  "MRAcquisitionType": "2D",
  "MagneticFieldStrength": 3,
  "Manufacturer": "Siemens",
  "ManufacturersModelName": "Prisma",
  "Modality": "MR",
  "MultibandAccelerationFactor": 4,
  "NonlinearGradientCorrection": false,
  "ParallelReductionFactorInPlane": 2,
  "PartialFourier": 1,
  "PatientPosition": "HFS",
  "PercentPhaseFOV": 100,
  "PercentSampling": 100,
  "PhaseEncodingDirection": "j-",
  "PhaseEncodingSteps": 79,
  "PhaseResolution": 1,
  "PixelBandwidth": 2315,
  "ProcedureStepDescription": "dbic^QA",
  "ProtocolName": "func-bold_task-rest_acq-p2-s4-3.5mm",
  "PulseSequenceDetails": "%SiemensSeq%\\ep2d_bold",
  "ReceiveCoilActiveElements": "HEA;HEP",
  "ReceiveCoilName": "Head_32",
  "ReconMatrixPE": 80,
  "RefLinesPE": 24,
  "RepetitionTime": 2,
  "SAR": 0.0176457,
  "ScanOptions": "FS",
  "ScanningSequence": "EP",
  "SequenceName": "*epfid2d1_80",
  "SequenceVariant": "SK",
  "SeriesDescription": "func-bold_task-rest_acq-p2-s4-3.5mm",
  "SeriesNumber": 6,
  "ShimSetting": [4219, -7742, -7499, -42, -123, -32, -13, 66],
  "SliceThickness": 3.5,
  "SliceTiming": [1.485, 0, 0.99, 0.2475, 1.2375, 0.7425, 1.7325, 0.495, 1.485, 0, 0.99, 0.2475, 1.2375, 0.7425, 1.7325, 0.495, 1.485, 0, 0.99, 0.2475, 1.2375, 0.7425, 1.7325, 0.495, 1.485, 0, 0.99, 0.2475, 1.2375, 0.7425, 1.7325, 0.495],
  "SoftwareVersions": "syngo MR E11",
  "SpacingBetweenSlices": 3.99,
  "StationName": "AWP66112",
  "TaskName": "rest",
  "TotalReadoutTime": 0.0213301,
  "TxRefAmp": 222.912,
  "dcmmeta_affine": [
    [-2.9641194343566895, -0.4466935098171234, -0.15994001924991608, 139.83978271484375],
    [-0.462135374546051, 2.8244998455047607, 1.1959879398345947, -110.83098602294922],
    [0.020674055442214012, -0.9070087671279907, 3.8031740188598633, -27.70197868347168],
    [0.0, 0.0, 0.0, 1.0]
],
  "dcmmeta_reorient_transform": [
    [0.0, -1.0, 0.0, 79.0],
    [1.0, 0.0, 0.0, 0.0],
    [0.0, 0.0, 1.0, 0.0],
    [0.0, 0.0, 0.0, 1.0]
],
  "dcmmeta_shape": [80, 80, 32, 200],
  "dcmmeta_slice_dim": 2,
  "dcmmeta_version": 0.6,
  "global": {
    "const": {
      "AccessionNumber": "qa",
      "AcquisitionMatrix": [80, 0, 0, 80],
      "AngioFlag": "N",
      "BitsAllocated": 16,
      "BitsStored": 12,
      "BodyPartExamined": "BRAIN",
      "Columns": 480,
      "EchoNumbers": 1,
      "EchoTime": 35.0,
      "EchoTrainLength": 39,
      "FlipAngle": 90.0,
      "HighBit": 11,
      "ImageOrientationPatient": [0.98803978109286, 0.15404512406157, 0.00689135188711, -0.1488978380049, 0.94149998305032, 0.30233626271704],
      "ImagePositionPatient": [-608.03616406735, -769.6315731899, -284.89224219516],
      "ImageType": [
        "ORIGINAL",
        "PRIMARY",
        "M",
        "ND",
        "NORM",
        "MOSAIC"
],
      "ImagedNucleus": "1H",
      "ImagingFrequency": 123.25911,
      "InPlanePhaseEncodingDirection": "COL",
      "MRAcquisitionType": "2D",
      "MagneticFieldStrength": 3.0,
      "Manufacturer": "SIEMENS",
      "ManufacturerModelName": "Prisma",
      "Modality": "MR",
      "NumberOfAverages": 1.0,
      "NumberOfPhaseEncodingSteps": 79,
      "PercentPhaseFieldOfView": 100.0,
      "PercentSampling": 100.0,
      "PerformedProcedureStepStartTime": "095353.029000",
      "PhotometricInterpretation": "MONOCHROME2",
      "PixelBandwidth": 2315.0,
      "PixelRepresentation": 0,
      "PixelSpacing": [3.0, 3.0],
      "ProtocolName": "func-bold_task-rest_acq-p2-s4-3.5mm",
      "RepetitionTime": 2000.0,
      "Rows": 480,
      "SAR": 0.01764567872709,
      "SamplesPerPixel": 1,
      "ScanOptions": "FS",
      "ScanningSequence": "EP",
      "SequenceName": "*epfid2d1_80",
      "SequenceVariant": "SK",
      "SeriesDescription": "func-bold_task-rest_acq-p2-s4-3.5mm",
      "SeriesNumber": 6,
      "SeriesTime": "100802.615000",
      "SliceLocation": -65.231567107168,
      "SliceThickness": 3.5,
      "SmallestImagePixelValue": 0,
      "SoftwareVersions": "syngo MR E11",
      "SpacingBetweenSlices": 3.9899999870013,
      "SpecificCharacterSet": "ISO_IR 100",
      "StudyID": "19",
      "StudyTime": "095352.971000",
      "TransmitCoilName": "Body",
      "VariableFlipAngleFlag": "N",
      "WindowCenterWidthExplanation": "Algo1"
    },
    "slices": {}
  },
  "time": {
    "samples": {
      "AcquisitionNumber": [1, 2, 3, 4, 5, 6, 7, 8, 9, 10, 11, 12, 13, 14, 15, 16, 17, 18, 19, 20, 21, 22, 23, 24, 25, 26, 27, 28, 29, 30, 31, 32, 33, 34, 35, 36, 37, 38, 39, 40, 41, 42, 43, 44, 45, 46, 47, 48, 49, 50, 51, 52, 53, 54, 55, 56, 57, 58, 59, 60, 61, 62, 63, 64, 65, 66, 67, 68, 69, 70, 71, 72, 73, 74, 75, 76, 77, 78, 79, 80, 81, 82, 83, 84, 85, 86, 87, 88, 89, 90, 91, 92, 93, 94, 95, 96, 97, 98, 99, 100, 101, 102, 103, 104, 105, 106, 107, 108, 109, 110, 111, 112, 113, 114, 115, 116, 117, 118, 119, 120, 121, 122, 123, 124, 125, 126, 127, 128, 129, 130, 131, 132, 133, 134, 135, 136, 137, 138, 139, 140, 141, 142, 143, 144, 145, 146, 147, 148, 149, 150, 151, 152, 153, 154, 155, 156, 157, 158, 159, 160, 161, 162, 163, 164, 165, 166, 167, 168, 169, 170, 171, 172, 173, 174, 175, 176, 177, 178, 179, 180, 181, 182, 183, 184, 185, 186, 187, 188, 189, 190, 191, 192, 193, 194, 195, 196, 197, 198, 199, 200],
      "AcquisitionTime": ["100733.097500", "100735.097500", "100737.097500", "100739.097500", "100741.097500", "100743.097500", "100745.097500", "100747.097500", "100749.097500", "100751.097500", "100753.097500", "100755.097500", "100757.097500", "100759.097500", "100801.097500", "100803.097500", "100805.097500", "100807.097500", "100809.097500", "100811.097500", "100813.097500", "100815.097500", "100817.097500", "100819.097500", "100821.097500", "100823.097500", "100825.097500", "100827.097500", "100829.097500", "100831.097500", "100833.097500", "100835.097500", "100837.097500", "100839.097500", "100841.097500", "100843.097500", "100845.097500", "100847.097500", "100849.097500", "100851.097500", "100853.097500", "100855.097500", "100857.097500", "100859.097500", "100901.097500", "100903.097500", "100905.097500", "100907.097500", "100909.097500", "100911.097500", "100913.097500", "100915.097500", "100917.097500", "100919.097500", "100921.097500", "100923.097500", "100925.097500", "100927.097500", "100929.097500", "100931.097500", "100933.097500", "100935.097500", "100937.097500", "100939.097500", "100941.097500", "100943.097500", "100945.097500", "100947.097500", "100949.097500", "100951.097500", "100953.097500", "100955.097500", "100957.097500", "100959.097500", "101001.097500", "101003.097500", "101005.097500", "101007.097500", "101009.097500", "101011.097500", "101013.097500", "101015.097500", "101017.097500", "101019.097500", "101021.097500", "101023.097500", "101025.097500", "101027.097500", "101029.097500", "101031.097500", "101033.097500", "101035.097500", "101037.097500", "101039.097500", "101041.097500", "101043.097500", "101045.097500", "101047.097500", "101049.097500", "101051.097500", "101053.097500", "101055.097500", "101057.097500", "101059.097500", "101101.097500", "101103.097500", "101105.097500", "101107.097500", "101109.097500", "101111.097500", "101113.097500", "101115.097500", "101117.097500", "101119.097500", "101121.097500", "101123.097500", "101125.097500", "101127.097500", "101129.097500", "101131.097500", "101133.097500", "101135.097500", "101137.097500", "101139.097500", "101141.097500", "101143.097500", "101145.097500", "101147.097500", "101149.097500", "101151.097500", "101153.097500", "101155.097500", "101157.097500", "101159.097500", "101201.097500", "101203.097500", "101205.097500", "101207.097500", "101209.097500", "101211.097500", "101213.097500", "101215.097500", "101217.097500", "101219.097500", "101221.097500", "101223.097500", "101225.097500", "101227.097500", "101229.097500", "101231.097500", "101233.097500", "101235.097500", "101237.097500", "101239.097500", "101241.097500", "101243.097500", "101245.097500", "101247.097500", "101249.097500", "101251.097500", "101253.097500", "101255.097500", "101257.097500", "101259.097500", "101301.097500", "101303.097500", "101305.097500", "101307.097500", "101309.097500", "101311.097500", "101313.097500", "101315.097500", "101317.097500", "101319.097500", "101321.097500", "101323.097500", "101325.097500", "101327.097500", "101329.097500", "101331.097500", "101333.097500", "101335.097500", "101337.097500", "101339.097500", "101341.097500", "101343.097500", "101345.097500", "101347.097500", "101349.097500", "101351.097500", "101353.097500", "101355.097500", "101357.097500", "101359.097500", "101401.097500", "101403.097500", "101405.097500", "101407.097500", "101409.097500", "101411.097500"],
      "ContentTime": ["100802.618000", "100802.621000", "100802.623000", "100802.626000", "100802.628000", "100802.630000", "100802.633000", "100802.635000", "100802.637000", "100802.640000", "100802.642000", "100802.644000", "100802.647000", "100802.649000", "100842.613000", "100842.616000", "100842.618000", "100842.620000", "100842.629000", "100842.632000", "100842.635000", "100842.637000", "100842.640000", "100842.642000", "100842.644000", "100842.647000", "100842.649000", "100842.651000", "100842.654000", "100842.656000", "100842.658000", "100842.661000", "100842.663000", "100842.665000", "100922.613000", "100922.616000", "100922.618000", "100922.621000", "100922.623000", "100922.625000", "100922.628000", "100922.630000", "100922.633000", "100922.635000", "100922.637000", "100922.640000", "100922.642000", "100922.644000", "100922.647000", "100922.650000", "100922.652000", "100922.656000", "100922.658000", "100922.660000", "101002.614000", "101002.625000", "101002.627000", "101002.629000", "101002.632000", "101002.634000", "101002.636000", "101002.639000", "101002.641000", "101002.643000", "101002.646000", "101002.648000", "101002.650000", "101002.653000", "101002.655000", "101002.658000", "101002.660000", "101002.662000", "101002.665000", "101002.667000", "101042.613000", "101042.616000", "101042.618000", "101042.620000", "101042.623000", "101042.625000", "101042.627000", "101042.629000", "101042.632000", "101042.634000", "101042.645000", "101042.647000", "101042.650000", "101042.652000", "101042.655000", "101042.657000", "101042.659000", "101042.661000", "101042.664000", "101042.666000", "101122.613000", "101122.616000", "101122.618000", "101122.620000", "101122.623000", "101122.625000", "101122.627000", "101122.630000", "101122.632000", "101122.634000", "101122.637000", "101122.639000", "101122.648000", "101122.650000", "101122.653000", "101122.655000", "101122.657000", "101122.659000", "101122.662000", "101122.664000", "101202.613000", "101202.616000", "101202.618000", "101202.620000", "101202.623000", "101202.625000", "101202.627000", "101202.630000", "101202.632000", "101202.634000", "101202.637000", "101202.639000", "101202.641000", "101202.653000", "101202.655000", "101202.658000", "101202.660000", "101202.662000", "101202.665000", "101202.676000", "101242.613000", "101242.616000", "101242.618000", "101242.620000", "101242.623000", "101242.625000", "101242.627000", "101242.630000", "101242.632000", "101242.634000", "101242.637000", "101242.639000", "101242.641000", "101242.643000", "101242.646000", "101242.648000", "101242.650000", "101242.653000", "101242.655000", "101242.657000", "101322.614000", "101322.616000", "101322.618000", "101322.621000", "101322.623000", "101322.625000", "101322.628000", "101322.630000", "101322.633000", "101322.635000", "101322.637000", "101322.639000", "101322.642000", "101322.644000", "101322.646000", "101322.649000", "101322.652000", "101322.654000", "101322.657000", "101322.659000", "101402.613000", "101402.616000", "101402.618000", "101402.620000", "101402.623000", "101402.625000", "101402.627000", "101402.630000", "101402.632000", "101402.635000", "101402.637000", "101402.639000", "101402.642000", "101402.644000", "101402.646000", "101402.649000", "101402.651000", "101402.654000", "101402.656000", "101402.658000", "101412.621000", "101412.623000", "101412.626000", "101412.628000", "101412.631000", "101412.633000"],
      "InstanceCreationTime": ["100802.618000", "100802.621000", "100802.623000", "100802.626000", "100802.628000", "100802.630000", "100802.633000", "100802.635000", "100802.637000", "100802.640000", "100802.642000", "100802.644000", "100802.647000", "100802.649000", "100842.613000", "100842.616000", "100842.618000", "100842.620000", "100842.629000", "100842.632000", "100842.635000", "100842.637000", "100842.640000", "100842.642000", "100842.644000", "100842.647000", "100842.649000", "100842.651000", "100842.654000", "100842.656000", "100842.658000", "100842.661000", "100842.663000", "100842.665000", "100922.613000", "100922.616000", "100922.618000", "100922.621000", "100922.623000", "100922.625000", "100922.628000", "100922.630000", "100922.633000", "100922.635000", "100922.637000", "100922.640000", "100922.642000", "100922.644000", "100922.647000", "100922.650000", "100922.652000", "100922.656000", "100922.658000", "100922.660000", "101002.614000", "101002.625000", "101002.627000", "101002.629000", "101002.632000", "101002.634000", "101002.636000", "101002.639000", "101002.641000", "101002.643000", "101002.646000", "101002.648000", "101002.650000", "101002.653000", "101002.655000", "101002.658000", "101002.660000", "101002.662000", "101002.665000", "101002.667000", "101042.613000", "101042.616000", "101042.618000", "101042.620000", "101042.623000", "101042.625000", "101042.627000", "101042.629000", "101042.632000", "101042.634000", "101042.645000", "101042.647000", "101042.650000", "101042.652000", "101042.655000", "101042.657000", "101042.659000", "101042.661000", "101042.664000", "101042.666000", "101122.613000", "101122.616000", "101122.618000", "101122.620000", "101122.623000", "101122.625000", "101122.627000", "101122.630000", "101122.632000", "101122.634000", "101122.637000", "101122.639000", "101122.648000", "101122.650000", "101122.653000", "101122.655000", "101122.657000", "101122.659000", "101122.662000", "101122.664000", "101202.613000", "101202.616000", "101202.618000", "101202.620000", "101202.623000", "101202.625000", "101202.627000", "101202.630000", "101202.632000", "101202.634000", "101202.637000", "101202.639000", "101202.641000", "101202.653000", "101202.655000", "101202.658000", "101202.660000", "101202.662000", "101202.665000", "101202.676000", "101242.613000", "101242.616000", "101242.618000", "101242.620000", "101242.623000", "101242.625000", "101242.627000", "101242.630000", "101242.632000", "101242.634000", "101242.637000", "101242.639000", "101242.641000", "101242.643000", "101242.646000", "101242.648000", "101242.650000", "101242.653000", "101242.655000", "101242.657000", "101322.614000", "101322.616000", "101322.618000", "101322.621000", "101322.623000", "101322.625000", "101322.628000", "101322.630000", "101322.633000", "101322.635000", "101322.637000", "101322.639000", "101322.642000", "101322.644000", "101322.646000", "101322.649000", "101322.652000", "101322.654000", "101322.657000", "101322.659000", "101402.613000", "101402.616000", "101402.618000", "101402.620000", "101402.623000", "101402.625000", "101402.627000", "101402.630000", "101402.632000", "101402.635000", "101402.637000", "101402.639000", "101402.642000", "101402.644000", "101402.646000", "101402.649000", "101402.651000", "101402.654000", "101402.656000", "101402.658000", "101412.621000", "101412.623000", "101412.626000", "101412.628000", "101412.631000", "101412.633000"],
      "InstanceNumber": [1, 2, 3, 4, 5, 6, 7, 8, 9, 10, 11, 12, 13, 14, 15, 16, 17, 18, 19, 20, 21, 22, 23, 24, 25, 26, 27, 28, 29, 30, 31, 32, 33, 34, 35, 36, 37, 38, 39, 40, 41, 42, 43, 44, 45, 46, 47, 48, 49, 50, 51, 52, 53, 54, 55, 56, 57, 58, 59, 60, 61, 62, 63, 64, 65, 66, 67, 68, 69, 70, 71, 72, 73, 74, 75, 76, 77, 78, 79, 80, 81, 82, 83, 84, 85, 86, 87, 88, 89, 90, 91, 92, 93, 94, 95, 96, 97, 98, 99, 100, 101, 102, 103, 104, 105, 106, 107, 108, 109, 110, 111, 112, 113, 114, 115, 116, 117, 118, 119, 120, 121, 122, 123, 124, 125, 126, 127, 128, 129, 130, 131, 132, 133, 134, 135, 136, 137, 138, 139, 140, 141, 142, 143, 144, 145, 146, 147, 148, 149, 150, 151, 152, 153, 154, 155, 156, 157, 158, 159, 160, 161, 162, 163, 164, 165, 166, 167, 168, 169, 170, 171, 172, 173, 174, 175, 176, 177, 178, 179, 180, 181, 182, 183, 184, 185, 186, 187, 188, 189, 190, 191, 192, 193, 194, 195, 196, 197, 198, 199, 200],
      "LargestImagePixelValue": [2231, 2228, 2230, 2232, 2229, 2225, 2226, 2230, 2230, 2229, 2233, 2228, 2231, 2232, 2233, 2227, 2228, 2229, 2229, 2226, 2224, 2227, 2232, 2227, 2228, 2231, 2226, 2227, 2226, 2224, 2227, 2225, 2228, 2228, 2231, 2230, 2227, 2230, 2223, 2224, 2230, 2231, 2227, 2224, 2229, 2231, 2230, 2232, 2225, 2227, 2226, 2228, 2222, 2225, 2227, 2232, 2227, 2227, 2229, 2227, 2226, 2224, 2224, 2226, 2227, 2224, 2227, 2225, 2219, 2227, 2228, 2226, 2224, 2226, 2223, 2229, 2221, 2223, 2226, 2227, 2225, 2228, 2225, 2224, 2226, 2228, 2222, 2226, 2228, 2224, 2230, 2229, 2229, 2229, 2231, 2228, 2226, 2223, 2222, 2228, 2225, 2224, 2227, 2228, 2228, 2231, 2231, 2223, 2225, 2222, 2228, 2226, 2222, 2228, 2230, 2228, 2225, 2226, 2229, 2224, 2228, 2227, 2222, 2226, 2222, 2227, 2227, 2230, 2230, 2224, 2227, 2228, 2225, 2224, 2225, 2224, 2227, 2232, 2231, 2228, 2226, 2222, 2225, 2222, 2226, 2218, 2223, 2224, 2224, 2228, 2229, 2226, 2224, 2226, 2222, 2222, 2226, 2227, 2224, 2223, 2222, 2227, 2223, 2224, 2223, 2224, 2221, 2224, 2223, 2230, 2226, 2224, 2226, 2228, 2225, 2225, 2224, 2223, 2223, 2225, 2225, 2227, 2221, 2228, 2228, 2228, 2228, 2226, 2225, 2222, 2221, 2222, 2226, 2225, 2232, 2225, 2222, 2226, 2226, 2222],
      "WindowCenter": [962.0, 963.0, 962.0, 963.0, 964.0, 963.0, 962.0, 962.0, 962.0, 961.0, 962.0, 962.0, 962.0, 963.0, 963.0, 962.0, 962.0, 963.0, 962.0, 963.0, 962.0, 962.0, 961.0, 962.0, 962.0, 963.0, 963.0, 963.0, 963.0, 963.0, 963.0, 962.0, 963.0, 963.0, 962.0, 962.0, 961.0, 963.0, 961.0, 963.0, 963.0, 962.0, 963.0, 963.0, 963.0, 962.0, 963.0, 963.0, 963.0, 962.0, 963.0, 963.0, 962.0, 962.0, 963.0, 963.0, 961.0, 963.0, 963.0, 962.0, 962.0, 963.0, 963.0, 962.0, 962.0, 962.0, 962.0, 961.0, 962.0, 963.0, 962.0, 963.0, 962.0, 963.0, 961.0, 963.0, 962.0, 962.0, 963.0, 962.0, 962.0, 963.0, 962.0, 963.0, 962.0, 963.0, 962.0, 963.0, 963.0, 963.0, 962.0, 962.0, 963.0, 962.0, 962.0, 963.0, 962.0, 962.0, 962.0, 963.0, 963.0, 963.0, 962.0, 963.0, 962.0, 962.0, 962.0, 962.0, 962.0, 963.0, 963.0, 961.0, 963.0, 963.0, 962.0, 962.0, 962.0, 962.0, 963.0, 963.0, 961.0, 962.0, 963.0, 963.0, 963.0, 963.0, 963.0, 962.0, 963.0, 963.0, 963.0, 963.0, 962.0, 963.0, 962.0, 963.0, 963.0, 963.0, 963.0, 963.0, 963.0, 961.0, 962.0, 963.0, 962.0, 963.0, 962.0, 963.0, 963.0, 963.0, 963.0, 963.0, 961.0, 962.0, 962.0, 963.0, 963.0, 961.0, 963.0, 963.0, 962.0, 964.0, 963.0, 962.0, 963.0, 962.0, 963.0, 961.0, 963.0, 963.0, 962.0, 962.0, 962.0, 963.0, 962.0, 963.0, 963.0, 963.0, 962.0, 962.0, 962.0, 963.0, 963.0, 963.0, 963.0, 963.0, 963.0, 961.0, 963.0, 963.0, 963.0, 962.0, 963.0, 962.0, 963.0, 962.0, 962.0, 963.0, 963.0, 963.0],
      "WindowWidth": [2273.0, 2274.0, 2273.0, 2274.0, 2275.0, 2273.0, 2273.0, 2273.0, 2273.0, 2273.0, 2273.0, 2273.0, 2273.0, 2274.0, 2274.0, 2273.0, 2273.0, 2274.0, 2273.0, 2274.0, 2273.0, 2274.0, 2273.0, 2273.0, 2273.0, 2274.0, 2274.0, 2274.0, 2274.0, 2274.0, 2274.0, 2273.0, 2274.0, 2274.0, 2273.0, 2273.0, 2273.0, 2274.0, 2272.0, 2274.0, 2274.0, 2273.0, 2274.0, 2274.0, 2274.0, 2273.0, 2275.0, 2274.0, 2274.0, 2273.0, 2274.0, 2274.0, 2273.0, 2273.0, 2274.0, 2274.0, 2272.0, 2274.0, 2274.0, 2273.0, 2273.0, 2274.0, 2274.0, 2273.0, 2273.0, 2273.0, 2273.0, 2273.0, 2273.0, 2274.0, 2274.0, 2274.0, 2273.0, 2274.0, 2272.0, 2274.0, 2273.0, 2273.0, 2274.0, 2274.0, 2273.0, 2274.0, 2273.0, 2274.0, 2273.0, 2274.0, 2273.0, 2274.0, 2274.0, 2274.0, 2274.0, 2273.0, 2274.0, 2273.0, 2273.0, 2274.0, 2273.0, 2273.0, 2273.0, 2274.0, 2274.0, 2274.0, 2273.0, 2274.0, 2273.0, 2273.0, 2274.0, 2273.0, 2273.0, 2274.0, 2274.0, 2272.0, 2274.0, 2274.0, 2274.0, 2273.0, 2273.0, 2273.0, 2274.0, 2274.0, 2272.0, 2273.0, 2274.0, 2274.0, 2274.0, 2274.0, 2274.0, 2273.0, 2274.0, 2274.0, 2274.0, 2274.0, 2273.0, 2274.0, 2273.0, 2274.0, 2274.0, 2274.0, 2274.0, 2274.0, 2274.0, 2272.0, 2273.0, 2274.0, 2273.0, 2274.0, 2273.0, 2273.0, 2274.0, 2274.0, 2274.0, 2274.0, 2273.0, 2273.0, 2273.0, 2274.0, 2274.0, 2273.0, 2274.0, 2274.0, 2273.0, 2275.0, 2274.0, 2273.0, 2274.0, 2273.0, 2273.0, 2272.0, 2274.0, 2274.0, 2273.0, 2273.0, 2273.0, 2274.0, 2273.0, 2274.0, 2274.0, 2274.0, 2273.0, 2273.0, 2273.0, 2274.0, 2274.0, 2274.0, 2274.0, 2274.0, 2274.0, 2272.0, 2273.0, 2273.0, 2274.0, 2273.0, 2274.0, 2273.0, 2274.0, 2273.0, 2273.0, 2274.0, 2273.0, 2274.0]
    },
    "slices": {}
  }
}