{
  "AcquisitionMatrixPE": 80,
  "AcquisitionNumber": 1,
  "AcquisitionTime": "10:14:23.397500",
  "BandwidthPerPixelPhaseEncode": 25,
  "BaseResolution": 80,
  "BodyPartExamined": "BRAIN",
  "CoilCombinationMethod": "Sum of Squares",
  "ConsistencyInfo": "N4_VE11E_LATEST_20181129",
  "ConversionSoftware": "dcm2niix",
  "ConversionSoftwareVersion": "v1.0.20220720",
  "DerivedVendorReportedEchoSpacing": 0.0005,
  "DeviceSerialNumber": "66112",
  "DwellTime": 2.7e-06,
  "EchoTime": 0.03,
  "EchoTrainLength": 80,
  "EffectiveEchoSpacing": 0.0005,
  "FlipAngle": 77,
  "HeudiconvVersion": "0.13.1",
  "ImageOrientationPatientDICOM": [0.98804, 0.154045, 0.00689135, -0.148898, 0.9415, 0.302336],
  "ImageOrientationText": "Tra>Cor(17.5)>Sag(-2.3)",
  "ImageType": [
    "ORIGINAL",
    "PRIMARY",
    "M",
    "ND",
    "NORM",
    "MOSAIC"
],
  "ImagingFrequency": 123.259,
  "InPlanePhaseEncodingDirectionDICOM": "COL",
  "InstitutionAddress": "Maynard 3,Hanover,NH,US,03755",
  "InstitutionName": "Dartmouth College - PBS",
  "InstitutionalDepartmentName": "Department",
  "MRAcquisitionType": "2D",
  "MagneticFieldStrength": 3,
  "Manufacturer": "Siemens",
  "ManufacturersModelName": "Prisma",
  "MatrixCoilMode": "SENSE",
  "Modality": "MR",
  "NonlinearGradientCorrection": false,
  "PartialFourier": 1,
  "PatientPosition": "HFS",
  "PercentPhaseFOV": 100,
  "PercentSampling": 100,
  "PhaseEncodingDirection": "j-",
  "PhaseEncodingSteps": 80,
  "PhaseResolution": 1,
  "PixelBandwidth": 2315,
  "ProcedureStepDescription": "dbic^QA",
  "ProtocolName": "func-bold_fa-77",
  "PulseSequenceDetails": "%SiemensSeq%\\ep2d_bold",
  "ReceiveCoilActiveElements": "HEA;HEP",
  "ReceiveCoilName": "Head_32",
  "ReconMatrixPE": 80,
  "RepetitionTime": 2,
  "SAR": 0.0368747,
  "ScanOptions": "FS",
  "ScanningSequence": "EP",
  "SequenceName": "*epfid2d1_80",
  "SequenceVariant": "SK",
  "SeriesDescription": "func-bold_fa-77",
  "SeriesNumber": 7,
  "ShimSetting": [4219, -7741, -7498, -42, -123, -29, -13, 66],
  "SliceThickness": 3.5,
  "SliceTiming": [0.99, 0, 1.0575, 0.0675, 1.1225, 0.1325, 1.19, 0.2, 1.255, 0.265, 1.32, 0.33, 1.3875, 0.3975, 1.4525, 0.4625, 1.5175, 0.53, 1.585, 0.595, 1.65, 0.66, 1.7175, 0.7275, 1.7825, 0.7925, 1.8475, 0.86, 1.915, 0.925],
  "SoftwareVersions": "syngo MR E11",
  "SpacingBetweenSlices": 3.99,
  "StationName": "AWP66112",
  "TotalReadoutTime": 0.0395,
  "TxRefAmp": 222.912,
  "dcmmeta_affine": [
    [-2.9641194343566895, -0.4466935098171234, -0.15994003415107727, 139.12648010253906],
    [-0.462135374546051, 2.8244998455047607, 1.1959880590438843, -106.04698181152344],
    [0.020674055442214012, -0.9070087671279907, 3.8031740188598633, -23.03348731994629],
    [0.0, 0.0, 0.0, 1.0]
],
  "dcmmeta_reorient_transform": [
    [0.0, -1.0, 0.0, 79.0],
    [1.0, 0.0, 0.0, 0.0],
    [0.0, 0.0, 1.0, 0.0],
    [0.0, 0.0, 0.0, 1.0]
],
  "dcmmeta_shape": [80, 80, 30, 200],
  "dcmmeta_slice_dim": 2,
  "dcmmeta_version": 0.6,
  "global": {
    "const": {
      "AccessionNumber": "qa",
      "AcquisitionMatrix": [80, 0, 0, 80],
      "AngioFlag": "N",
      "BitsAllocated": 16,
      "BitsStored": 12,
      "BodyPartExamined": "BRAIN",
      "Columns": 480,
      "EchoNumbers": 1,
      "EchoTime": 30.0,
      "EchoTrainLength": 80,
      "FlipAngle": 77.0,
      "HighBit": 11,
      "ImageOrientationPatient": [0.98803978109286, 0.15404512406157, 0.00689135188711, -0.1488978380049, 0.94149998305032, 0.30233626271704],
      "ImagePositionPatient": [-607.32286455448, -774.41558121602, -280.22375083163],
      "ImageType": [
        "ORIGINAL",
        "PRIMARY",
        "M",
        "ND",
        "NORM",
        "MOSAIC"
],
      "ImagedNucleus": "1H",
      "ImagingFrequency": 123.25911,
      "InPlanePhaseEncodingDirection": "COL",
      "MRAcquisitionType": "2D",
      "MagneticFieldStrength": 3.0,
      "Manufacturer": "SIEMENS",
      "ManufacturerModelName": "Prisma",
      "Modality": "MR",
      "NumberOfAverages": 1.0,
      "NumberOfPhaseEncodingSteps": 80,
      "PercentPhaseFieldOfView": 100.0,
      "PercentSampling": 100.0,
      "PerformedProcedureStepStartTime": "095353.029000",
      "PhotometricInterpretation": "MONOCHROME2",
      "PixelBandwidth": 2315.0,
      "PixelRepresentation": 0,
      "PixelSpacing": [3.0, 3.0],
      "ProtocolName": "func-bold_fa-77",
      "RepetitionTime": 2000.0,
      "Rows": 480,
      "SAR": 0.03687470078342,
      "SamplesPerPixel": 1,
      "ScanOptions": "FS",
      "ScanningSequence": "EP",
      "SequenceName": "*epfid2d1_80",
      "SequenceVariant": "SK",
      "SeriesDescription": "func-bold_fa-77",
      "SeriesNumber": 7,
      "SeriesTime": "101502.700000",
      "SliceLocation": -59.319089437921,
      "SliceThickness": 3.5,
      "SmallestImagePixelValue": 0,
      "SoftwareVersions": "syngo MR E11",
      "SpacingBetweenSlices": 3.9900000487556,
      "SpecificCharacterSet": "ISO_IR 100",
      "StudyID": "19",
      "StudyTime": "095352.971000",
      "TransmitCoilName": "Body",
      "VariableFlipAngleFlag": "N",
      "WindowCenterWidthExplanation": "Algo1"
    },
    "slices": {}
  },
  "time": {
    "samples": {
      "AcquisitionNumber": [1, 2, 3, 4, 5, 6, 7, 8, 9, 10, 11, 12, 13, 14, 15, 16, 17, 18, 19, 20, 21, 22, 23, 24, 25, 26, 27, 28, 29, 30, 31, 32, 33, 34, 35, 36, 37, 38, 39, 40, 41, 42, 43, 44, 45, 46, 47, 48, 49, 50, 51, 52, 53, 54, 55, 56, 57, 58, 59, 60, 61, 62, 63, 64, 65, 66, 67, 68, 69, 70, 71, 72, 73, 74, 75, 76, 77, 78, 79, 80, 81, 82, 83, 84, 85, 86, 87, 88, 89, 90, 91, 92, 93, 94, 95, 96, 97, 98, 99, 100, 101, 102, 103, 104, 105, 106, 107, 108, 109, 110, 111, 112, 113, 114, 115, 116, 117, 118, 119, 120, 121, 122, 123, 124, 125, 126, 127, 128, 129, 130, 131, 132, 133, 134, 135, 136, 137, 138, 139, 140, 141, 142, 143, 144, 145, 146, 147, 148, 149, 150, 151, 152, 153, 154, 155, 156, 157, 158, 159, 160, 161, 162, 163, 164, 165, 166, 167, 168, 169, 170, 171, 172, 173, 174, 175, 176, 177, 178, 179, 180, 181, 182, 183, 184, 185, 186, 187, 188, 189, 190, 191, 192, 193, 194, 195, 196, 197, 198, 199, 200],
      "AcquisitionTime": ["101423.397500", "101425.397500", "101427.397500", "101429.397500", "101431.397500", "101433.397500", "101435.397500", "101437.397500", "101439.397500", "101441.397500", "101443.397500", "101445.397500", "101447.397500", "101449.397500", "101451.397500", "101453.397500", "101455.397500", "101457.397500", "101459.397500", "101501.397500", "101503.397500", "101505.397500", "101507.397500", "101509.397500", "101511.397500", "101513.397500", "101515.397500", "101517.397500", "101519.397500", "101521.397500", "101523.397500", "101525.397500", "101527.397500", "101529.397500", "101531.397500", "101533.397500", "101535.397500", "101537.397500", "101539.397500", "101541.397500", "101543.397500", "101545.397500", "101547.397500", "101549.397500", "101551.397500", "101553.397500", "101555.397500", "101557.397500", "101559.397500", "101601.397500", "101603.397500", "101605.397500", "101607.397500", "101609.397500", "101611.397500", "101613.397500", "101615.397500", "101617.397500", "101619.397500", "101621.397500", "101623.397500", "101625.397500", "101627.397500", "101629.397500", "101631.397500", "101633.397500", "101635.397500", "101637.397500", "101639.397500", "101641.397500", "101643.397500", "101645.397500", "101647.397500", "101649.397500", "101651.397500", "101653.397500", "101655.397500", "101657.397500", "101659.397500", "101701.397500", "101703.397500", "101705.397500", "101707.397500", "101709.397500", "101711.397500", "101713.397500", "101715.397500", "101717.397500", "101719.397500", "101721.397500", "101723.397500", "101725.397500", "101727.397500", "101729.397500", "101731.397500", "101733.397500", "101735.397500", "101737.397500", "101739.397500", "101741.397500", "101743.397500", "101745.397500", "101747.397500", "101749.397500", "101751.397500", "101753.397500", "101755.397500", "101757.397500", "101759.397500", "101801.397500", "101803.397500", "101805.397500", "101807.397500", "101809.397500", "101811.397500", "101813.397500", "101815.397500", "101817.397500", "101819.397500", "101821.397500", "101823.397500", "101825.397500", "101827.397500", "101829.397500", "101831.397500", "101833.397500", "101835.397500", "101837.397500", "101839.397500", "101841.397500", "101843.397500", "101845.397500", "101847.397500", "101849.397500", "101851.397500", "101853.397500", "101855.397500", "101857.397500", "101859.397500", "101901.397500", "101903.397500", "101905.397500", "101907.397500", "101909.397500", "101911.397500", "101913.397500", "101915.397500", "101917.397500", "101919.397500", "101921.397500", "101923.397500", "101925.397500", "101927.397500", "101929.397500", "101931.397500", "101933.397500", "101935.397500", "101937.397500", "101939.397500", "101941.397500", "101943.397500", "101945.397500", "101947.397500", "101949.397500", "101951.397500", "101953.397500", "101955.397500", "101957.397500", "101959.397500", "102001.397500", "102003.397500", "102005.397500", "102007.397500", "102009.397500", "102011.397500", "102013.397500", "102015.397500", "102017.397500", "102019.397500", "102021.397500", "102023.397500", "102025.397500", "102027.397500", "102029.397500", "102031.397500", "102033.397500", "102035.397500", "102037.397500", "102039.397500", "102041.397500", "102043.397500", "102045.397500", "102047.397500", "102049.397500", "102051.397500", "102053.397500", "102055.397500", "102057.397500", "102059.397500", "102101.397500"],
      "ContentTime": ["101502.703000", "101502.706000", "101502.708000", "101502.710000", "101502.713000", "101502.715000", "101502.717000", "101502.720000", "101502.722000", "101502.724000", "101502.726000", "101502.729000", "101502.731000", "101502.734000", "101502.736000", "101502.738000", "101502.740000", "101502.743000", "101502.745000", "101502.747000", "101542.698000", "101542.701000", "101542.703000", "101542.705000", "101542.708000", "101542.710000", "101542.712000", "101542.714000", "101542.717000", "101542.719000", "101542.721000", "101542.724000", "101542.726000", "101542.728000", "101542.730000", "101542.733000", "101542.735000", "101542.737000", "101542.739000", "101542.742000", "101622.698000", "101622.701000", "101622.703000", "101622.705000", "101622.708000", "101622.710000", "101622.712000", "101622.715000", "101622.717000", "101622.719000", "101622.721000", "101622.724000", "101622.726000", "101622.728000", "101622.730000", "101622.733000", "101622.735000", "101622.737000", "101622.740000", "101622.742000", "101702.699000", "101702.702000", "101702.704000", "101702.706000", "101702.709000", "101702.711000", "101702.713000", "101702.716000", "101702.718000", "101702.720000", "101702.722000", "101702.725000", "101702.727000", "101702.729000", "101702.732000", "101702.739000", "101702.741000", "101702.744000", "101702.746000", "101702.748000", "101742.698000", "101742.701000", "101742.703000", "101742.705000", "101742.708000", "101742.710000", "101742.713000", "101742.715000", "101742.717000", "101742.719000", "101742.722000", "101742.724000", "101742.726000", "101742.729000", "101742.731000", "101742.733000", "101742.735000", "101742.738000", "101742.740000", "101742.742000", "101802.698000", "101802.701000", "101802.703000", "101802.705000", "101802.708000", "101802.710000", "101802.712000", "101802.715000", "101802.717000", "101802.719000", "101842.698000", "101842.701000", "101842.703000", "101842.705000", "101842.708000", "101842.710000", "101842.712000", "101842.715000", "101842.717000", "101842.719000", "101842.722000", "101842.724000", "101842.726000", "101842.728000", "101842.731000", "101842.733000", "101842.735000", "101842.746000", "101842.748000", "101842.750000", "101922.699000", "101922.702000", "101922.704000", "101922.714000", "101922.716000", "101922.719000", "101922.721000", "101922.723000", "101922.726000", "101922.728000", "101922.730000", "101922.733000", "101922.735000", "101922.737000", "101922.739000", "101922.742000", "101922.744000", "101922.746000", "101922.776000", "101922.779000", "102002.698000", "102002.701000", "102002.703000", "102002.705000", "102002.708000", "102002.710000", "102002.712000", "102002.714000", "102002.717000", "102002.719000", "102002.721000", "102002.724000", "102002.726000", "102002.728000", "102002.731000", "102002.733000", "102002.735000", "102002.737000", "102002.740000", "102002.742000", "102042.698000", "102042.701000", "102042.703000", "102042.705000", "102042.708000", "102042.710000", "102042.712000", "102042.714000", "102042.717000", "102042.719000", "102042.721000", "102042.724000", "102042.726000", "102042.728000", "102042.730000", "102042.733000", "102042.735000", "102042.737000", "102042.740000", "102042.742000", "102102.467000", "102102.470000", "102102.472000", "102102.475000", "102102.477000", "102102.479000", "102102.481000", "102102.484000", "102102.486000", "102102.488000"],
      "InstanceCreationTime": ["101502.703000", "101502.706000", "101502.708000", "101502.710000", "101502.713000", "101502.715000", "101502.717000", "101502.720000", "101502.722000", "101502.724000", "101502.726000", "101502.729000", "101502.731000", "101502.734000", "101502.736000", "101502.738000", "101502.740000", "101502.743000", "101502.745000", "101502.747000", "101542.698000", "101542.701000", "101542.703000", "101542.705000", "101542.708000", "101542.710000", "101542.712000", "101542.714000", "101542.717000", "101542.719000", "101542.721000", "101542.724000", "101542.726000", "101542.728000", "101542.730000", "101542.733000", "101542.735000", "101542.737000", "101542.739000", "101542.742000", "101622.698000", "101622.701000", "101622.703000", "101622.705000", "101622.708000", "101622.710000", "101622.712000", "101622.715000", "101622.717000", "101622.719000", "101622.721000", "101622.724000", "101622.726000", "101622.728000", "101622.730000", "101622.733000", "101622.735000", "101622.737000", "101622.740000", "101622.742000", "101702.699000", "101702.702000", "101702.704000", "101702.706000", "101702.709000", "101702.711000", "101702.713000", "101702.716000", "101702.718000", "101702.720000", "101702.722000", "101702.725000", "101702.727000", "101702.729000", "101702.732000", "101702.739000", "101702.741000", "101702.744000", "101702.746000", "101702.748000", "101742.698000", "101742.701000", "101742.703000", "101742.705000", "101742.708000", "101742.710000", "101742.713000", "101742.715000", "101742.717000", "101742.719000", "101742.722000", "101742.724000", "101742.726000", "101742.729000", "101742.731000", "101742.733000", "101742.735000", "101742.738000", "101742.740000", "101742.742000", "101802.698000", "101802.701000", "101802.703000", "101802.705000", "101802.708000", "101802.710000", "101802.712000", "101802.715000", "101802.717000", "101802.719000", "101842.698000", "101842.701000", "101842.703000", "101842.705000", "101842.708000", "101842.710000", "101842.712000", "101842.715000", "101842.717000", "101842.719000", "101842.722000", "101842.724000", "101842.726000", "101842.728000", "101842.731000", "101842.733000", "101842.735000", "101842.746000", "101842.748000", "101842.750000", "101922.699000", "101922.702000", "101922.704000", "101922.714000", "101922.716000", "101922.719000", "101922.721000", "101922.723000", "101922.726000", "101922.728000", "101922.730000", "101922.733000", "101922.735000", "101922.737000", "101922.739000", "101922.742000", "101922.744000", "101922.746000", "101922.776000", "101922.779000", "102002.698000", "102002.701000", "102002.703000", "102002.705000", "102002.708000", "102002.710000", "102002.712000", "102002.714000", "102002.717000", "102002.719000", "102002.721000", "102002.724000", "102002.726000", "102002.728000", "102002.731000", "102002.733000", "102002.735000", "102002.737000", "102002.740000", "102002.742000", "102042.698000", "102042.701000", "102042.703000", "102042.705000", "102042.708000", "102042.710000", "102042.712000", "102042.714000", "102042.717000", "102042.719000", "102042.721000", "102042.724000", "102042.726000", "102042.728000", "102042.730000", "102042.733000", "102042.735000", "102042.737000", "102042.740000", "102042.742000", "102102.467000", "102102.470000", "102102.472000", "102102.475000", "102102.477000", "102102.479000", "102102.481000", "102102.484000", "102102.486000", "102102.488000"],
      "InstanceNumber": [1, 2, 3, 4, 5, 6, 7, 8, 9, 10, 11, 12, 13, 14, 15, 16, 17, 18, 19, 20, 21, 22, 23, 24, 25, 26, 27, 28, 29, 30, 31, 32, 33, 34, 35, 36, 37, 38, 39, 40, 41, 42, 43, 44, 45, 46, 47, 48, 49, 50, 51, 52, 53, 54, 55, 56, 57, 58, 59, 60, 61, 62, 63, 64, 65, 66, 67, 68, 69, 70, 71, 72, 73, 74, 75, 76, 77, 78, 79, 80, 81, 82, 83, 84, 85, 86, 87, 88, 89, 90, 91, 92, 93, 94, 95, 96, 97, 98, 99, 100, 101, 102, 103, 104, 105, 106, 107, 108, 109, 110, 111, 112, 113, 114, 115, 116, 117, 118, 119, 120, 121, 122, 123, 124, 125, 126, 127, 128, 129, 130, 131, 132, 133, 134, 135, 136, 137, 138, 139, 140, 141, 142, 143, 144, 145, 146, 147, 148, 149, 150, 151, 152, 153, 154, 155, 156, 157, 158, 159, 160, 161, 162, 163, 164, 165, 166, 167, 168, 169, 170, 171, 172, 173, 174, 175, 176, 177, 178, 179, 180, 181, 182, 183, 184, 185, 186, 187, 188, 189, 190, 191, 192, 193, 194, 195, 196, 197, 198, 199, 200],
      "LargestImagePixelValue": [2173, 2174, 2175, 2172, 2174, 2173, 2176, 2173, 2172, 2175, 2177, 2172, 2175, 2174, 2173, 2175, 2172, 2172, 2173, 2173, 2175, 2174, 2174, 2175, 2177, 2172, 2173, 2174, 2174, 2174, 2175, 2177, 2172, 2175, 2172, 2173, 2172, 2172, 2170, 2174, 2175, 2172, 2175, 2174, 2174, 2174, 2177, 2173, 2174, 2176, 2177, 2175, 2175, 2176, 2174, 2176, 2174, 2175, 2175, 2176, 2175, 2174, 2174, 2174, 2176, 2176, 2175, 2174, 2174, 2174, 2175, 2176, 2173, 2176, 2173, 2170, 2172, 2176, 2176, 2172, 2176, 2174, 2175, 2174, 2174, 2176, 2175, 2174, 2172, 2176, 2172, 2175, 2171, 2174, 2174, 2175, 2174, 2174, 2175, 2173, 2174, 2172, 2176, 2175, 2173, 2175, 2175, 2174, 2174, 2172, 2175, 2176, 2174, 2175, 2172, 2175, 2174, 2175, 2174, 2176, 2173, 2174, 2175, 2176, 2174, 2177, 2175, 2176, 2174, 2172, 2178, 2174, 2177, 2174, 2175, 2173, 2176, 2173, 2174, 2174, 2173, 2175, 2176, 2174, 2175, 2176, 2175, 2175, 2176, 2174, 2174, 2174, 2175, 2177, 2176, 2173, 2176, 2175, 2177, 2176, 2177, 2176, 2174, 2174, 2176, 2177, 2174, 2174, 2175, 2174, 2176, 2175, 2177, 2174, 2173, 2176, 2174, 2173, 2176, 2174, 2176, 2175, 2175, 2173, 2175, 2175, 2175, 2177, 2176, 2174, 2177, 2173, 2176, 2175, 2177, 2179, 2175, 2177, 2175, 2175],
      "WindowCenter": [1016.0, 1015.0, 1015.0, 1016.0, 1016.0, 1016.0, 1016.0, 1015.0, 1016.0, 1016.0, 1016.0, 1016.0, 1015.0, 1016.0, 1015.0, 1016.0, 1015.0, 1016.0, 1015.0, 1015.0, 1015.0, 1015.0, 1016.0, 1015.0, 1015.0, 1015.0, 1015.0, 1016.0, 1015.0, 1015.0, 1016.0, 1014.0, 1015.0, 1014.0, 1015.0, 1014.0, 1014.0, 1014.0, 1016.0, 1014.0, 1014.0, 1013.0, 1014.0, 1014.0, 1014.0, 1016.0, 1016.0, 1015.0, 1014.0, 1013.0, 1014.0, 1015.0, 1015.0, 1014.0, 1014.0, 1016.0, 1015.0, 1015.0, 1016.0, 1014.0, 1015.0, 1016.0, 1014.0, 1014.0, 1015.0, 1015.0, 1014.0, 1015.0, 1015.0, 1017.0, 1015.0, 1015.0, 1014.0, 1015.0, 1014.0, 1014.0, 1015.0, 1015.0, 1016.0, 1015.0, 1015.0, 1013.0, 1016.0, 1016.0, 1015.0, 1015.0, 1014.0, 1015.0, 1016.0, 1014.0, 1015.0, 1015.0, 1015.0, 1015.0, 1014.0, 1015.0, 1014.0, 1015.0, 1015.0, 1014.0, 1014.0, 1014.0, 1014.0, 1014.0, 1014.0, 1014.0, 1014.0, 1014.0, 1014.0, 1014.0, 1014.0, 1014.0, 1015.0, 1013.0, 1015.0, 1014.0, 1014.0, 1015.0, 1015.0, 1015.0, 1014.0, 1013.0, 1014.0, 1014.0, 1014.0, 1014.0, 1014.0, 1014.0, 1013.0, 1014.0, 1014.0, 1015.0, 1015.0, 1012.0, 1012.0, 1014.0, 1013.0, 1014.0, 1014.0, 1013.0, 1015.0, 1015.0, 1014.0, 1014.0, 1014.0, 1013.0, 1015.0, 1014.0, 1013.0, 1013.0, 1013.0, 1014.0, 1014.0, 1014.0, 1013.0, 1014.0, 1013.0, 1014.0, 1014.0, 1014.0, 1013.0, 1014.0, 1012.0, 1014.0, 1014.0, 1013.0, 1013.0, 1013.0, 1014.0, 1014.0, 1013.0, 1015.0, 1014.0, 1014.0, 1014.0, 1013.0, 1014.0, 1015.0, 1014.0, 1013.0, 1013.0, 1014.0, 1014.0, 1014.0, 1013.0, 1014.0, 1015.0, 1013.0, 1013.0, 1014.0, 1013.0, 1014.0, 1015.0, 1015.0, 1013.0, 1014.0, 1014.0, 1014.0, 1015.0, 1014.0],
      "WindowWidth": [2269.0, 2269.0, 2269.0, 2269.0, 2270.0, 2269.0, 2270.0, 2269.0, 2269.0, 2269.0, 2269.0, 2269.0, 2269.0, 2269.0, 2269.0, 2269.0, 2269.0, 2269.0, 2269.0, 2269.0, 2269.0, 2269.0, 2270.0, 2269.0, 2269.0, 2269.0, 2269.0, 2270.0, 2269.0, 2268.0, 2270.0, 2268.0, 2269.0, 2268.0, 2269.0, 2268.0, 2268.0, 2268.0, 2269.0, 2268.0, 2268.0, 2267.0, 2268.0, 2268.0, 2268.0, 2270.0, 2269.0, 2268.0, 2268.0, 2267.0, 2268.0, 2269.0, 2269.0, 2268.0, 2268.0, 2269.0, 2268.0, 2268.0, 2269.0, 2267.0, 2268.0, 2269.0, 2267.0, 2267.0, 2268.0, 2268.0, 2267.0, 2268.0, 2268.0, 2269.0, 2268.0, 2268.0, 2267.0, 2268.0, 2267.0, 2267.0, 2268.0, 2268.0, 2269.0, 2268.0, 2268.0, 2266.0, 2269.0, 2269.0, 2268.0, 2268.0, 2267.0, 2268.0, 2268.0, 2267.0, 2268.0, 2268.0, 2268.0, 2268.0, 2267.0, 2268.0, 2267.0, 2268.0, 2268.0, 2266.0, 2267.0, 2267.0, 2266.0, 2267.0, 2268.0, 2266.0, 2268.0, 2267.0, 2267.0, 2268.0, 2268.0, 2268.0, 2267.0, 2267.0, 2267.0, 2266.0, 2266.0, 2268.0, 2267.0, 2268.0, 2267.0, 2267.0, 2266.0, 2267.0, 2267.0, 2267.0, 2267.0, 2267.0, 2266.0, 2267.0, 2267.0, 2268.0, 2267.0, 2265.0, 2265.0, 2267.0, 2266.0, 2267.0, 2267.0, 2266.0, 2267.0, 2268.0, 2267.0, 2267.0, 2267.0, 2266.0, 2267.0, 2267.0, 2266.0, 2266.0, 2266.0, 2267.0, 2267.0, 2267.0, 2266.0, 2267.0, 2266.0, 2266.0, 2266.0, 2267.0, 2266.0, 2266.0, 2265.0, 2266.0, 2266.0, 2266.0, 2266.0, 2266.0, 2266.0, 2266.0, 2266.0, 2267.0, 2266.0, 2266.0, 2266.0, 2265.0, 2266.0, 2267.0, 2266.0, 2265.0, 2266.0, 2266.0, 2266.0, 2266.0, 2266.0, 2266.0, 2267.0, 2266.0, 2265.0, 2266.0, 2265.0, 2266.0, 2267.0, 2266.0, 2265.0, 2266.0, 2266.0, 2266.0, 2267.0, 2266.0]
    },
    "slices": {}
  }
}