{
  "AcquisitionMatrixPE": 80,
  "AcquisitionNumber": 1,
  "AcquisitionTime": "09:57:41.820000",
  "BandwidthPerPixelPhaseEncode": 48.077,
  "BaseResolution": 80,
  "BodyPartExamined": "BRAIN",
  "CoilCombinationMethod": "Sum of Squares",
  "ConsistencyInfo": "N4_VE11C_LATEST_20160120",
  "ConversionSoftware": "dcm2niix",
  "ConversionSoftwareVersion": "v1.0.20220720",
  "DerivedVendorReportedEchoSpacing": 0.000519999,
  "DeviceSerialNumber": "66112",
  "DwellTime": 2.7e-06,
  "EchoTime": 0.035,
  "EchoTrainLength": 39,
  "EffectiveEchoSpacing": 0.00026,
  "FlipAngle": 90,
  "HeudiconvVersion": "0.13.1",
  "ImageOrientationPatientDICOM": [0.993299, -0.115395, 0.00644471, 0.107907, 0.945926, 0.30591],
  "ImageOrientationText": "Tra>Cor(17.7)>Sag(2.4)",
  "ImageType": [
    "ORIGINAL",
    "PRIMARY",
    "M",
    "ND",
    "NORM",
    "MOSAIC"
],
  "ImagingFrequency": 123.253,
  "InPlanePhaseEncodingDirectionDICOM": "COL",
  "InstitutionAddress": "Maynard 3,Hanover,NH,US,03755",
  "InstitutionName": "Dartmouth College - PBS",
  "InstitutionalDepartmentName": "Department",
  "MRAcquisitionType": "2D",
  "MagneticFieldStrength": 3,
  "Manufacturer": "Siemens",
  "ManufacturersModelName": "Prisma",
  "MatrixCoilMode": "GRAPPA",
  "Modality": "MR",
  "NonlinearGradientCorrection": false,
  "ParallelReductionFactorInPlane": 2,
  "PartialFourier": 1,
  "PatientPosition": "HFS",
  "PercentPhaseFOV": 100,
  "PercentSampling": 100,
  "PhaseEncodingDirection": "j-",
  "PhaseEncodingSteps": 79,
  "PhaseResolution": 1,
  "PixelBandwidth": 2315,
  "ProcedureStepDescription": "dbic^QA",
  "ProtocolName": "func-bold_task-rest_acq-p2",
  "PulseSequenceDetails": "%SiemensSeq%\\ep2d_bold",
  "ReceiveCoilActiveElements": "HEA;HEP",
  "ReceiveCoilName": "Head_32",
  "ReconMatrixPE": 80,
  "RefLinesPE": 24,
  "RepetitionTime": 2,
  "SAR": 0.0476635,
  "ScanOptions": "FS",
  "ScanningSequence": "EP",
  "SequenceName": "*epfid2d1_80",
  "SequenceVariant": "SK",
  "SeriesDescription": "func-bold_task-rest_acq-p2",
  "SeriesNumber": 5,
  "ShimSetting": [4148, -7684, -7517, 322, -79, -175, -56, 72],
  "SliceThickness": 3.5,
  "SliceTiming": [0.99, 0, 1.0575, 0.0675, 1.1225, 0.1325, 1.1875, 0.2, 1.255, 0.265, 1.32, 0.33, 1.3875, 0.3975, 1.4525, 0.4625, 1.5175, 0.53, 1.585, 0.595, 1.65, 0.66, 1.7175, 0.7275, 1.7825, 0.7925, 1.8475, 0.86, 1.915, 0.925],
  "SoftwareVersions": "syngo MR E11",
  "SpacingBetweenSlices": 3.99,
  "StationName": "AWP66112",
  "TaskName": "rest",
  "TotalReadoutTime": 0.02054,
  "TxRefAmp": 233.584,
  "dcmmeta_affine": [
    [-2.979896306991577, 0.32372021675109863, 0.16517269611358643, 104.1120834350586],
    [0.3461850881576538, 2.8377771377563477, 1.209625244140625, -146.35267639160156],
    [0.019334129989147186, -0.917728841304779, 3.7986345291137695, -33.52885437011719],
    [0.0, 0.0, 0.0, 1.0]
],
  "dcmmeta_reorient_transform": [
    [0.0, -1.0, 0.0, 79.0],
    [1.0, 0.0, 0.0, 0.0],
    [0.0, 0.0, 1.0, 0.0],
    [0.0, 0.0, 0.0, 1.0]
],
  "dcmmeta_shape": [80, 80, 30, 200],
  "dcmmeta_slice_dim": 2,
  "dcmmeta_version": 0.6,
  "global": {
    "const": {
      "AccessionNumber": "qa",
      "AcquisitionMatrix": [80, 0, 0, 80],
      "AngioFlag": "N",
      "BitsAllocated": 16,
      "BitsStored": 12,
      "BodyPartExamined": "BRAIN",
      "Columns": 480,
      "EchoNumbers": 1,
      "EchoTime": 35.0,
      "EchoTrainLength": 39,
      "FlipAngle": 90.0,
      "HighBit": 11,
      "ImageOrientationPatient": [0.99329877302817, -0.1153950311624, 0.0064447097507, 0.10790673543032, 0.94592570813963, 0.30590961267884],
      "ImagePositionPatient": [-790.40928331462, -576.15012483817, -293.44202529624],
      "ImageType": [
        "ORIGINAL",
        "PRIMARY",
        "M",
        "ND",
        "NORM",
        "MOSAIC"
],
      "ImagedNucleus": "1H",
      "ImagingFrequency": 123.252506,
      "InPlanePhaseEncodingDirection": "COL",
      "MRAcquisitionType": "2D",
      "MagneticFieldStrength": 3.0,
      "Manufacturer": "SIEMENS",
      "ManufacturerModelName": "Prisma",
      "Modality": "MR",
      "NumberOfAverages": 1.0,
      "NumberOfPhaseEncodingSteps": 79,
      "PercentPhaseFieldOfView": 100.0,
      "PercentSampling": 100.0,
      "PerformedProcedureStepStartTime": "095549.241000",
      "PhotometricInterpretation": "MONOCHROME2",
      "PixelBandwidth": 2315.0,
      "PixelRepresentation": 0,
      "PixelSpacing": [3.0, 3.0],
      "ProtocolName": "func-bold_task-rest_acq-p2",
      "RepetitionTime": 2000.0,
      "Rows": 480,
      "SAR": 0.0476634611502,
      "SamplesPerPixel": 1,
      "ScanOptions": "FS",
      "ScanningSequence": "EP",
      "SequenceName": "*epfid2d1_80",
      "SequenceVariant": "SK",
      "SeriesDescription": "func-bold_task-rest_acq-p2",
      "SeriesNumber": 5,
      "SeriesTime": "095825.691000",
      "SliceLocation": -71.979768335922,
      "SliceThickness": 3.5,
      "SmallestImagePixelValue": 0,
      "SoftwareVersions": "syngo MR E11",
      "SpacingBetweenSlices": 3.9900000277537,
      "SpecificCharacterSet": "ISO_IR 100",
      "StudyID": "26",
      "StudyTime": "095549.190000",
      "TransmitCoilName": "Body",
      "VariableFlipAngleFlag": "N",
      "WindowCenterWidthExplanation": "Algo1",
      "dBdt": 0.0},
    "slices": {}
  },
  "time": {
    "samples": {
      "AcquisitionNumber": [1, 2, 3, 4, 5, 6, 7, 8, 9, 10, 11, 12, 13, 14, 15, 16, 17, 18, 19, 20, 21, 22, 23, 24, 25, 26, 27, 28, 29, 30, 31, 32, 33, 34, 35, 36, 37, 38, 39, 40, 41, 42, 43, 44, 45, 46, 47, 48, 49, 50, 51, 52, 53, 54, 55, 56, 57, 58, 59, 60, 61, 62, 63, 64, 65, 66, 67, 68, 69, 70, 71, 72, 73, 74, 75, 76, 77, 78, 79, 80, 81, 82, 83, 84, 85, 86, 87, 88, 89, 90, 91, 92, 93, 94, 95, 96, 97, 98, 99, 100, 101, 102, 103, 104, 105, 106, 107, 108, 109, 110, 111, 112, 113, 114, 115, 116, 117, 118, 119, 120, 121, 122, 123, 124, 125, 126, 127, 128, 129, 130, 131, 132, 133, 134, 135, 136, 137, 138, 139, 140, 141, 142, 143, 144, 145, 146, 147, 148, 149, 150, 151, 152, 153, 154, 155, 156, 157, 158, 159, 160, 161, 162, 163, 164, 165, 166, 167, 168, 169, 170, 171, 172, 173, 174, 175, 176, 177, 178, 179, 180, 181, 182, 183, 184, 185, 186, 187, 188, 189, 190, 191, 192, 193, 194, 195, 196, 197, 198, 199, 200],
      "AcquisitionTime": ["095741.820000", "095743.820000", "095745.820000", "095747.820000", "095749.820000", "095751.820000", "095753.820000", "095755.820000", "095757.820000", "095759.820000", "095801.820000", "095803.820000", "095805.820000", "095807.820000", "095809.820000", "095811.820000", "095813.820000", "095815.820000", "095817.820000", "095819.820000", "095821.820000", "095823.820000", "095825.820000", "095827.820000", "095829.820000", "095831.820000", "095833.820000", "095835.820000", "095837.820000", "095839.820000", "095841.820000", "095843.820000", "095845.820000", "095847.820000", "095849.820000", "095851.820000", "095853.820000", "095855.820000", "095857.820000", "095859.820000", "095901.820000", "095903.820000", "095905.820000", "095907.820000", "095909.820000", "095911.820000", "095913.820000", "095915.820000", "095917.820000", "095919.820000", "095921.820000", "095923.820000", "095925.820000", "095927.820000", "095929.820000", "095931.820000", "095933.820000", "095935.820000", "095937.820000", "095939.820000", "095941.820000", "095943.820000", "095945.820000", "095947.820000", "095949.820000", "095951.820000", "095953.820000", "095955.820000", "095957.820000", "095959.820000", "100001.820000", "100003.820000", "100005.820000", "100007.820000", "100009.820000", "100011.820000", "100013.820000", "100015.820000", "100017.820000", "100019.820000", "100021.820000", "100023.820000", "100025.820000", "100027.820000", "100029.820000", "100031.820000", "100033.820000", "100035.820000", "100037.820000", "100039.820000", "100041.820000", "100043.820000", "100045.820000", "100047.820000", "100049.820000", "100051.820000", "100053.820000", "100055.820000", "100057.820000", "100059.820000", "100101.820000", "100103.820000", "100105.820000", "100107.820000", "100109.820000", "100111.820000", "100113.820000", "100115.820000", "100117.820000", "100119.820000", "100121.820000", "100123.820000", "100125.820000", "100127.820000", "100129.820000", "100131.820000", "100133.820000", "100135.820000", "100137.820000", "100139.820000", "100141.820000", "100143.820000", "100145.820000", "100147.820000", "100149.820000", "100151.820000", "100153.820000", "100155.820000", "100157.820000", "100159.820000", "100201.820000", "100203.820000", "100205.820000", "100207.820000", "100209.820000", "100211.820000", "100213.820000", "100215.820000", "100217.820000", "100219.820000", "100221.820000", "100223.820000", "100225.820000", "100227.820000", "100229.820000", "100231.820000", "100233.820000", "100235.820000", "100237.820000", "100239.820000", "100241.820000", "100243.820000", "100245.820000", "100247.820000", "100249.820000", "100251.820000", "100253.820000", "100255.820000", "100257.820000", "100259.820000", "100301.820000", "100303.820000", "100305.820000", "100307.820000", "100309.820000", "100311.820000", "100313.820000", "100315.820000", "100317.820000", "100319.820000", "100321.820000", "100323.820000", "100325.820000", "100327.820000", "100329.820000", "100331.820000", "100333.820000", "100335.820000", "100337.820000", "100339.820000", "100341.820000", "100343.820000", "100345.820000", "100347.820000", "100349.820000", "100351.820000", "100353.820000", "100355.820000", "100357.820000", "100359.820000", "100401.820000", "100403.820000", "100405.820000", "100407.820000", "100409.820000", "100411.820000", "100413.820000", "100415.820000", "100417.820000", "100419.820000"],
      "ContentTime": ["095825.694000", "095825.698000", "095825.700000", "095825.703000", "095825.705000", "095825.708000", "095825.710000", "095825.713000", "095825.716000", "095825.718000", "095825.721000", "095825.723000", "095825.726000", "095825.728000", "095825.731000", "095825.733000", "095825.736000", "095825.738000", "095825.741000", "095825.743000", "095825.746000", "095825.759000", "095905.689000", "095905.701000", "095905.704000", "095905.706000", "095905.709000", "095905.711000", "095905.714000", "095905.716000", "095905.719000", "095905.721000", "095905.724000", "095905.727000", "095905.729000", "095905.732000", "095905.734000", "095905.737000", "095905.739000", "095905.742000", "095905.744000", "095905.747000", "095945.689000", "095945.691000", "095945.694000", "095945.696000", "095945.699000", "095945.702000", "095945.704000", "095945.707000", "095945.709000", "095945.712000", "095945.715000", "095945.717000", "095945.720000", "095945.722000", "095945.725000", "095945.727000", "095945.730000", "095945.732000", "095945.735000", "095945.737000", "100025.688000", "100025.691000", "100025.694000", "100025.696000", "100025.699000", "100025.702000", "100025.704000", "100025.707000", "100025.709000", "100025.712000", "100025.714000", "100025.717000", "100025.719000", "100025.722000", "100025.724000", "100025.727000", "100025.729000", "100025.732000", "100025.735000", "100025.737000", "100105.690000", "100105.692000", "100105.695000", "100105.698000", "100105.700000", "100105.703000", "100105.705000", "100105.708000", "100105.710000", "100105.713000", "100105.715000", "100105.718000", "100105.721000", "100105.723000", "100105.726000", "100105.728000", "100105.731000", "100105.733000", "100105.736000", "100105.738000", "100145.690000", "100145.692000", "100145.695000", "100145.697000", "100145.700000", "100145.702000", "100145.705000", "100145.708000", "100145.710000", "100145.713000", "100145.716000", "100145.718000", "100145.721000", "100145.723000", "100145.726000", "100145.728000", "100145.731000", "100145.733000", "100145.736000", "100145.739000", "100225.689000", "100225.691000", "100225.694000", "100225.697000", "100225.699000", "100225.702000", "100225.704000", "100225.707000", "100225.709000", "100225.712000", "100225.715000", "100225.717000", "100225.720000", "100225.722000", "100225.725000", "100225.727000", "100225.730000", "100225.732000", "100225.735000", "100225.737000", "100305.690000", "100305.692000", "100305.695000", "100305.697000", "100305.700000", "100305.703000", "100305.705000", "100305.708000", "100305.710000", "100305.713000", "100305.715000", "100305.718000", "100305.721000", "100305.723000", "100305.726000", "100305.728000", "100305.731000", "100305.733000", "100305.736000", "100305.738000", "100345.689000", "100345.692000", "100345.695000", "100345.697000", "100345.700000", "100345.703000", "100345.705000", "100345.708000", "100345.710000", "100345.713000", "100345.715000", "100345.718000", "100345.720000", "100345.723000", "100345.725000", "100345.728000", "100345.731000", "100345.733000", "100345.736000", "100345.738000", "100420.886000", "100420.889000", "100420.891000", "100420.894000", "100420.897000", "100420.899000", "100420.902000", "100420.904000", "100420.907000", "100420.909000", "100420.912000", "100420.915000", "100420.918000", "100420.922000", "100420.925000", "100420.927000", "100420.930000", "100420.933000"],
      "InstanceCreationTime": ["095825.694000", "095825.698000", "095825.700000", "095825.703000", "095825.705000", "095825.708000", "095825.710000", "095825.713000", "095825.716000", "095825.718000", "095825.721000", "095825.723000", "095825.726000", "095825.728000", "095825.731000", "095825.733000", "095825.736000", "095825.738000", "095825.741000", "095825.743000", "095825.746000", "095825.759000", "095905.689000", "095905.701000", "095905.704000", "095905.706000", "095905.709000", "095905.711000", "095905.714000", "095905.716000", "095905.719000", "095905.721000", "095905.724000", "095905.727000", "095905.729000", "095905.732000", "095905.734000", "095905.737000", "095905.739000", "095905.742000", "095905.744000", "095905.747000", "095945.689000", "095945.691000", "095945.694000", "095945.696000", "095945.699000", "095945.702000", "095945.704000", "095945.707000", "095945.709000", "095945.712000", "095945.715000", "095945.717000", "095945.720000", "095945.722000", "095945.725000", "095945.727000", "095945.730000", "095945.732000", "095945.735000", "095945.737000", "100025.688000", "100025.691000", "100025.694000", "100025.696000", "100025.699000", "100025.702000", "100025.704000", "100025.707000", "100025.709000", "100025.712000", "100025.714000", "100025.717000", "100025.719000", "100025.722000", "100025.724000", "100025.727000", "100025.729000", "100025.732000", "100025.735000", "100025.737000", "100105.690000", "100105.692000", "100105.695000", "100105.698000", "100105.700000", "100105.703000", "100105.705000", "100105.708000", "100105.710000", "100105.713000", "100105.715000", "100105.718000", "100105.721000", "100105.723000", "100105.726000", "100105.728000", "100105.731000", "100105.733000", "100105.736000", "100105.738000", "100145.690000", "100145.692000", "100145.695000", "100145.697000", "100145.700000", "100145.702000", "100145.705000", "100145.708000", "100145.710000", "100145.713000", "100145.716000", "100145.718000", "100145.721000", "100145.723000", "100145.726000", "100145.728000", "100145.731000", "100145.733000", "100145.736000", "100145.739000", "100225.689000", "100225.691000", "100225.694000", "100225.697000", "100225.699000", "100225.702000", "100225.704000", "100225.707000", "100225.709000", "100225.712000", "100225.715000", "100225.717000", "100225.720000", "100225.722000", "100225.725000", "100225.727000", "100225.730000", "100225.732000", "100225.735000", "100225.737000", "100305.690000", "100305.692000", "100305.695000", "100305.697000", "100305.700000", "100305.703000", "100305.705000", "100305.708000", "100305.710000", "100305.713000", "100305.715000", "100305.718000", "100305.721000", "100305.723000", "100305.726000", "100305.728000", "100305.731000", "100305.733000", "100305.736000", "100305.738000", "100345.689000", "100345.692000", "100345.695000", "100345.697000", "100345.700000", "100345.703000", "100345.705000", "100345.708000", "100345.710000", "100345.713000", "100345.715000", "100345.718000", "100345.720000", "100345.723000", "100345.725000", "100345.728000", "100345.731000", "100345.733000", "100345.736000", "100345.738000", "100420.886000", "100420.889000", "100420.891000", "100420.894000", "100420.897000", "100420.899000", "100420.902000", "100420.904000", "100420.907000", "100420.909000", "100420.912000", "100420.915000", "100420.918000", "100420.922000", "100420.925000", "100420.927000", "100420.930000", "100420.933000"],
      "InstanceNumber": [1, 2, 3, 4, 5, 6, 7, 8, 9, 10, 11, 12, 13, 14, 15, 16, 17, 18, 19, 20, 21, 22, 23, 24, 25, 26, 27, 28, 29, 30, 31, 32, 33, 34, 35, 36, 37, 38, 39, 40, 41, 42, 43, 44, 45, 46, 47, 48, 49, 50, 51, 52, 53, 54, 55, 56, 57, 58, 59, 60, 61, 62, 63, 64, 65, 66, 67, 68, 69, 70, 71, 72, 73, 74, 75, 76, 77, 78, 79, 80, 81, 82, 83, 84, 85, 86, 87, 88, 89, 90, 91, 92, 93, 94, 95, 96, 97, 98, 99, 100, 101, 102, 103, 104, 105, 106, 107, 108, 109, 110, 111, 112, 113, 114, 115, 116, 117, 118, 119, 120, 121, 122, 123, 124, 125, 126, 127, 128, 129, 130, 131, 132, 133, 134, 135, 136, 137, 138, 139, 140, 141, 142, 143, 144, 145, 146, 147, 148, 149, 150, 151, 152, 153, 154, 155, 156, 157, 158, 159, 160, 161, 162, 163, 164, 165, 166, 167, 168, 169, 170, 171, 172, 173, 174, 175, 176, 177, 178, 179, 180, 181, 182, 183, 184, 185, 186, 187, 188, 189, 190, 191, 192, 193, 194, 195, 196, 197, 198, 199, 200],
      "LargestImagePixelValue": [1945, 1946, 1946, 1948, 1950, 1952, 1945, 1946, 1940, 1944, 1944, 1944, 1939, 1944, 1938, 1948, 1944, 1945, 1945, 1948, 1947, 1944, 1941, 1934, 1943, 1945, 1949, 1950, 1938, 1948, 1941, 1947, 1943, 1947, 1945, 1944, 1945, 1945, 1943, 1944, 1944, 1939, 1940, 1947, 1944, 1946, 1950, 1944, 1944, 1947, 1947, 1953, 1950, 1942, 1943, 1938, 1949, 1954, 1949, 1951, 1941, 1944, 1944, 1951, 1949, 1947, 1947, 1944, 1945, 1950, 1950, 1954, 1954, 1948, 1948, 1951, 1946, 1946, 1942, 1943, 1948, 1946, 1949, 1944, 1948, 1954, 1952, 1951, 1944, 1945, 1955, 1948, 1938, 1946, 1946, 1946, 1946, 1952, 1952, 1948, 1950, 1950, 1946, 1943, 1947, 1945, 1944, 1952, 1943, 1949, 1945, 1946, 1945, 1950, 1945, 1944, 1946, 1946, 1949, 1952, 1947, 1942, 1956, 1945, 1944, 1953, 1943, 1944, 1948, 1946, 1951, 1949, 1953, 1944, 1944, 1948, 1943, 1944, 1949, 1944, 1944, 1952, 1953, 1948, 1945, 1950, 1944, 1949, 1946, 1947, 1949, 1952, 1947, 1942, 1945, 1951, 1955, 1948, 1953, 1946, 1946, 1949, 1950, 1949, 1948, 1949, 1947, 1947, 1947, 1943, 1945, 1947, 1943, 1944, 1944, 1948, 1952, 1952, 1952, 1945, 1952, 1951, 1941, 1950, 1954, 1942, 1946, 1947, 1942, 1945, 1950, 1947, 1945, 1947, 1945, 1937, 1942, 1941, 1940, 1949],
      "WindowCenter": [980.0, 980.0, 980.0, 980.0, 980.0, 980.0, 980.0, 980.0, 980.0, 980.0, 980.0, 980.0, 980.0, 981.0, 980.0, 980.0, 981.0, 980.0, 980.0, 980.0, 980.0, 980.0, 980.0, 980.0, 980.0, 981.0, 980.0, 980.0, 980.0, 980.0, 980.0, 980.0, 981.0, 980.0, 980.0, 980.0, 980.0, 980.0, 980.0, 980.0, 980.0, 981.0, 980.0, 981.0, 980.0, 981.0, 980.0, 980.0, 980.0, 980.0, 980.0, 980.0, 980.0, 981.0, 980.0, 980.0, 980.0, 980.0, 980.0, 981.0, 980.0, 980.0, 980.0, 980.0, 980.0, 980.0, 981.0, 980.0, 980.0, 980.0, 980.0, 980.0, 980.0, 980.0, 980.0, 980.0, 980.0, 981.0, 980.0, 980.0, 980.0, 980.0, 981.0, 980.0, 980.0, 980.0, 980.0, 981.0, 980.0, 980.0, 980.0, 980.0, 980.0, 980.0, 980.0, 980.0, 980.0, 980.0, 980.0, 980.0, 980.0, 980.0, 980.0, 980.0, 980.0, 981.0, 980.0, 980.0, 980.0, 980.0, 980.0, 980.0, 980.0, 980.0, 980.0, 980.0, 980.0, 980.0, 980.0, 980.0, 980.0, 980.0, 980.0, 980.0, 980.0, 980.0, 980.0, 980.0, 980.0, 980.0, 980.0, 980.0, 979.0, 980.0, 980.0, 980.0, 980.0, 980.0, 980.0, 980.0, 980.0, 980.0, 980.0, 980.0, 980.0, 980.0, 980.0, 980.0, 980.0, 980.0, 979.0, 980.0, 980.0, 980.0, 980.0, 980.0, 980.0, 980.0, 980.0, 980.0, 980.0, 980.0, 980.0, 980.0, 980.0, 980.0, 980.0, 980.0, 980.0, 980.0, 980.0, 979.0, 980.0, 980.0, 980.0, 979.0, 979.0, 979.0, 980.0, 979.0, 979.0, 980.0, 979.0, 979.0, 979.0, 980.0, 979.0, 980.0, 979.0, 979.0, 979.0, 979.0, 979.0, 980.0, 980.0, 979.0, 979.0, 979.0, 979.0, 979.0],
      "WindowWidth": [2150.0, 2149.0, 2149.0, 2149.0, 2149.0, 2149.0, 2149.0, 2149.0, 2149.0, 2149.0, 2149.0, 2150.0, 2149.0, 2150.0, 2149.0, 2150.0, 2150.0, 2149.0, 2149.0, 2149.0, 2150.0, 2149.0, 2149.0, 2149.0, 2149.0, 2150.0, 2149.0, 2150.0, 2149.0, 2149.0, 2150.0, 2149.0, 2150.0, 2149.0, 2149.0, 2149.0, 2149.0, 2149.0, 2149.0, 2149.0, 2149.0, 2150.0, 2149.0, 2150.0, 2149.0, 2150.0, 2149.0, 2149.0, 2149.0, 2149.0, 2149.0, 2149.0, 2149.0, 2150.0, 2149.0, 2148.0, 2149.0, 2149.0, 2149.0, 2150.0, 2149.0, 2149.0, 2149.0, 2149.0, 2148.0, 2149.0, 2150.0, 2149.0, 2149.0, 2149.0, 2149.0, 2149.0, 2149.0, 2149.0, 2149.0, 2149.0, 2149.0, 2150.0, 2149.0, 2149.0, 2149.0, 2149.0, 2150.0, 2149.0, 2149.0, 2149.0, 2149.0, 2149.0, 2149.0, 2149.0, 2149.0, 2149.0, 2149.0, 2149.0, 2149.0, 2149.0, 2149.0, 2149.0, 2149.0, 2149.0, 2149.0, 2149.0, 2149.0, 2149.0, 2149.0, 2150.0, 2149.0, 2148.0, 2149.0, 2149.0, 2149.0, 2149.0, 2149.0, 2149.0, 2149.0, 2149.0, 2149.0, 2149.0, 2149.0, 2149.0, 2149.0, 2149.0, 2149.0, 2148.0, 2149.0, 2149.0, 2149.0, 2148.0, 2148.0, 2149.0, 2148.0, 2149.0, 2149.0, 2148.0, 2149.0, 2148.0, 2148.0, 2148.0, 2149.0, 2148.0, 2148.0, 2149.0, 2149.0, 2149.0, 2148.0, 2149.0, 2149.0, 2149.0, 2149.0, 2149.0, 2149.0, 2149.0, 2148.0, 2149.0, 2149.0, 2149.0, 2149.0, 2149.0, 2149.0, 2149.0, 2149.0, 2148.0, 2149.0, 2148.0, 2148.0, 2149.0, 2148.0, 2148.0, 2149.0, 2148.0, 2148.0, 2149.0, 2148.0, 2148.0, 2149.0, 2148.0, 2148.0, 2148.0, 2149.0, 2148.0, 2148.0, 2149.0, 2148.0, 2148.0, 2148.0, 2149.0, 2148.0, 2148.0, 2148.0, 2148.0, 2148.0, 2148.0, 2148.0, 2149.0, 2149.0, 2148.0, 2148.0, 2148.0, 2148.0, 2148.0]
    },
    "slices": {}
  }
}