{
  "AcquisitionMatrixPE": 80,
  "AcquisitionNumber": 1,
  "AcquisitionTime": "10:18:12.482500",
  "BandwidthPerPixelPhaseEncode": 25,
  "BaseResolution": 80,
  "BodyPartExamined": "BRAIN",
  "CoilCombinationMethod": "Sum of Squares",
  "ConsistencyInfo": "N4_VE11C_LATEST_20160120",
  "ConversionSoftware": "dcm2niix",
  "ConversionSoftwareVersion": "v1.0.20220720",
  "DerivedVendorReportedEchoSpacing": 0.0005,
  "DeviceSerialNumber": "66112",
  "DwellTime": 2.7e-06,
  "EchoTime": 0.03,
  "EchoTrainLength": 80,
  "EffectiveEchoSpacing": 0.0005,
  "FlipAngle": 10,
  "HeudiconvVersion": "0.13.1",
  "ImageOrientationPatientDICOM": [0.993299, -0.115395, 0.00644471, 0.107907, 0.945926, 0.30591],
  "ImageOrientationText": "Tra>Cor(17.7)>Sag(2.4)",
  "ImageType": [
    "ORIGINAL",
    "PRIMARY",
    "M",
    "ND",
    "NORM",
    "MOSAIC"
],
  "ImagingFrequency": 123.253,
  "InPlanePhaseEncodingDirectionDICOM": "COL",
  "InstitutionAddress": "Maynard 3,Hanover,NH,US,03755",
  "InstitutionName": "Dartmouth College - PBS",
  "InstitutionalDepartmentName": "Department",
  "MRAcquisitionType": "2D",
  "MagneticFieldStrength": 3,
  "Manufacturer": "Siemens",
  "ManufacturersModelName": "Prisma",
  "MatrixCoilMode": "SENSE",
  "Modality": "MR",
  "NonlinearGradientCorrection": false,
  "PartialFourier": 1,
  "PatientPosition": "HFS",
  "PercentPhaseFOV": 100,
  "PercentSampling": 100,
  "PhaseEncodingDirection": "j-",
  "PhaseEncodingSteps": 80,
  "PhaseResolution": 1,
  "PixelBandwidth": 2315,
  "ProcedureStepDescription": "dbic^QA",
  "ProtocolName": "func-bold_fa-10",
  "PulseSequenceDetails": "%SiemensSeq%\\ep2d_bold",
  "ReceiveCoilActiveElements": "HEA;HEP",
  "ReceiveCoilName": "Head_32",
  "ReconMatrixPE": 80,
  "RepetitionTime": 2,
  "SAR": 0.0100476,
  "ScanOptions": "FS",
  "ScanningSequence": "EP",
  "SequenceName": "*epfid2d1_80",
  "SequenceVariant": "SK",
  "SeriesDescription": "func-bold_fa-10",
  "SeriesNumber": 10,
  "ShimSetting": [4148, -7684, -7518, 325, -79, -184, -62, 71],
  "SliceThickness": 3.5,
  "SliceTiming": [0.99, 0, 1.055, 0.065, 1.1225, 0.1325, 1.1875, 0.1975, 1.255, 0.265, 1.32, 0.33, 1.385, 0.395, 1.4525, 0.4625, 1.5175, 0.5275, 1.585, 0.595, 1.65, 0.66, 1.715, 0.725, 1.7825, 0.7925, 1.8475, 0.8575, 1.915, 0.925],
  "SoftwareVersions": "syngo MR E11",
  "SpacingBetweenSlices": 3.99,
  "StationName": "AWP66112",
  "TotalReadoutTime": 0.0395,
  "TxRefAmp": 233.584,
  "dcmmeta_affine": [
    [-2.979896306991577, 0.32372021675109863, 0.16517269611358643, 104.8171615600586],
    [0.3461850881576538, 2.8377771377563477, 1.209625244140625, -145.51943969726562],
    [0.019334129989147186, -0.917728841304779, 3.7986345291137695, -39.0926513671875],
    [0.0, 0.0, 0.0, 1.0]
],
  "dcmmeta_reorient_transform": [
    [0.0, -1.0, 0.0, 79.0],
    [1.0, 0.0, 0.0, 0.0],
    [0.0, 0.0, 1.0, 0.0],
    [0.0, 0.0, 0.0, 1.0]
],
  "dcmmeta_shape": [80, 80, 30, 200],
  "dcmmeta_slice_dim": 2,
  "dcmmeta_version": 0.6,
  "global": {
    "const": {
      "AccessionNumber": "qa",
      "AcquisitionMatrix": [80, 0, 0, 80],
      "AngioFlag": "N",
      "BitsAllocated": 16,
      "BitsStored": 12,
      "BodyPartExamined": "BRAIN",
      "Columns": 480,
      "EchoNumbers": 1,
      "EchoTime": 30.0,
      "EchoTrainLength": 80,
      "FlipAngle": 10.0,
      "HighBit": 11,
      "ImageOrientationPatient": [0.99329877302817, -0.1153950311624, 0.0064447097507, 0.10790673543032, 0.94592570813963, 0.30590961267884],
      "ImagePositionPatient": [-791.11436048594, -576.98335581046, -299.00582229331],
      "ImageType": [
        "ORIGINAL",
        "PRIMARY",
        "M",
        "ND",
        "NORM",
        "MOSAIC"
],
      "ImagedNucleus": "1H",
      "ImagingFrequency": 123.252509,
      "InPlanePhaseEncodingDirection": "COL",
      "MRAcquisitionType": "2D",
      "MagneticFieldStrength": 3.0,
      "Manufacturer": "SIEMENS",
      "ManufacturerModelName": "Prisma",
      "Modality": "MR",
      "NumberOfAverages": 1.0,
      "NumberOfPhaseEncodingSteps": 80,
      "PercentPhaseFieldOfView": 100.0,
      "PercentSampling": 100.0,
      "PerformedProcedureStepStartTime": "095549.241000",
      "PhotometricInterpretation": "MONOCHROME2",
      "PixelBandwidth": 2315.0,
      "PixelRepresentation": 0,
      "PixelSpacing": [3.0, 3.0],
      "ProtocolName": "func-bold_fa-10",
      "RepetitionTime": 2000.0,
      "Rows": 480,
      "SAR": 0.0100476261129,
      "SamplesPerPixel": 1,
      "ScanOptions": "FS",
      "ScanningSequence": "EP",
      "SequenceName": "*epfid2d1_80",
      "SequenceVariant": "SK",
      "SeriesDescription": "func-bold_fa-10",
      "SeriesNumber": 10,
      "SeriesTime": "101905.691000",
      "SliceLocation": -76.994924996039,
      "SliceThickness": 3.5,
      "SmallestImagePixelValue": 0,
      "SoftwareVersions": "syngo MR E11",
      "SpacingBetweenSlices": 3.9900000277537,
      "SpecificCharacterSet": "ISO_IR 100",
      "StudyID": "26",
      "StudyTime": "095549.190000",
      "TransmitCoilName": "Body",
      "VariableFlipAngleFlag": "N",
      "WindowCenterWidthExplanation": "Algo1",
      "dBdt": 0.0},
    "slices": {}
  },
  "time": {
    "samples": {
      "AcquisitionNumber": [1, 2, 3, 4, 5, 6, 7, 8, 9, 10, 11, 12, 13, 14, 15, 16, 17, 18, 19, 20, 21, 22, 23, 24, 25, 26, 27, 28, 29, 30, 31, 32, 33, 34, 35, 36, 37, 38, 39, 40, 41, 42, 43, 44, 45, 46, 47, 48, 49, 50, 51, 52, 53, 54, 55, 56, 57, 58, 59, 60, 61, 62, 63, 64, 65, 66, 67, 68, 69, 70, 71, 72, 73, 74, 75, 76, 77, 78, 79, 80, 81, 82, 83, 84, 85, 86, 87, 88, 89, 90, 91, 92, 93, 94, 95, 96, 97, 98, 99, 100, 101, 102, 103, 104, 105, 106, 107, 108, 109, 110, 111, 112, 113, 114, 115, 116, 117, 118, 119, 120, 121, 122, 123, 124, 125, 126, 127, 128, 129, 130, 131, 132, 133, 134, 135, 136, 137, 138, 139, 140, 141, 142, 143, 144, 145, 146, 147, 148, 149, 150, 151, 152, 153, 154, 155, 156, 157, 158, 159, 160, 161, 162, 163, 164, 165, 166, 167, 168, 169, 170, 171, 172, 173, 174, 175, 176, 177, 178, 179, 180, 181, 182, 183, 184, 185, 186, 187, 188, 189, 190, 191, 192, 193, 194, 195, 196, 197, 198, 199, 200],
      "AcquisitionTime": ["101812.482500", "101814.482500", "101816.482500", "101818.482500", "101820.482500", "101822.482500", "101824.482500", "101826.482500", "101828.482500", "101830.482500", "101832.482500", "101834.482500", "101836.482500", "101838.482500", "101840.482500", "101842.482500", "101844.482500", "101846.482500", "101848.482500", "101850.482500", "101852.482500", "101854.482500", "101856.482500", "101858.482500", "101900.482500", "101902.482500", "101904.482500", "101906.482500", "101908.482500", "101910.482500", "101912.482500", "101914.482500", "101916.482500", "101918.482500", "101920.482500", "101922.482500", "101924.482500", "101926.482500", "101928.482500", "101930.482500", "101932.482500", "101934.482500", "101936.482500", "101938.482500", "101940.482500", "101942.482500", "101944.482500", "101946.482500", "101948.482500", "101950.482500", "101952.482500", "101954.482500", "101956.482500", "101958.482500", "102000.482500", "102002.482500", "102004.482500", "102006.482500", "102008.482500", "102010.482500", "102012.482500", "102014.482500", "102016.482500", "102018.482500", "102020.482500", "102022.482500", "102024.482500", "102026.482500", "102028.482500", "102030.482500", "102032.482500", "102034.482500", "102036.482500", "102038.482500", "102040.482500", "102042.482500", "102044.482500", "102046.482500", "102048.482500", "102050.482500", "102052.482500", "102054.482500", "102056.482500", "102058.482500", "102100.482500", "102102.482500", "102104.482500", "102106.482500", "102108.482500", "102110.482500", "102112.482500", "102114.482500", "102116.482500", "102118.482500", "102120.482500", "102122.482500", "102124.482500", "102126.482500", "102128.482500", "102130.482500", "102132.482500", "102134.482500", "102136.482500", "102138.482500", "102140.482500", "102142.482500", "102144.482500", "102146.482500", "102148.482500", "102150.482500", "102152.482500", "102154.482500", "102156.482500", "102158.482500", "102200.482500", "102202.482500", "102204.482500", "102206.482500", "102208.482500", "102210.482500", "102212.482500", "102214.482500", "102216.482500", "102218.482500", "102220.482500", "102222.482500", "102224.482500", "102226.482500", "102228.482500", "102230.482500", "102232.482500", "102234.482500", "102236.482500", "102238.482500", "102240.482500", "102242.482500", "102244.482500", "102246.482500", "102248.482500", "102250.482500", "102252.482500", "102254.482500", "102256.482500", "102258.482500", "102300.482500", "102302.482500", "102304.482500", "102306.482500", "102308.482500", "102310.482500", "102312.482500", "102314.482500", "102316.482500", "102318.482500", "102320.482500", "102322.482500", "102324.482500", "102326.482500", "102328.482500", "102330.482500", "102332.482500", "102334.482500", "102336.482500", "102338.482500", "102340.482500", "102342.482500", "102344.482500", "102346.482500", "102348.482500", "102350.482500", "102352.482500", "102354.482500", "102356.482500", "102358.482500", "102400.482500", "102402.482500", "102404.482500", "102406.482500", "102408.482500", "102410.482500", "102412.482500", "102414.482500", "102416.482500", "102418.482500", "102420.482500", "102422.482500", "102424.482500", "102426.482500", "102428.482500", "102430.482500", "102432.482500", "102434.482500", "102436.482500", "102438.482500", "102440.482500", "102442.482500", "102444.482500", "102446.482500", "102448.482500", "102450.482500"],
      "ContentTime": ["101905.694000", "101905.698000", "101905.700000", "101905.703000", "101905.705000", "101905.708000", "101905.710000", "101905.713000", "101905.715000", "101905.718000", "101905.720000", "101905.730000", "101905.733000", "101905.735000", "101905.738000", "101905.740000", "101905.743000", "101905.745000", "101905.748000", "101905.750000", "101905.753000", "101905.755000", "101905.758000", "101905.760000", "101905.763000", "101905.770000", "101905.772000", "101945.689000", "101945.692000", "101945.695000", "101945.697000", "101945.700000", "101945.702000", "101945.705000", "101945.707000", "101945.710000", "101945.712000", "101945.715000", "101945.717000", "101945.729000", "101945.731000", "101945.734000", "101945.736000", "101945.739000", "101945.744000", "101945.746000", "101945.749000", "102025.688000", "102025.691000", "102025.694000", "102025.696000", "102025.699000", "102025.701000", "102025.704000", "102025.706000", "102025.709000", "102025.711000", "102025.714000", "102025.716000", "102025.719000", "102025.721000", "102025.724000", "102025.726000", "102025.729000", "102025.731000", "102025.734000", "102025.736000", "102105.688000", "102105.691000", "102105.694000", "102105.696000", "102105.699000", "102105.701000", "102105.704000", "102105.706000", "102105.709000", "102105.711000", "102105.714000", "102105.716000", "102105.719000", "102105.721000", "102105.724000", "102105.726000", "102105.729000", "102105.731000", "102105.734000", "102105.736000", "102145.690000", "102145.692000", "102145.695000", "102145.697000", "102145.700000", "102145.702000", "102145.705000", "102145.707000", "102145.710000", "102145.712000", "102145.715000", "102145.717000", "102145.720000", "102145.722000", "102145.725000", "102145.727000", "102145.730000", "102145.732000", "102145.735000", "102145.737000", "102225.689000", "102225.692000", "102225.695000", "102225.697000", "102225.700000", "102225.702000", "102225.705000", "102225.707000", "102225.710000", "102225.712000", "102225.715000", "102225.717000", "102225.720000", "102225.722000", "102225.725000", "102225.727000", "102225.730000", "102225.732000", "102225.735000", "102225.737000", "102305.688000", "102305.691000", "102305.694000", "102305.696000", "102305.699000", "102305.701000", "102305.704000", "102305.707000", "102305.709000", "102305.712000", "102305.714000", "102305.717000", "102305.719000", "102305.722000", "102305.724000", "102305.727000", "102305.729000", "102305.732000", "102305.734000", "102305.737000", "102345.689000", "102345.692000", "102345.695000", "102345.697000", "102345.700000", "102345.702000", "102345.705000", "102345.707000", "102345.710000", "102345.712000", "102345.715000", "102345.717000", "102345.720000", "102345.722000", "102345.725000", "102345.727000", "102345.730000", "102345.733000", "102345.735000", "102345.738000", "102425.689000", "102425.692000", "102425.695000", "102425.697000", "102425.700000", "102425.702000", "102425.705000", "102425.707000", "102425.710000", "102425.712000", "102425.715000", "102425.717000", "102425.720000", "102425.722000", "102425.725000", "102425.727000", "102425.730000", "102425.732000", "102425.741000", "102425.744000", "102451.605000", "102451.608000", "102451.624000", "102451.627000", "102451.630000", "102451.632000", "102451.635000", "102451.638000", "102451.643000", "102451.646000", "102451.649000", "102451.652000", "102451.657000"],
      "InstanceCreationTime": ["101905.694000", "101905.698000", "101905.700000", "101905.703000", "101905.705000", "101905.708000", "101905.710000", "101905.713000", "101905.715000", "101905.718000", "101905.720000", "101905.730000", "101905.733000", "101905.735000", "101905.738000", "101905.740000", "101905.743000", "101905.745000", "101905.748000", "101905.750000", "101905.753000", "101905.755000", "101905.758000", "101905.760000", "101905.763000", "101905.770000", "101905.772000", "101945.689000", "101945.692000", "101945.695000", "101945.697000", "101945.700000", "101945.702000", "101945.705000", "101945.707000", "101945.710000", "101945.712000", "101945.715000", "101945.717000", "101945.729000", "101945.731000", "101945.734000", "101945.736000", "101945.739000", "101945.744000", "101945.746000", "101945.749000", "102025.688000", "102025.691000", "102025.694000", "102025.696000", "102025.699000", "102025.701000", "102025.704000", "102025.706000", "102025.709000", "102025.711000", "102025.714000", "102025.716000", "102025.719000", "102025.721000", "102025.724000", "102025.726000", "102025.729000", "102025.731000", "102025.734000", "102025.736000", "102105.688000", "102105.691000", "102105.694000", "102105.696000", "102105.699000", "102105.701000", "102105.704000", "102105.706000", "102105.709000", "102105.711000", "102105.714000", "102105.716000", "102105.719000", "102105.721000", "102105.724000", "102105.726000", "102105.729000", "102105.731000", "102105.734000", "102105.736000", "102145.690000", "102145.692000", "102145.695000", "102145.697000", "102145.700000", "102145.702000", "102145.705000", "102145.707000", "102145.710000", "102145.712000", "102145.715000", "102145.717000", "102145.720000", "102145.722000", "102145.725000", "102145.727000", "102145.730000", "102145.732000", "102145.735000", "102145.737000", "102225.689000", "102225.692000", "102225.695000", "102225.697000", "102225.700000", "102225.702000", "102225.705000", "102225.707000", "102225.710000", "102225.712000", "102225.715000", "102225.717000", "102225.720000", "102225.722000", "102225.725000", "102225.727000", "102225.730000", "102225.732000", "102225.735000", "102225.737000", "102305.688000", "102305.691000", "102305.694000", "102305.696000", "102305.699000", "102305.701000", "102305.704000", "102305.707000", "102305.709000", "102305.712000", "102305.714000", "102305.717000", "102305.719000", "102305.722000", "102305.724000", "102305.727000", "102305.729000", "102305.732000", "102305.734000", "102305.737000", "102345.689000", "102345.692000", "102345.695000", "102345.697000", "102345.700000", "102345.702000", "102345.705000", "102345.707000", "102345.710000", "102345.712000", "102345.715000", "102345.717000", "102345.720000", "102345.722000", "102345.725000", "102345.727000", "102345.730000", "102345.733000", "102345.735000", "102345.738000", "102425.689000", "102425.692000", "102425.695000", "102425.697000", "102425.700000", "102425.702000", "102425.705000", "102425.707000", "102425.710000", "102425.712000", "102425.715000", "102425.717000", "102425.720000", "102425.722000", "102425.725000", "102425.727000", "102425.730000", "102425.732000", "102425.741000", "102425.744000", "102451.605000", "102451.608000", "102451.624000", "102451.627000", "102451.630000", "102451.632000", "102451.635000", "102451.638000", "102451.643000", "102451.646000", "102451.649000", "102451.652000", "102451.657000"],
      "InstanceNumber": [1, 2, 3, 4, 5, 6, 7, 8, 9, 10, 11, 12, 13, 14, 15, 16, 17, 18, 19, 20, 21, 22, 23, 24, 25, 26, 27, 28, 29, 30, 31, 32, 33, 34, 35, 36, 37, 38, 39, 40, 41, 42, 43, 44, 45, 46, 47, 48, 49, 50, 51, 52, 53, 54, 55, 56, 57, 58, 59, 60, 61, 62, 63, 64, 65, 66, 67, 68, 69, 70, 71, 72, 73, 74, 75, 76, 77, 78, 79, 80, 81, 82, 83, 84, 85, 86, 87, 88, 89, 90, 91, 92, 93, 94, 95, 96, 97, 98, 99, 100, 101, 102, 103, 104, 105, 106, 107, 108, 109, 110, 111, 112, 113, 114, 115, 116, 117, 118, 119, 120, 121, 122, 123, 124, 125, 126, 127, 128, 129, 130, 131, 132, 133, 134, 135, 136, 137, 138, 139, 140, 141, 142, 143, 144, 145, 146, 147, 148, 149, 150, 151, 152, 153, 154, 155, 156, 157, 158, 159, 160, 161, 162, 163, 164, 165, 166, 167, 168, 169, 170, 171, 172, 173, 174, 175, 176, 177, 178, 179, 180, 181, 182, 183, 184, 185, 186, 187, 188, 189, 190, 191, 192, 193, 194, 195, 196, 197, 198, 199, 200],
      "LargestImagePixelValue": [332, 333, 335, 334, 334, 333, 336, 332, 333, 334, 334, 333, 332, 333, 333, 334, 333, 334, 333, 334, 333, 334, 332, 334, 334, 333, 333, 333, 332, 333, 333, 334, 335, 333, 334, 333, 332, 333, 334, 333, 332, 334, 333, 334, 333, 334, 333, 334, 334, 332, 333, 333, 335, 335, 332, 333, 333, 333, 333, 333, 333, 334, 332, 333, 334, 332, 334, 332, 333, 333, 332, 334, 334, 333, 333, 333, 333, 333, 334, 333, 333, 333, 334, 333, 333, 333, 332, 333, 333, 333, 334, 333, 334, 333, 335, 334, 333, 333, 334, 333, 332, 333, 333, 333, 333, 333, 331, 332, 333, 334, 333, 333, 334, 333, 332, 332, 333, 334, 333, 333, 332, 333, 333, 334, 332, 333, 334, 333, 333, 334, 334, 333, 333, 333, 333, 333, 333, 332, 334, 333, 335, 335, 332, 332, 332, 333, 333, 333, 334, 333, 333, 332, 332, 334, 334, 333, 332, 333, 334, 335, 333, 332, 332, 332, 333, 333, 332, 332, 332, 334, 332, 334, 334, 332, 333, 332, 333, 333, 334, 332, 334, 333, 333, 332, 333, 333, 334, 334, 333, 332, 333, 334, 333, 333, 334, 333, 333, 332, 333, 332],
      "WindowCenter": [278.0, 278.0, 278.0, 278.0, 278.0, 278.0, 278.0, 278.0, 278.0, 278.0, 278.0, 278.0, 278.0, 278.0, 278.0, 278.0, 278.0, 278.0, 278.0, 278.0, 278.0, 278.0, 278.0, 278.0, 278.0, 278.0, 278.0, 278.0, 278.0, 278.0, 278.0, 278.0, 278.0, 278.0, 278.0, 278.0, 278.0, 278.0, 278.0, 278.0, 278.0, 278.0, 278.0, 278.0, 278.0, 278.0, 278.0, 278.0, 278.0, 277.0, 278.0, 278.0, 278.0, 278.0, 278.0, 278.0, 278.0, 278.0, 278.0, 278.0, 278.0, 278.0, 278.0, 278.0, 277.0, 278.0, 278.0, 278.0, 278.0, 277.0, 278.0, 278.0, 278.0, 278.0, 278.0, 278.0, 277.0, 278.0, 278.0, 277.0, 277.0, 278.0, 278.0, 278.0, 278.0, 278.0, 278.0, 278.0, 277.0, 277.0, 278.0, 277.0, 277.0, 277.0, 278.0, 277.0, 278.0, 278.0, 278.0, 278.0, 277.0, 277.0, 277.0, 277.0, 278.0, 278.0, 278.0, 277.0, 278.0, 278.0, 277.0, 277.0, 277.0, 278.0, 278.0, 277.0, 277.0, 277.0, 278.0, 278.0, 277.0, 278.0, 277.0, 277.0, 277.0, 277.0, 278.0, 277.0, 277.0, 277.0, 277.0, 277.0, 277.0, 277.0, 278.0, 277.0, 277.0, 277.0, 277.0, 277.0, 277.0, 277.0, 277.0, 277.0, 278.0, 277.0, 277.0, 278.0, 277.0, 277.0, 277.0, 277.0, 277.0, 277.0, 277.0, 277.0, 277.0, 277.0, 277.0, 278.0, 277.0, 277.0, 277.0, 277.0, 277.0, 277.0, 277.0, 277.0, 277.0, 277.0, 277.0, 277.0, 277.0, 277.0, 277.0, 277.0, 277.0, 277.0, 277.0, 277.0, 277.0, 277.0, 277.0, 277.0, 277.0, 277.0, 277.0, 277.0, 277.0, 277.0, 277.0, 277.0, 277.0, 277.0, 277.0, 277.0, 277.0, 277.0, 277.0, 277.0],
      "WindowWidth": [608.0, 608.0, 608.0, 608.0, 608.0, 609.0, 608.0, 608.0, 609.0, 609.0, 608.0, 608.0, 608.0, 609.0, 608.0, 608.0, 609.0, 608.0, 609.0, 608.0, 608.0, 608.0, 608.0, 608.0, 608.0, 609.0, 609.0, 608.0, 608.0, 609.0, 609.0, 608.0, 609.0, 608.0, 609.0, 608.0, 608.0, 608.0, 609.0, 608.0, 608.0, 608.0, 608.0, 608.0, 608.0, 608.0, 609.0, 608.0, 608.0, 607.0, 609.0, 608.0, 608.0, 608.0, 608.0, 608.0, 608.0, 608.0, 608.0, 608.0, 608.0, 608.0, 608.0, 608.0, 608.0, 608.0, 608.0, 608.0, 608.0, 607.0, 608.0, 608.0, 608.0, 608.0, 608.0, 608.0, 607.0, 608.0, 608.0, 607.0, 607.0, 608.0, 608.0, 608.0, 608.0, 608.0, 608.0, 608.0, 608.0, 608.0, 608.0, 607.0, 607.0, 608.0, 608.0, 607.0, 608.0, 608.0, 608.0, 608.0, 607.0, 607.0, 607.0, 607.0, 608.0, 608.0, 608.0, 607.0, 608.0, 608.0, 607.0, 607.0, 607.0, 608.0, 608.0, 607.0, 607.0, 607.0, 608.0, 608.0, 607.0, 608.0, 607.0, 607.0, 607.0, 607.0, 608.0, 607.0, 607.0, 607.0, 607.0, 607.0, 607.0, 607.0, 608.0, 607.0, 607.0, 607.0, 607.0, 607.0, 607.0, 607.0, 607.0, 607.0, 608.0, 607.0, 607.0, 608.0, 607.0, 607.0, 607.0, 607.0, 607.0, 607.0, 607.0, 607.0, 607.0, 607.0, 607.0, 608.0, 607.0, 607.0, 607.0, 607.0, 607.0, 607.0, 607.0, 607.0, 607.0, 607.0, 607.0, 607.0, 607.0, 607.0, 607.0, 607.0, 607.0, 607.0, 607.0, 607.0, 607.0, 607.0, 607.0, 607.0, 607.0, 607.0, 607.0, 607.0, 607.0, 607.0, 607.0, 607.0, 607.0, 607.0, 607.0, 607.0, 607.0, 607.0, 607.0, 607.0]
    },
    "slices": {}
  }
}