{
  "AcquisitionMatrixPE": 80,
  "AcquisitionNumber": 1,
  "AcquisitionTime": "10:11:25.510000",
  "BandwidthPerPixelPhaseEncode": 25,
  "BaseResolution": 80,
  "BodyPartExamined": "BRAIN",
  "CoilCombinationMethod": "Sum of Squares",
  "ConsistencyInfo": "N4_VE11C_LATEST_20160120",
  "ConversionSoftware": "dcm2niix",
  "ConversionSoftwareVersion": "v1.0.20220720",
  "DerivedVendorReportedEchoSpacing": 0.0005,
  "DeviceSerialNumber": "66112",
  "DwellTime": 2.7e-06,
  "EchoTime": 0.03,
  "EchoTrainLength": 80,
  "EffectiveEchoSpacing": 0.0005,
  "FlipAngle": 77,
  "HeudiconvVersion": "0.13.1",
  "ImageOrientationPatientDICOM": [0.993299, -0.115395, 0.00644471, 0.107907, 0.945926, 0.30591],
  "ImageOrientationText": "Tra>Cor(17.7)>Sag(2.4)",
  "ImageType": [
    "ORIGINAL",
    "PRIMARY",
    "M",
    "ND",
    "NORM",
    "MOSAIC"
],
  "ImagingFrequency": 123.253,
  "InPlanePhaseEncodingDirectionDICOM": "COL",
  "InstitutionAddress": "Maynard 3,Hanover,NH,US,03755",
  "InstitutionName": "Dartmouth College - PBS",
  "InstitutionalDepartmentName": "Department",
  "MRAcquisitionType": "2D",
  "MagneticFieldStrength": 3,
  "Manufacturer": "Siemens",
  "ManufacturersModelName": "Prisma",
  "MatrixCoilMode": "SENSE",
  "Modality": "MR",
  "NonlinearGradientCorrection": false,
  "PartialFourier": 1,
  "PatientPosition": "HFS",
  "PercentPhaseFOV": 100,
  "PercentSampling": 100,
  "PhaseEncodingDirection": "j-",
  "PhaseEncodingSteps": 80,
  "PhaseResolution": 1,
  "PixelBandwidth": 2315,
  "ProcedureStepDescription": "dbic^QA",
  "ProtocolName": "func-bold_fa-77",
  "PulseSequenceDetails": "%SiemensSeq%\\ep2d_bold",
  "ReceiveCoilActiveElements": "HEA;HEP",
  "ReceiveCoilName": "Head_32",
  "ReconMatrixPE": 80,
  "RepetitionTime": 2,
  "SAR": 0.0374563,
  "ScanOptions": "FS",
  "ScanningSequence": "EP",
  "SequenceName": "*epfid2d1_80",
  "SequenceVariant": "SK",
  "SeriesDescription": "func-bold_fa-77",
  "SeriesNumber": 8,
  "ShimSetting": [4148, -7684, -7518, 325, -79, -184, -62, 71],
  "SliceThickness": 3.5,
  "SliceTiming": [0.99, 0, 1.0575, 0.0675, 1.1225, 0.1325, 1.19, 0.2, 1.255, 0.265, 1.32, 0.33, 1.3875, 0.3975, 1.4525, 0.4625, 1.52, 0.53, 1.585, 0.595, 1.65, 0.66, 1.7175, 0.7275, 1.7825, 0.7925, 1.85, 0.86, 1.915, 0.925],
  "SoftwareVersions": "syngo MR E11",
  "SpacingBetweenSlices": 3.99,
  "StationName": "AWP66112",
  "TotalReadoutTime": 0.0395,
  "TxRefAmp": 233.584,
  "dcmmeta_affine": [
    [-2.979896306991577, 0.32372021675109863, 0.16517269611358643, 104.8171615600586],
    [0.3461850881576538, 2.8377771377563477, 1.209625244140625, -145.51943969726562],
    [0.019334129989147186, -0.917728841304779, 3.7986345291137695, -39.0926513671875],
    [0.0, 0.0, 0.0, 1.0]
],
  "dcmmeta_reorient_transform": [
    [0.0, -1.0, 0.0, 79.0],
    [1.0, 0.0, 0.0, 0.0],
    [0.0, 0.0, 1.0, 0.0],
    [0.0, 0.0, 0.0, 1.0]
],
  "dcmmeta_shape": [80, 80, 30, 200],
  "dcmmeta_slice_dim": 2,
  "dcmmeta_version": 0.6,
  "global": {
    "const": {
      "AccessionNumber": "qa",
      "AcquisitionMatrix": [80, 0, 0, 80],
      "AngioFlag": "N",
      "BitsAllocated": 16,
      "BitsStored": 12,
      "BodyPartExamined": "BRAIN",
      "Columns": 480,
      "EchoNumbers": 1,
      "EchoTime": 30.0,
      "EchoTrainLength": 80,
      "FlipAngle": 77.0,
      "HighBit": 11,
      "ImageOrientationPatient": [0.99329877302817, -0.1153950311624, 0.0064447097507, 0.10790673543032, 0.94592570813963, 0.30590961267884],
      "ImagePositionPatient": [-791.11436048594, -576.98335581046, -299.00582229331],
      "ImageType": [
        "ORIGINAL",
        "PRIMARY",
        "M",
        "ND",
        "NORM",
        "MOSAIC"
],
      "ImagedNucleus": "1H",
      "ImagingFrequency": 123.252505,
      "InPlanePhaseEncodingDirection": "COL",
      "MRAcquisitionType": "2D",
      "MagneticFieldStrength": 3.0,
      "Manufacturer": "SIEMENS",
      "ManufacturerModelName": "Prisma",
      "Modality": "MR",
      "NumberOfAverages": 1.0,
      "NumberOfPhaseEncodingSteps": 80,
      "PercentPhaseFieldOfView": 100.0,
      "PercentSampling": 100.0,
      "PerformedProcedureStepStartTime": "095549.241000",
      "PhotometricInterpretation": "MONOCHROME2",
      "PixelBandwidth": 2315.0,
      "PixelRepresentation": 0,
      "PixelSpacing": [3.0, 3.0],
      "ProtocolName": "func-bold_fa-77",
      "RepetitionTime": 2000.0,
      "Rows": 480,
      "SAR": 0.03745632541841,
      "SamplesPerPixel": 1,
      "ScanOptions": "FS",
      "ScanningSequence": "EP",
      "SequenceName": "*epfid2d1_80",
      "SequenceVariant": "SK",
      "SeriesDescription": "func-bold_fa-77",
      "SeriesNumber": 8,
      "SeriesTime": "101205.832000",
      "SliceLocation": -76.994924996039,
      "SliceThickness": 3.5,
      "SmallestImagePixelValue": 0,
      "SoftwareVersions": "syngo MR E11",
      "SpacingBetweenSlices": 3.9900000277537,
      "SpecificCharacterSet": "ISO_IR 100",
      "StudyID": "26",
      "StudyTime": "095549.190000",
      "TransmitCoilName": "Body",
      "VariableFlipAngleFlag": "N",
      "WindowCenterWidthExplanation": "Algo1",
      "dBdt": 0.0},
    "slices": {}
  },
  "time": {
    "samples": {
      "AcquisitionNumber": [1, 2, 3, 4, 5, 6, 7, 8, 9, 10, 11, 12, 13, 14, 15, 16, 17, 18, 19, 20, 21, 22, 23, 24, 25, 26, 27, 28, 29, 30, 31, 32, 33, 34, 35, 36, 37, 38, 39, 40, 41, 42, 43, 44, 45, 46, 47, 48, 49, 50, 51, 52, 53, 54, 55, 56, 57, 58, 59, 60, 61, 62, 63, 64, 65, 66, 67, 68, 69, 70, 71, 72, 73, 74, 75, 76, 77, 78, 79, 80, 81, 82, 83, 84, 85, 86, 87, 88, 89, 90, 91, 92, 93, 94, 95, 96, 97, 98, 99, 100, 101, 102, 103, 104, 105, 106, 107, 108, 109, 110, 111, 112, 113, 114, 115, 116, 117, 118, 119, 120, 121, 122, 123, 124, 125, 126, 127, 128, 129, 130, 131, 132, 133, 134, 135, 136, 137, 138, 139, 140, 141, 142, 143, 144, 145, 146, 147, 148, 149, 150, 151, 152, 153, 154, 155, 156, 157, 158, 159, 160, 161, 162, 163, 164, 165, 166, 167, 168, 169, 170, 171, 172, 173, 174, 175, 176, 177, 178, 179, 180, 181, 182, 183, 184, 185, 186, 187, 188, 189, 190, 191, 192, 193, 194, 195, 196, 197, 198, 199, 200],
      "AcquisitionTime": ["101125.510000", "101127.510000", "101129.510000", "101131.510000", "101133.510000", "101135.510000", "101137.510000", "101139.510000", "101141.510000", "101143.510000", "101145.510000", "101147.510000", "101149.510000", "101151.510000", "101153.510000", "101155.510000", "101157.510000", "101159.510000", "101201.510000", "101203.510000", "101205.510000", "101207.510000", "101209.510000", "101211.510000", "101213.510000", "101215.510000", "101217.510000", "101219.510000", "101221.510000", "101223.510000", "101225.510000", "101227.510000", "101229.510000", "101231.510000", "101233.510000", "101235.510000", "101237.510000", "101239.510000", "101241.510000", "101243.510000", "101245.510000", "101247.510000", "101249.510000", "101251.510000", "101253.510000", "101255.510000", "101257.510000", "101259.510000", "101301.510000", "101303.510000", "101305.510000", "101307.510000", "101309.510000", "101311.510000", "101313.510000", "101315.510000", "101317.510000", "101319.510000", "101321.510000", "101323.510000", "101325.510000", "101327.510000", "101329.510000", "101331.510000", "101333.510000", "101335.510000", "101337.510000", "101339.510000", "101341.510000", "101343.510000", "101345.510000", "101347.510000", "101349.510000", "101351.510000", "101353.510000", "101355.510000", "101357.510000", "101359.510000", "101401.510000", "101403.510000", "101405.510000", "101407.510000", "101409.510000", "101411.510000", "101413.510000", "101415.510000", "101417.510000", "101419.510000", "101421.510000", "101423.510000", "101425.510000", "101427.510000", "101429.510000", "101431.510000", "101433.510000", "101435.510000", "101437.510000", "101439.510000", "101441.510000", "101443.510000", "101445.510000", "101447.510000", "101449.510000", "101451.510000", "101453.510000", "101455.510000", "101457.510000", "101459.510000", "101501.510000", "101503.510000", "101505.510000", "101507.510000", "101509.510000", "101511.510000", "101513.510000", "101515.510000", "101517.510000", "101519.510000", "101521.510000", "101523.510000", "101525.510000", "101527.510000", "101529.510000", "101531.510000", "101533.510000", "101535.510000", "101537.510000", "101539.510000", "101541.510000", "101543.510000", "101545.510000", "101547.510000", "101549.510000", "101551.510000", "101553.510000", "101555.510000", "101557.510000", "101559.510000", "101601.510000", "101603.510000", "101605.510000", "101607.510000", "101609.510000", "101611.510000", "101613.510000", "101615.510000", "101617.510000", "101619.510000", "101621.510000", "101623.510000", "101625.510000", "101627.510000", "101629.510000", "101631.510000", "101633.510000", "101635.510000", "101637.510000", "101639.510000", "101641.510000", "101643.510000", "101645.510000", "101647.510000", "101649.510000", "101651.510000", "101653.510000", "101655.510000", "101657.510000", "101659.510000", "101701.510000", "101703.510000", "101705.510000", "101707.510000", "101709.510000", "101711.510000", "101713.510000", "101715.510000", "101717.510000", "101719.510000", "101721.510000", "101723.510000", "101725.510000", "101727.510000", "101729.510000", "101731.510000", "101733.510000", "101735.510000", "101737.510000", "101739.510000", "101741.510000", "101743.510000", "101745.510000", "101747.510000", "101749.510000", "101751.510000", "101753.510000", "101755.510000", "101757.510000", "101759.510000", "101801.510000", "101803.510000"],
      "ContentTime": ["101205.835000", "101205.839000", "101205.841000", "101205.844000", "101205.858000", "101205.861000", "101205.863000", "101205.866000", "101205.868000", "101205.872000", "101205.874000", "101205.877000", "101205.879000", "101205.882000", "101205.884000", "101205.887000", "101205.889000", "101205.897000", "101205.900000", "101205.902000", "101245.831000", "101245.834000", "101245.844000", "101245.847000", "101245.849000", "101245.852000", "101245.854000", "101245.857000", "101245.859000", "101245.862000", "101245.864000", "101245.867000", "101245.869000", "101245.872000", "101245.874000", "101245.877000", "101245.879000", "101245.882000", "101245.884000", "101245.887000", "101325.830000", "101325.833000", "101325.836000", "101325.838000", "101325.841000", "101325.843000", "101325.846000", "101325.848000", "101325.851000", "101325.853000", "101325.856000", "101325.858000", "101325.861000", "101325.864000", "101325.866000", "101325.869000", "101325.871000", "101325.874000", "101325.876000", "101325.879000", "101405.830000", "101405.851000", "101405.854000", "101405.856000", "101405.859000", "101405.862000", "101405.864000", "101405.867000", "101405.869000", "101405.872000", "101405.874000", "101405.877000", "101405.879000", "101405.882000", "101405.884000", "101405.887000", "101405.889000", "101405.892000", "101405.895000", "101405.897000", "101445.831000", "101445.856000", "101445.859000", "101445.861000", "101445.864000", "101445.866000", "101445.869000", "101445.871000", "101445.874000", "101445.876000", "101445.879000", "101445.881000", "101445.884000", "101445.886000", "101445.889000", "101445.891000", "101445.894000", "101445.896000", "101445.899000", "101445.901000", "101525.831000", "101525.857000", "101525.859000", "101525.862000", "101525.864000", "101525.867000", "101525.869000", "101525.872000", "101525.874000", "101525.877000", "101525.879000", "101525.882000", "101525.884000", "101525.887000", "101525.889000", "101525.892000", "101525.894000", "101525.897000", "101525.899000", "101525.902000", "101605.831000", "101605.905000", "101605.907000", "101605.910000", "101605.912000", "101605.915000", "101605.917000", "101605.920000", "101605.922000", "101605.925000", "101605.927000", "101605.930000", "101605.932000", "101605.935000", "101605.937000", "101605.940000", "101605.942000", "101605.945000", "101605.947000", "101605.950000", "101625.830000", "101625.833000", "101625.836000", "101625.838000", "101625.841000", "101625.843000", "101625.846000", "101625.848000", "101625.851000", "101625.859000", "101705.831000", "101705.834000", "101705.837000", "101705.839000", "101705.842000", "101705.845000", "101705.847000", "101705.850000", "101705.852000", "101705.855000", "101705.857000", "101705.860000", "101705.862000", "101705.865000", "101705.867000", "101705.870000", "101705.872000", "101705.875000", "101705.877000", "101705.880000", "101745.832000", "101745.834000", "101745.837000", "101745.839000", "101745.842000", "101745.844000", "101745.847000", "101745.850000", "101745.852000", "101745.855000", "101745.857000", "101745.860000", "101745.862000", "101745.865000", "101745.867000", "101745.870000", "101745.872000", "101745.875000", "101745.877000", "101745.880000", "101805.213000", "101805.216000", "101805.219000", "101805.222000", "101805.224000", "101805.227000", "101805.230000", "101805.233000", "101805.236000", "101805.238000"],
      "InstanceCreationTime": ["101205.835000", "101205.839000", "101205.841000", "101205.844000", "101205.858000", "101205.861000", "101205.863000", "101205.866000", "101205.868000", "101205.872000", "101205.874000", "101205.877000", "101205.879000", "101205.882000", "101205.884000", "101205.887000", "101205.889000", "101205.897000", "101205.900000", "101205.902000", "101245.831000", "101245.834000", "101245.844000", "101245.847000", "101245.849000", "101245.852000", "101245.854000", "101245.857000", "101245.859000", "101245.862000", "101245.864000", "101245.867000", "101245.869000", "101245.872000", "101245.874000", "101245.877000", "101245.879000", "101245.882000", "101245.884000", "101245.887000", "101325.830000", "101325.833000", "101325.836000", "101325.838000", "101325.841000", "101325.843000", "101325.846000", "101325.848000", "101325.851000", "101325.853000", "101325.856000", "101325.858000", "101325.861000", "101325.864000", "101325.866000", "101325.869000", "101325.871000", "101325.874000", "101325.876000", "101325.879000", "101405.830000", "101405.851000", "101405.854000", "101405.856000", "101405.859000", "101405.862000", "101405.864000", "101405.867000", "101405.869000", "101405.872000", "101405.874000", "101405.877000", "101405.879000", "101405.882000", "101405.884000", "101405.887000", "101405.889000", "101405.892000", "101405.895000", "101405.897000", "101445.831000", "101445.856000", "101445.859000", "101445.861000", "101445.864000", "101445.866000", "101445.869000", "101445.871000", "101445.874000", "101445.876000", "101445.879000", "101445.881000", "101445.884000", "101445.886000", "101445.889000", "101445.891000", "101445.894000", "101445.896000", "101445.899000", "101445.901000", "101525.831000", "101525.857000", "101525.859000", "101525.862000", "101525.864000", "101525.867000", "101525.869000", "101525.872000", "101525.874000", "101525.877000", "101525.879000", "101525.882000", "101525.884000", "101525.887000", "101525.889000", "101525.892000", "101525.894000", "101525.897000", "101525.899000", "101525.902000", "101605.831000", "101605.905000", "101605.907000", "101605.910000", "101605.912000", "101605.915000", "101605.917000", "101605.920000", "101605.922000", "101605.925000", "101605.927000", "101605.930000", "101605.932000", "101605.935000", "101605.937000", "101605.940000", "101605.942000", "101605.945000", "101605.947000", "101605.950000", "101625.830000", "101625.833000", "101625.836000", "101625.838000", "101625.841000", "101625.843000", "101625.846000", "101625.848000", "101625.851000", "101625.859000", "101705.831000", "101705.834000", "101705.837000", "101705.839000", "101705.842000", "101705.845000", "101705.847000", "101705.850000", "101705.852000", "101705.855000", "101705.857000", "101705.860000", "101705.862000", "101705.865000", "101705.867000", "101705.870000", "101705.872000", "101705.875000", "101705.877000", "101705.880000", "101745.832000", "101745.834000", "101745.837000", "101745.839000", "101745.842000", "101745.844000", "101745.847000", "101745.850000", "101745.852000", "101745.855000", "101745.857000", "101745.860000", "101745.862000", "101745.865000", "101745.867000", "101745.870000", "101745.872000", "101745.875000", "101745.877000", "101745.880000", "101805.213000", "101805.216000", "101805.219000", "101805.222000", "101805.224000", "101805.227000", "101805.230000", "101805.233000", "101805.236000", "101805.238000"],
      "InstanceNumber": [1, 2, 3, 4, 5, 6, 7, 8, 9, 10, 11, 12, 13, 14, 15, 16, 17, 18, 19, 20, 21, 22, 23, 24, 25, 26, 27, 28, 29, 30, 31, 32, 33, 34, 35, 36, 37, 38, 39, 40, 41, 42, 43, 44, 45, 46, 47, 48, 49, 50, 51, 52, 53, 54, 55, 56, 57, 58, 59, 60, 61, 62, 63, 64, 65, 66, 67, 68, 69, 70, 71, 72, 73, 74, 75, 76, 77, 78, 79, 80, 81, 82, 83, 84, 85, 86, 87, 88, 89, 90, 91, 92, 93, 94, 95, 96, 97, 98, 99, 100, 101, 102, 103, 104, 105, 106, 107, 108, 109, 110, 111, 112, 113, 114, 115, 116, 117, 118, 119, 120, 121, 122, 123, 124, 125, 126, 127, 128, 129, 130, 131, 132, 133, 134, 135, 136, 137, 138, 139, 140, 141, 142, 143, 144, 145, 146, 147, 148, 149, 150, 151, 152, 153, 154, 155, 156, 157, 158, 159, 160, 161, 162, 163, 164, 165, 166, 167, 168, 169, 170, 171, 172, 173, 174, 175, 176, 177, 178, 179, 180, 181, 182, 183, 184, 185, 186, 187, 188, 189, 190, 191, 192, 193, 194, 195, 196, 197, 198, 199, 200],
      "LargestImagePixelValue": [1947, 1948, 1946, 1949, 1949, 1948, 1950, 1949, 1950, 1953, 1949, 1944, 1947, 1950, 1952, 1948, 1949, 1947, 1945, 1947, 1946, 1947, 1948, 1949, 1948, 1948, 1948, 1948, 1949, 1945, 1945, 1949, 1948, 1949, 1945, 1948, 1948, 1946, 1946, 1948, 1950, 1949, 1951, 1948, 1949, 1953, 1951, 1949, 1950, 1950, 1948, 1951, 1950, 1951, 1949, 1949, 1949, 1946, 1947, 1950, 1951, 1948, 1950, 1947, 1946, 1949, 1949, 1946, 1947, 1950, 1948, 1948, 1947, 1950, 1949, 1949, 1948, 1948, 1947, 1946, 1948, 1950, 1949, 1947, 1948, 1949, 1947, 1950, 1947, 1948, 1948, 1947, 1948, 1947, 1947, 1947, 1950, 1949, 1947, 1947, 1948, 1947, 1947, 1947, 1951, 1949, 1951, 1949, 1947, 1947, 1948, 1949, 1947, 1950, 1952, 1948, 1948, 1949, 1949, 1948, 1948, 1949, 1948, 1947, 1947, 1946, 1948, 1948, 1946, 1949, 1948, 1947, 1947, 1948, 1947, 1951, 1951, 1951, 1945, 1947, 1948, 1950, 1950, 1950, 1949, 1949, 1949, 1945, 1949, 1946, 1949, 1949, 1947, 1947, 1948, 1947, 1947, 1950, 1948, 1946, 1946, 1947, 1947, 1949, 1948, 1950, 1947, 1948, 1949, 1953, 1949, 1948, 1948, 1950, 1948, 1948, 1948, 1948, 1952, 1948, 1950, 1949, 1949, 1948, 1948, 1949, 1948, 1949, 1950, 1949, 1949, 1950, 1949, 1950, 1948, 1951, 1948, 1947, 1950, 1950],
      "WindowCenter": [970.0, 969.0, 969.0, 969.0, 968.0, 970.0, 968.0, 970.0, 970.0, 968.0, 967.0, 970.0, 970.0, 969.0, 968.0, 970.0, 969.0, 970.0, 967.0, 969.0, 970.0, 968.0, 969.0, 969.0, 970.0, 970.0, 969.0, 967.0, 968.0, 969.0, 967.0, 969.0, 969.0, 967.0, 969.0, 968.0, 969.0, 969.0, 969.0, 969.0, 969.0, 969.0, 969.0, 968.0, 968.0, 969.0, 968.0, 968.0, 969.0, 968.0, 968.0, 969.0, 967.0, 968.0, 969.0, 967.0, 967.0, 968.0, 969.0, 969.0, 969.0, 969.0, 969.0, 968.0, 968.0, 966.0, 968.0, 968.0, 968.0, 968.0, 969.0, 968.0, 969.0, 969.0, 969.0, 968.0, 969.0, 969.0, 966.0, 969.0, 969.0, 968.0, 968.0, 968.0, 969.0, 967.0, 968.0, 968.0, 967.0, 967.0, 969.0, 969.0, 968.0, 967.0, 969.0, 968.0, 969.0, 968.0, 968.0, 969.0, 969.0, 967.0, 967.0, 969.0, 967.0, 969.0, 967.0, 969.0, 968.0, 969.0, 967.0, 969.0, 969.0, 968.0, 968.0, 968.0, 969.0, 969.0, 969.0, 967.0, 967.0, 967.0, 968.0, 968.0, 966.0, 967.0, 968.0, 969.0, 969.0, 969.0, 969.0, 968.0, 968.0, 968.0, 966.0, 969.0, 969.0, 969.0, 968.0, 966.0, 967.0, 967.0, 969.0, 969.0, 967.0, 969.0, 969.0, 968.0, 967.0, 969.0, 969.0, 966.0, 969.0, 967.0, 967.0, 967.0, 969.0, 966.0, 967.0, 968.0, 968.0, 968.0, 967.0, 969.0, 967.0, 969.0, 968.0, 969.0, 968.0, 968.0, 969.0, 969.0, 967.0, 969.0, 969.0, 968.0, 969.0, 969.0, 966.0, 967.0, 968.0, 968.0, 966.0, 968.0, 968.0, 968.0, 967.0, 968.0, 968.0, 968.0, 969.0, 968.0, 969.0, 968.0, 969.0, 969.0, 969.0, 967.0, 969.0, 967.0],
      "WindowWidth": [2127.0, 2126.0, 2127.0, 2127.0, 2125.0, 2127.0, 2126.0, 2127.0, 2127.0, 2126.0, 2125.0, 2127.0, 2127.0, 2126.0, 2126.0, 2126.0, 2126.0, 2126.0, 2124.0, 2126.0, 2126.0, 2125.0, 2126.0, 2126.0, 2126.0, 2126.0, 2126.0, 2125.0, 2125.0, 2126.0, 2124.0, 2126.0, 2126.0, 2124.0, 2126.0, 2125.0, 2126.0, 2125.0, 2126.0, 2126.0, 2125.0, 2125.0, 2126.0, 2125.0, 2125.0, 2126.0, 2125.0, 2125.0, 2126.0, 2125.0, 2125.0, 2126.0, 2124.0, 2125.0, 2126.0, 2124.0, 2124.0, 2125.0, 2126.0, 2126.0, 2126.0, 2126.0, 2126.0, 2125.0, 2125.0, 2123.0, 2125.0, 2125.0, 2125.0, 2124.0, 2126.0, 2125.0, 2126.0, 2126.0, 2126.0, 2125.0, 2126.0, 2126.0, 2123.0, 2126.0, 2126.0, 2125.0, 2125.0, 2125.0, 2126.0, 2124.0, 2125.0, 2125.0, 2124.0, 2124.0, 2126.0, 2126.0, 2125.0, 2124.0, 2126.0, 2125.0, 2126.0, 2125.0, 2125.0, 2126.0, 2126.0, 2124.0, 2124.0, 2126.0, 2124.0, 2125.0, 2123.0, 2125.0, 2125.0, 2126.0, 2124.0, 2126.0, 2126.0, 2125.0, 2125.0, 2125.0, 2126.0, 2126.0, 2126.0, 2124.0, 2124.0, 2124.0, 2125.0, 2125.0, 2123.0, 2124.0, 2125.0, 2125.0, 2126.0, 2126.0, 2126.0, 2125.0, 2125.0, 2125.0, 2124.0, 2126.0, 2126.0, 2126.0, 2124.0, 2122.0, 2123.0, 2124.0, 2125.0, 2126.0, 2123.0, 2126.0, 2126.0, 2124.0, 2124.0, 2125.0, 2126.0, 2123.0, 2125.0, 2124.0, 2124.0, 2124.0, 2125.0, 2123.0, 2124.0, 2124.0, 2125.0, 2124.0, 2124.0, 2125.0, 2124.0, 2125.0, 2124.0, 2125.0, 2124.0, 2124.0, 2125.0, 2125.0, 2123.0, 2125.0, 2125.0, 2124.0, 2125.0, 2125.0, 2123.0, 2123.0, 2124.0, 2124.0, 2123.0, 2124.0, 2124.0, 2125.0, 2123.0, 2124.0, 2125.0, 2124.0, 2125.0, 2124.0, 2125.0, 2125.0, 2125.0, 2125.0, 2125.0, 2123.0, 2125.0, 2123.0]
    },
    "slices": {}
  }
}