{
  "AcquisitionMatrixPE": 80,
  "AcquisitionNumber": 1,
  "AcquisitionTime": "10:04:36.152500",
  "BandwidthPerPixelPhaseEncode": 44.643,
  "BaseResolution": 80,
  "BodyPartExamined": "BRAIN",
  "CoilCombinationMethod": "Sum of Squares",
  "ConsistencyInfo": "N4_VE11C_LATEST_20160120",
  "ConversionSoftware": "dcm2niix",
  "ConversionSoftwareVersion": "v1.0.20220720",
  "DerivedVendorReportedEchoSpacing": 0.000559998,
  "DeviceSerialNumber": "66112",
  "DwellTime": 2.7e-06,
  "EchoTime": 0.035,
  "EchoTrainLength": 39,
  "EffectiveEchoSpacing": 0.000279999,
  "FlipAngle": 90,
  "HeudiconvVersion": "0.13.1",
  "ImageOrientationPatientDICOM": [0.993299, -0.115395, 0.00644471, 0.107907, 0.945926, 0.30591],
  "ImageOrientationText": "Tra>Cor(17.7)>Sag(2.4)",
  "ImageType": [
    "ORIGINAL",
    "PRIMARY",
    "M",
    "ND",
    "NORM",
    "MOSAIC"
],
  "ImagingFrequency": 123.253,
  "InPlanePhaseEncodingDirectionDICOM": "COL",
  "InstitutionAddress": "Maynard 3,Hanover,NH,US,03755",
  "InstitutionName": "Dartmouth College - PBS",
  "InstitutionalDepartmentName": "Department",
  "MRAcquisitionType": "2D",
  "MagneticFieldStrength": 3,
  "Manufacturer": "Siemens",
  "ManufacturersModelName": "Prisma",
  "Modality": "MR",
  "MultibandAccelerationFactor": 4,
  "NonlinearGradientCorrection": false,
  "ParallelReductionFactorInPlane": 2,
  "PartialFourier": 1,
  "PatientPosition": "HFS",
  "PercentPhaseFOV": 100,
  "PercentSampling": 100,
  "PhaseEncodingDirection": "j-",
  "PhaseEncodingSteps": 79,
  "PhaseResolution": 1,
  "PixelBandwidth": 2315,
  "ProcedureStepDescription": "dbic^QA",
  "ProtocolName": "func-bold_task-rest_acq-p2-s4-3.5mm",
  "PulseSequenceDetails": "%SiemensSeq%\\ep2d_bold",
  "ReceiveCoilActiveElements": "HEA;HEP",
  "ReceiveCoilName": "Head_32",
  "ReconMatrixPE": 80,
  "RefLinesPE": 24,
  "RepetitionTime": 2,
  "SAR": 0.0179229,
  "ScanOptions": "FS",
  "ScanningSequence": "EP",
  "SequenceName": "*epfid2d1_80",
  "SequenceVariant": "SK",
  "SeriesDescription": "func-bold_task-rest_acq-p2-s4-3.5mm",
  "SeriesNumber": 7,
  "ShimSetting": [4148, -7685, -7517, 323, -78, -178, -55, 72],
  "SliceThickness": 3.5,
  "SliceTiming": [1.485, 0, 0.99, 0.2475, 1.2375, 0.7425, 1.7325, 0.495, 1.485, 0, 0.99, 0.2475, 1.2375, 0.7425, 1.7325, 0.495, 1.485, 0, 0.99, 0.2475, 1.2375, 0.7425, 1.7325, 0.495, 1.485, 0, 0.99, 0.2475, 1.2375, 0.7425, 1.7325, 0.495],
  "SoftwareVersions": "syngo MR E11",
  "SpacingBetweenSlices": 3.99,
  "StationName": "AWP66112",
  "TaskName": "rest",
  "TotalReadoutTime": 0.0221199,
  "TxRefAmp": 233.584,
  "dcmmeta_affine": [
    [-2.979896306991577, 0.32372021675109863, 0.16517269611358643, 103.94690704345703],
    [0.3461850881576538, 2.8377771377563477, 1.2096251249313354, -147.5623016357422],
    [0.019334129989147186, -0.917728841304779, 3.7986345291137695, -37.327484130859375],
    [0.0, 0.0, 0.0, 1.0]
],
  "dcmmeta_reorient_transform": [
    [0.0, -1.0, 0.0, 79.0],
    [1.0, 0.0, 0.0, 0.0],
    [0.0, 0.0, 1.0, 0.0],
    [0.0, 0.0, 0.0, 1.0]
],
  "dcmmeta_shape": [80, 80, 32, 200],
  "dcmmeta_slice_dim": 2,
  "dcmmeta_version": 0.6,
  "global": {
    "const": {
      "AccessionNumber": "qa",
      "AcquisitionMatrix": [80, 0, 0, 80],
      "AngioFlag": "N",
      "BitsAllocated": 16,
      "BitsStored": 12,
      "BodyPartExamined": "BRAIN",
      "Columns": 480,
      "EchoNumbers": 1,
      "EchoTime": 35.0,
      "EchoTrainLength": 39,
      "FlipAngle": 90.0,
      "HighBit": 11,
      "ImageOrientationPatient": [0.99329877302817, -0.1153950311624, 0.0064447097507, 0.10790673543032, 0.94592570813963, 0.30590961267884],
      "ImagePositionPatient": [-790.24411049929, -574.94049959403, -297.24065505698],
      "ImageType": [
        "ORIGINAL",
        "PRIMARY",
        "M",
        "ND",
        "NORM",
        "MOSAIC"
],
      "ImagedNucleus": "1H",
      "ImagingFrequency": 123.252506,
      "InPlanePhaseEncodingDirection": "COL",
      "MRAcquisitionType": "2D",
      "MagneticFieldStrength": 3.0,
      "Manufacturer": "SIEMENS",
      "ManufacturerModelName": "Prisma",
      "Modality": "MR",
      "NumberOfAverages": 1.0,
      "NumberOfPhaseEncodingSteps": 79,
      "PercentPhaseFieldOfView": 100.0,
      "PercentSampling": 100.0,
      "PerformedProcedureStepStartTime": "095549.241000",
      "PhotometricInterpretation": "MONOCHROME2",
      "PixelBandwidth": 2315.0,
      "PixelRepresentation": 0,
      "PixelSpacing": [3.0, 3.0],
      "ProtocolName": "func-bold_task-rest_acq-p2-s4-3.5mm",
      "RepetitionTime": 2000.0,
      "Rows": 480,
      "SAR": 0.01792285050032,
      "SamplesPerPixel": 1,
      "ScanOptions": "FS",
      "ScanningSequence": "EP",
      "SequenceName": "*epfid2d1_80",
      "SequenceVariant": "SK",
      "SeriesDescription": "func-bold_task-rest_acq-p2-s4-3.5mm",
      "SeriesNumber": 7,
      "SeriesTime": "100525.762000",
      "SliceLocation": -75.96976374311,
      "SliceThickness": 3.5,
      "SmallestImagePixelValue": 0,
      "SoftwareVersions": "syngo MR E11",
      "SpacingBetweenSlices": 3.9899998468055,
      "SpecificCharacterSet": "ISO_IR 100",
      "StudyID": "26",
      "StudyTime": "095549.190000",
      "TransmitCoilName": "Body",
      "VariableFlipAngleFlag": "N",
      "WindowCenterWidthExplanation": "Algo1",
      "dBdt": 0.0},
    "slices": {}
  },
  "time": {
    "samples": {
      "AcquisitionNumber": [1, 2, 3, 4, 5, 6, 7, 8, 9, 10, 11, 12, 13, 14, 15, 16, 17, 18, 19, 20, 21, 22, 23, 24, 25, 26, 27, 28, 29, 30, 31, 32, 33, 34, 35, 36, 37, 38, 39, 40, 41, 42, 43, 44, 45, 46, 47, 48, 49, 50, 51, 52, 53, 54, 55, 56, 57, 58, 59, 60, 61, 62, 63, 64, 65, 66, 67, 68, 69, 70, 71, 72, 73, 74, 75, 76, 77, 78, 79, 80, 81, 82, 83, 84, 85, 86, 87, 88, 89, 90, 91, 92, 93, 94, 95, 96, 97, 98, 99, 100, 101, 102, 103, 104, 105, 106, 107, 108, 109, 110, 111, 112, 113, 114, 115, 116, 117, 118, 119, 120, 121, 122, 123, 124, 125, 126, 127, 128, 129, 130, 131, 132, 133, 134, 135, 136, 137, 138, 139, 140, 141, 142, 143, 144, 145, 146, 147, 148, 149, 150, 151, 152, 153, 154, 155, 156, 157, 158, 159, 160, 161, 162, 163, 164, 165, 166, 167, 168, 169, 170, 171, 172, 173, 174, 175, 176, 177, 178, 179, 180, 181, 182, 183, 184, 185, 186, 187, 188, 189, 190, 191, 192, 193, 194, 195, 196, 197, 198, 199, 200],
      "AcquisitionTime": ["100436.152500", "100438.152500", "100440.152500", "100442.152500", "100444.152500", "100446.152500", "100448.152500", "100450.152500", "100452.152500", "100454.152500", "100456.152500", "100458.152500", "100500.152500", "100502.152500", "100504.152500", "100506.152500", "100508.152500", "100510.152500", "100512.152500", "100514.152500", "100516.152500", "100518.152500", "100520.152500", "100522.152500", "100524.152500", "100526.152500", "100528.152500", "100530.152500", "100532.152500", "100534.152500", "100536.152500", "100538.152500", "100540.152500", "100542.152500", "100544.152500", "100546.152500", "100548.152500", "100550.152500", "100552.152500", "100554.152500", "100556.152500", "100558.152500", "100600.152500", "100602.152500", "100604.152500", "100606.152500", "100608.152500", "100610.152500", "100612.152500", "100614.152500", "100616.152500", "100618.152500", "100620.152500", "100622.152500", "100624.152500", "100626.152500", "100628.152500", "100630.152500", "100632.152500", "100634.152500", "100636.152500", "100638.152500", "100640.152500", "100642.152500", "100644.152500", "100646.152500", "100648.152500", "100650.152500", "100652.152500", "100654.152500", "100656.152500", "100658.152500", "100700.152500", "100702.152500", "100704.152500", "100706.152500", "100708.152500", "100710.152500", "100712.152500", "100714.152500", "100716.152500", "100718.152500", "100720.152500", "100722.152500", "100724.152500", "100726.152500", "100728.152500", "100730.152500", "100732.152500", "100734.152500", "100736.152500", "100738.152500", "100740.152500", "100742.152500", "100744.152500", "100746.152500", "100748.152500", "100750.152500", "100752.152500", "100754.152500", "100756.152500", "100758.152500", "100800.152500", "100802.152500", "100804.152500", "100806.152500", "100808.152500", "100810.152500", "100812.152500", "100814.152500", "100816.152500", "100818.152500", "100820.152500", "100822.152500", "100824.152500", "100826.152500", "100828.152500", "100830.152500", "100832.152500", "100834.152500", "100836.152500", "100838.152500", "100840.152500", "100842.152500", "100844.152500", "100846.152500", "100848.152500", "100850.152500", "100852.152500", "100854.152500", "100856.152500", "100858.152500", "100900.152500", "100902.152500", "100904.152500", "100906.152500", "100908.152500", "100910.152500", "100912.152500", "100914.152500", "100916.152500", "100918.152500", "100920.152500", "100922.152500", "100924.152500", "100926.152500", "100928.152500", "100930.152500", "100932.152500", "100934.152500", "100936.152500", "100938.152500", "100940.152500", "100942.152500", "100944.152500", "100946.152500", "100948.152500", "100950.152500", "100952.152500", "100954.152500", "100956.152500", "100958.152500", "101000.152500", "101002.152500", "101004.152500", "101006.152500", "101008.152500", "101010.152500", "101012.152500", "101014.152500", "101016.152500", "101018.152500", "101020.152500", "101022.152500", "101024.152500", "101026.152500", "101028.152500", "101030.152500", "101032.152500", "101034.152500", "101036.152500", "101038.152500", "101040.152500", "101042.152500", "101044.152500", "101046.152500", "101048.152500", "101050.152500", "101052.152500", "101054.152500", "101056.152500", "101058.152500", "101100.152500", "101102.152500", "101104.152500", "101106.152500", "101108.152500", "101110.152500", "101112.152500", "101114.152500"],
      "ContentTime": ["100525.765000", "100525.769000", "100525.771000", "100525.781000", "100525.784000", "100525.792000", "100525.795000", "100525.797000", "100525.800000", "100525.802000", "100525.805000", "100525.807000", "100525.810000", "100525.812000", "100525.825000", "100525.827000", "100525.830000", "100525.833000", "100525.835000", "100525.838000", "100525.840000", "100525.843000", "100525.845000", "100525.848000", "100525.851000", "100605.760000", "100605.763000", "100605.766000", "100605.769000", "100605.771000", "100605.774000", "100605.776000", "100605.779000", "100605.781000", "100605.784000", "100605.787000", "100605.789000", "100605.792000", "100605.794000", "100605.797000", "100605.800000", "100605.802000", "100605.820000", "100605.822000", "100605.825000", "100645.760000", "100645.762000", "100645.765000", "100645.768000", "100645.770000", "100645.773000", "100645.775000", "100645.778000", "100645.780000", "100645.783000", "100645.786000", "100645.788000", "100645.791000", "100645.793000", "100645.796000", "100645.798000", "100645.801000", "100645.803000", "100645.806000", "100645.809000", "100725.760000", "100725.762000", "100725.765000", "100725.768000", "100725.770000", "100725.773000", "100725.775000", "100725.778000", "100725.780000", "100725.783000", "100725.786000", "100725.788000", "100725.791000", "100725.793000", "100725.796000", "100725.798000", "100725.801000", "100725.803000", "100725.806000", "100725.808000", "100805.760000", "100805.763000", "100805.766000", "100805.769000", "100805.771000", "100805.774000", "100805.776000", "100805.779000", "100805.782000", "100805.784000", "100805.787000", "100805.789000", "100805.792000", "100805.794000", "100805.797000", "100805.800000", "100805.802000", "100805.805000", "100805.807000", "100805.810000", "100845.759000", "100845.762000", "100845.765000", "100845.767000", "100845.770000", "100845.773000", "100845.779000", "100845.782000", "100845.784000", "100845.787000", "100845.789000", "100845.792000", "100845.794000", "100845.797000", "100845.800000", "100845.802000", "100845.805000", "100845.807000", "100845.810000", "100845.813000", "100925.759000", "100925.762000", "100925.765000", "100925.768000", "100925.770000", "100925.773000", "100925.775000", "100925.778000", "100925.780000", "100925.783000", "100925.786000", "100925.788000", "100925.791000", "100925.793000", "100925.796000", "100925.799000", "100925.801000", "100925.804000", "100925.806000", "100925.809000", "101005.760000", "101005.763000", "101005.766000", "101005.769000", "101005.771000", "101005.774000", "101005.776000", "101005.779000", "101005.782000", "101005.784000", "101005.787000", "101005.789000", "101005.792000", "101005.794000", "101005.797000", "101005.800000", "101005.802000", "101005.805000", "101005.807000", "101005.810000", "101045.761000", "101045.763000", "101045.766000", "101045.769000", "101045.771000", "101045.774000", "101045.776000", "101045.779000", "101045.782000", "101045.784000", "101045.787000", "101045.789000", "101045.792000", "101045.794000", "101045.797000", "101045.800000", "101045.802000", "101045.805000", "101045.807000", "101045.810000", "101114.931000", "101114.934000", "101114.937000", "101114.939000", "101114.942000", "101114.944000", "101114.947000", "101114.950000", "101114.953000", "101114.955000", "101114.958000", "101114.967000", "101114.970000", "101114.973000", "101114.976000"],
      "InstanceCreationTime": ["100525.765000", "100525.769000", "100525.771000", "100525.781000", "100525.784000", "100525.792000", "100525.795000", "100525.797000", "100525.800000", "100525.802000", "100525.805000", "100525.807000", "100525.810000", "100525.812000", "100525.825000", "100525.827000", "100525.830000", "100525.833000", "100525.835000", "100525.838000", "100525.840000", "100525.843000", "100525.845000", "100525.848000", "100525.851000", "100605.760000", "100605.763000", "100605.766000", "100605.769000", "100605.771000", "100605.774000", "100605.776000", "100605.779000", "100605.781000", "100605.784000", "100605.787000", "100605.789000", "100605.792000", "100605.794000", "100605.797000", "100605.800000", "100605.802000", "100605.820000", "100605.822000", "100605.825000", "100645.760000", "100645.762000", "100645.765000", "100645.768000", "100645.770000", "100645.773000", "100645.775000", "100645.778000", "100645.780000", "100645.783000", "100645.786000", "100645.788000", "100645.791000", "100645.793000", "100645.796000", "100645.798000", "100645.801000", "100645.803000", "100645.806000", "100645.809000", "100725.760000", "100725.762000", "100725.765000", "100725.768000", "100725.770000", "100725.773000", "100725.775000", "100725.778000", "100725.780000", "100725.783000", "100725.786000", "100725.788000", "100725.791000", "100725.793000", "100725.796000", "100725.798000", "100725.801000", "100725.803000", "100725.806000", "100725.808000", "100805.760000", "100805.763000", "100805.766000", "100805.769000", "100805.771000", "100805.774000", "100805.776000", "100805.779000", "100805.782000", "100805.784000", "100805.787000", "100805.789000", "100805.792000", "100805.794000", "100805.797000", "100805.800000", "100805.802000", "100805.805000", "100805.807000", "100805.810000", "100845.759000", "100845.762000", "100845.765000", "100845.767000", "100845.770000", "100845.773000", "100845.779000", "100845.782000", "100845.784000", "100845.787000", "100845.789000", "100845.792000", "100845.794000", "100845.797000", "100845.800000", "100845.802000", "100845.805000", "100845.807000", "100845.810000", "100845.813000", "100925.759000", "100925.762000", "100925.765000", "100925.768000", "100925.770000", "100925.773000", "100925.775000", "100925.778000", "100925.780000", "100925.783000", "100925.786000", "100925.788000", "100925.791000", "100925.793000", "100925.796000", "100925.799000", "100925.801000", "100925.804000", "100925.806000", "100925.809000", "101005.760000", "101005.763000", "101005.766000", "101005.769000", "101005.771000", "101005.774000", "101005.776000", "101005.779000", "101005.782000", "101005.784000", "101005.787000", "101005.789000", "101005.792000", "101005.794000", "101005.797000", "101005.800000", "101005.802000", "101005.805000", "101005.807000", "101005.810000", "101045.761000", "101045.763000", "101045.766000", "101045.769000", "101045.771000", "101045.774000", "101045.776000", "101045.779000", "101045.782000", "101045.784000", "101045.787000", "101045.789000", "101045.792000", "101045.794000", "101045.797000", "101045.800000", "101045.802000", "101045.805000", "101045.807000", "101045.810000", "101114.931000", "101114.934000", "101114.937000", "101114.939000", "101114.942000", "101114.944000", "101114.947000", "101114.950000", "101114.953000", "101114.955000", "101114.958000", "101114.967000", "101114.970000", "101114.973000", "101114.976000"],
      "InstanceNumber": [1, 2, 3, 4, 5, 6, 7, 8, 9, 10, 11, 12, 13, 14, 15, 16, 17, 18, 19, 20, 21, 22, 23, 24, 25, 26, 27, 28, 29, 30, 31, 32, 33, 34, 35, 36, 37, 38, 39, 40, 41, 42, 43, 44, 45, 46, 47, 48, 49, 50, 51, 52, 53, 54, 55, 56, 57, 58, 59, 60, 61, 62, 63, 64, 65, 66, 67, 68, 69, 70, 71, 72, 73, 74, 75, 76, 77, 78, 79, 80, 81, 82, 83, 84, 85, 86, 87, 88, 89, 90, 91, 92, 93, 94, 95, 96, 97, 98, 99, 100, 101, 102, 103, 104, 105, 106, 107, 108, 109, 110, 111, 112, 113, 114, 115, 116, 117, 118, 119, 120, 121, 122, 123, 124, 125, 126, 127, 128, 129, 130, 131, 132, 133, 134, 135, 136, 137, 138, 139, 140, 141, 142, 143, 144, 145, 146, 147, 148, 149, 150, 151, 152, 153, 154, 155, 156, 157, 158, 159, 160, 161, 162, 163, 164, 165, 166, 167, 168, 169, 170, 171, 172, 173, 174, 175, 176, 177, 178, 179, 180, 181, 182, 183, 184, 185, 186, 187, 188, 189, 190, 191, 192, 193, 194, 195, 196, 197, 198, 199, 200],
      "LargestImagePixelValue": [1940, 1949, 1946, 1946, 1946, 1946, 1947, 1943, 1945, 1948, 1943, 1943, 1945, 1948, 1947, 1945, 1949, 1941, 1947, 1948, 1945, 1944, 1946, 1945, 1943, 1941, 1949, 1948, 1943, 1945, 1945, 1947, 1945, 1946, 1944, 1948, 1944, 1948, 1948, 1945, 1942, 1947, 1942, 1939, 1947, 1943, 1947, 1946, 1948, 1942, 1945, 1948, 1949, 1949, 1947, 1949, 1946, 1945, 1946, 1946, 1949, 1948, 1950, 1948, 1947, 1944, 1949, 1951, 1944, 1950, 1943, 1948, 1944, 1945, 1944, 1946, 1945, 1952, 1952, 1945, 1944, 1948, 1948, 1943, 1947, 1947, 1945, 1945, 1947, 1947, 1946, 1946, 1944, 1946, 1943, 1944, 1946, 1946, 1945, 1947, 1947, 1947, 1947, 1947, 1946, 1945, 1946, 1945, 1943, 1948, 1944, 1951, 1950, 1948, 1946, 1947, 1945, 1945, 1946, 1941, 1946, 1948, 1945, 1944, 1947, 1944, 1951, 1947, 1944, 1949, 1944, 1944, 1946, 1944, 1947, 1945, 1942, 1943, 1949, 1945, 1946, 1945, 1939, 1943, 1945, 1943, 1947, 1942, 1950, 1951, 1945, 1944, 1942, 1948, 1951, 1950, 1950, 1950, 1944, 1940, 1943, 1944, 1949, 1943, 1941, 1945, 1939, 1943, 1945, 1945, 1946, 1946, 1948, 1946, 1947, 1945, 1944, 1945, 1948, 1945, 1944, 1939, 1944, 1946, 1949, 1949, 1950, 1948, 1949, 1945, 1945, 1947, 1943, 1940, 1945, 1945, 1945, 1951, 1946, 1947],
      "WindowCenter": [918.0, 918.0, 918.0, 918.0, 918.0, 918.0, 918.0, 918.0, 918.0, 918.0, 917.0, 918.0, 918.0, 918.0, 918.0, 918.0, 918.0, 917.0, 917.0, 918.0, 918.0, 918.0, 918.0, 918.0, 918.0, 918.0, 918.0, 917.0, 917.0, 917.0, 917.0, 917.0, 918.0, 917.0, 918.0, 918.0, 918.0, 918.0, 918.0, 918.0, 918.0, 918.0, 918.0, 918.0, 918.0, 918.0, 918.0, 918.0, 918.0, 918.0, 918.0, 917.0, 918.0, 918.0, 918.0, 918.0, 918.0, 917.0, 918.0, 918.0, 918.0, 918.0, 918.0, 918.0, 918.0, 918.0, 918.0, 918.0, 918.0, 918.0, 918.0, 918.0, 918.0, 918.0, 918.0, 917.0, 918.0, 918.0, 918.0, 918.0, 918.0, 918.0, 917.0, 918.0, 918.0, 917.0, 917.0, 917.0, 917.0, 918.0, 917.0, 917.0, 917.0, 918.0, 918.0, 917.0, 917.0, 917.0, 918.0, 918.0, 917.0, 917.0, 917.0, 917.0, 917.0, 917.0, 917.0, 917.0, 918.0, 918.0, 917.0, 918.0, 917.0, 918.0, 917.0, 917.0, 918.0, 918.0, 917.0, 918.0, 917.0, 918.0, 917.0, 917.0, 918.0, 917.0, 918.0, 918.0, 917.0, 917.0, 917.0, 917.0, 917.0, 917.0, 918.0, 917.0, 917.0, 917.0, 917.0, 918.0, 917.0, 918.0, 917.0, 917.0, 917.0, 917.0, 917.0, 917.0, 917.0, 917.0, 917.0, 917.0, 917.0, 917.0, 917.0, 917.0, 917.0, 917.0, 917.0, 917.0, 917.0, 917.0, 917.0, 918.0, 917.0, 917.0, 917.0, 917.0, 917.0, 917.0, 917.0, 917.0, 917.0, 917.0, 918.0, 917.0, 917.0, 917.0, 917.0, 918.0, 917.0, 917.0, 917.0, 917.0, 917.0, 917.0, 917.0, 917.0, 917.0, 917.0, 918.0, 917.0, 917.0, 917.0, 917.0, 917.0, 917.0, 917.0, 917.0, 918.0],
      "WindowWidth": [2084.0, 2084.0, 2084.0, 2084.0, 2084.0, 2084.0, 2084.0, 2084.0, 2084.0, 2084.0, 2083.0, 2084.0, 2084.0, 2084.0, 2084.0, 2084.0, 2084.0, 2084.0, 2084.0, 2085.0, 2084.0, 2084.0, 2084.0, 2084.0, 2084.0, 2084.0, 2084.0, 2084.0, 2084.0, 2083.0, 2084.0, 2083.0, 2084.0, 2083.0, 2084.0, 2084.0, 2084.0, 2084.0, 2084.0, 2084.0, 2084.0, 2084.0, 2084.0, 2084.0, 2084.0, 2084.0, 2084.0, 2084.0, 2085.0, 2084.0, 2084.0, 2084.0, 2084.0, 2084.0, 2084.0, 2084.0, 2084.0, 2084.0, 2084.0, 2084.0, 2084.0, 2084.0, 2084.0, 2084.0, 2084.0, 2084.0, 2084.0, 2084.0, 2084.0, 2084.0, 2084.0, 2084.0, 2084.0, 2084.0, 2084.0, 2084.0, 2084.0, 2084.0, 2084.0, 2084.0, 2084.0, 2084.0, 2084.0, 2084.0, 2084.0, 2084.0, 2084.0, 2084.0, 2084.0, 2084.0, 2084.0, 2084.0, 2083.0, 2084.0, 2084.0, 2084.0, 2084.0, 2083.0, 2084.0, 2084.0, 2083.0, 2084.0, 2084.0, 2084.0, 2084.0, 2084.0, 2084.0, 2084.0, 2084.0, 2084.0, 2083.0, 2084.0, 2084.0, 2084.0, 2084.0, 2084.0, 2084.0, 2084.0, 2084.0, 2084.0, 2083.0, 2084.0, 2083.0, 2083.0, 2084.0, 2083.0, 2084.0, 2083.0, 2083.0, 2083.0, 2083.0, 2083.0, 2083.0, 2083.0, 2084.0, 2083.0, 2083.0, 2083.0, 2083.0, 2084.0, 2083.0, 2084.0, 2084.0, 2083.0, 2083.0, 2084.0, 2084.0, 2083.0, 2084.0, 2084.0, 2083.0, 2083.0, 2083.0, 2083.0, 2083.0, 2083.0, 2083.0, 2083.0, 2083.0, 2083.0, 2083.0, 2083.0, 2083.0, 2084.0, 2083.0, 2083.0, 2083.0, 2083.0, 2083.0, 2084.0, 2083.0, 2083.0, 2083.0, 2084.0, 2084.0, 2083.0, 2083.0, 2083.0, 2083.0, 2084.0, 2083.0, 2083.0, 2083.0, 2083.0, 2083.0, 2083.0, 2083.0, 2083.0, 2083.0, 2083.0, 2084.0, 2083.0, 2083.0, 2083.0, 2083.0, 2083.0, 2083.0, 2083.0, 2083.0, 2084.0]
    },
    "slices": {}
  }
}