{
  "AcquisitionMatrixPE": 80,
  "AcquisitionNumber": 1,
  "AcquisitionTime": "10:34:41.447500",
  "BandwidthPerPixelPhaseEncode": 25,
  "BaseResolution": 80,
  "BodyPartExamined": "BRAIN",
  "CoilCombinationMethod": "Sum of Squares",
  "ConsistencyInfo": "N4_VE11E_LATEST_20181129",
  "ConversionSoftware": "dcm2niix",
  "ConversionSoftwareVersion": "v1.0.20220720",
  "DerivedVendorReportedEchoSpacing": 0.0005,
  "DeviceSerialNumber": "66112",
  "DwellTime": 2.7e-06,
  "EchoTime": 0.03,
  "EchoTrainLength": 80,
  "EffectiveEchoSpacing": 0.0005,
  "FlipAngle": 77,
  "HeudiconvVersion": "0.13.1",
  "ImageOrientationPatientDICOM": [0.999972, 0.00705812, 0.00257618, -0.00750478, 0.954838, 0.297031],
  "ImageOrientationText": "Tra>Cor(17.3)>Sag(0.0)",
  "ImageType": [
    "ORIGINAL",
    "PRIMARY",
    "M",
    "ND",
    "NORM",
    "MOSAIC"
],
  "ImagingFrequency": 123.261,
  "InPlanePhaseEncodingDirectionDICOM": "COL",
  "InstitutionAddress": "Maynard 3,Hanover,NH,US,03755",
  "InstitutionName": "Dartmouth College - PBS",
  "InstitutionalDepartmentName": "Department",
  "MRAcquisitionType": "2D",
  "MagneticFieldStrength": 3,
  "Manufacturer": "Siemens",
  "ManufacturersModelName": "Prisma",
  "MatrixCoilMode": "SENSE",
  "Modality": "MR",
  "NonlinearGradientCorrection": false,
  "PartialFourier": 1,
  "PatientPosition": "HFS",
  "PercentPhaseFOV": 100,
  "PercentSampling": 100,
  "PhaseEncodingDirection": "j-",
  "PhaseEncodingSteps": 80,
  "PhaseResolution": 1,
  "PixelBandwidth": 2315,
  "ProcedureStepDescription": "dbic^QA",
  "ProtocolName": "func-bold_fa-77",
  "PulseSequenceDetails": "%SiemensSeq%\\ep2d_bold",
  "ReceiveCoilActiveElements": "HEA;HEP",
  "ReceiveCoilName": "Head_32",
  "ReconMatrixPE": 80,
  "RepetitionTime": 2,
  "SAR": 0.0431251,
  "ScanOptions": "FS",
  "ScanningSequence": "EP",
  "SequenceName": "*epfid2d1_80",
  "SequenceVariant": "SK",
  "SeriesDescription": "func-bold_fa-77",
  "SeriesNumber": 7,
  "ShimSetting": [4245, -7735, -7484, -11, -180, -59, -12, 88],
  "SliceThickness": 3.5,
  "SliceTiming": [0.99, 0, 1.055, 0.065, 1.1225, 0.1325, 1.1875, 0.1975, 1.2525, 0.2625, 1.32, 0.33, 1.385, 0.395, 1.4525, 0.4625, 1.5175, 0.5275, 1.5825, 0.5925, 1.65, 0.66, 1.715, 0.725, 1.7825, 0.7925, 1.8475, 0.8575, 1.9125, 0.9225],
  "SoftwareVersions": "syngo MR E11",
  "SpacingBetweenSlices": 3.99,
  "StationName": "AWP66112",
  "TotalReadoutTime": 0.0395,
  "TxRefAmp": 222.629,
  "dcmmeta_affine": [
    [-2.999915361404419, -0.022514326497912407, 0.001449783449061215, 120.86419677734375],
    [-0.021174348890781403, 2.8645153045654297, 1.185196042060852, -130.4065399169922],
    [0.007728525437414646, -0.8910919427871704, 3.8099093437194824, -22.30238914489746],
    [0.0, 0.0, 0.0, 1.0]
],
  "dcmmeta_reorient_transform": [
    [0.0, -1.0, 0.0, 79.0],
    [1.0, 0.0, 0.0, 0.0],
    [0.0, 0.0, 1.0, 0.0],
    [0.0, 0.0, 0.0, 1.0]
],
  "dcmmeta_shape": [80, 80, 30, 200],
  "dcmmeta_slice_dim": 2,
  "dcmmeta_version": 0.6,
  "global": {
    "const": {
      "AccessionNumber": "qa",
      "AcquisitionMatrix": [80, 0, 0, 80],
      "AngioFlag": "N",
      "BitsAllocated": 16,
      "BitsStored": 12,
      "BodyPartExamined": "BRAIN",
      "Columns": 480,
      "EchoNumbers": 1,
      "EchoTime": 30.0,
      "EchoTrainLength": 80,
      "FlipAngle": 77.0,
      "HighBit": 11,
      "ImageOrientationPatient": [0.99997177275875, 0.00705811638736, 0.00257617522262, -0.0075047757734, 0.95483845211009, 0.29703065281649],
      "ImagePositionPatient": [-714.56576034805, -673.02811667473, -272.46275053874],
      "ImageType": [
        "ORIGINAL",
        "PRIMARY",
        "M",
        "ND",
        "NORM",
        "MOSAIC"
],
      "ImagedNucleus": "1H",
      "ImagingFrequency": 123.261243,
      "InPlanePhaseEncodingDirection": "COL",
      "MRAcquisitionType": "2D",
      "MagneticFieldStrength": 3.0,
      "Manufacturer": "SIEMENS",
      "ManufacturerModelName": "Prisma",
      "Modality": "MR",
      "NumberOfAverages": 1.0,
      "NumberOfPhaseEncodingSteps": 80,
      "PercentPhaseFieldOfView": 100.0,
      "PercentSampling": 100.0,
      "PerformedProcedureStepStartTime": "101337.660000",
      "PhotometricInterpretation": "MONOCHROME2",
      "PixelBandwidth": 2315.0,
      "PixelRepresentation": 0,
      "PixelSpacing": [3.0, 3.0],
      "ProtocolName": "func-bold_fa-77",
      "RepetitionTime": 2000.0,
      "Rows": 480,
      "SAR": 0.0431251262674,
      "SamplesPerPixel": 1,
      "ScanOptions": "FS",
      "ScanningSequence": "EP",
      "SequenceName": "*epfid2d1_80",
      "SequenceVariant": "SK",
      "SeriesDescription": "func-bold_fa-77",
      "SeriesNumber": 7,
      "SeriesTime": "103536.100000",
      "SliceLocation": -59.988009157606,
      "SliceThickness": 3.5,
      "SmallestImagePixelValue": 0,
      "SoftwareVersions": "syngo MR E11",
      "SpacingBetweenSlices": 3.9900000582304,
      "SpecificCharacterSet": "ISO_IR 100",
      "StudyID": "40",
      "StudyTime": "101337.606000",
      "TransmitCoilName": "Body",
      "VariableFlipAngleFlag": "N",
      "WindowCenterWidthExplanation": "Algo1"
    },
    "slices": {}
  },
  "time": {
    "samples": {
      "AcquisitionNumber": [1, 2, 3, 4, 5, 6, 7, 8, 9, 10, 11, 12, 13, 14, 15, 16, 17, 18, 19, 20, 21, 22, 23, 24, 25, 26, 27, 28, 29, 30, 31, 32, 33, 34, 35, 36, 37, 38, 39, 40, 41, 42, 43, 44, 45, 46, 47, 48, 49, 50, 51, 52, 53, 54, 55, 56, 57, 58, 59, 60, 61, 62, 63, 64, 65, 66, 67, 68, 69, 70, 71, 72, 73, 74, 75, 76, 77, 78, 79, 80, 81, 82, 83, 84, 85, 86, 87, 88, 89, 90, 91, 92, 93, 94, 95, 96, 97, 98, 99, 100, 101, 102, 103, 104, 105, 106, 107, 108, 109, 110, 111, 112, 113, 114, 115, 116, 117, 118, 119, 120, 121, 122, 123, 124, 125, 126, 127, 128, 129, 130, 131, 132, 133, 134, 135, 136, 137, 138, 139, 140, 141, 142, 143, 144, 145, 146, 147, 148, 149, 150, 151, 152, 153, 154, 155, 156, 157, 158, 159, 160, 161, 162, 163, 164, 165, 166, 167, 168, 169, 170, 171, 172, 173, 174, 175, 176, 177, 178, 179, 180, 181, 182, 183, 184, 185, 186, 187, 188, 189, 190, 191, 192, 193, 194, 195, 196, 197, 198, 199, 200],
      "AcquisitionTime": ["103441.447500", "103443.447500", "103445.447500", "103447.447500", "103449.447500", "103451.447500", "103453.447500", "103455.447500", "103457.447500", "103459.447500", "103501.447500", "103503.447500", "103505.447500", "103507.447500", "103509.447500", "103511.447500", "103513.447500", "103515.447500", "103517.447500", "103519.447500", "103521.447500", "103523.447500", "103525.447500", "103527.447500", "103529.447500", "103531.447500", "103533.447500", "103535.447500", "103537.447500", "103539.447500", "103541.447500", "103543.447500", "103545.447500", "103547.447500", "103549.447500", "103551.447500", "103553.447500", "103555.447500", "103557.447500", "103559.447500", "103601.447500", "103603.447500", "103605.447500", "103607.447500", "103609.447500", "103611.447500", "103613.447500", "103615.447500", "103617.447500", "103619.447500", "103621.447500", "103623.447500", "103625.447500", "103627.447500", "103629.447500", "103631.447500", "103633.447500", "103635.447500", "103637.447500", "103639.447500", "103641.447500", "103643.447500", "103645.447500", "103647.447500", "103649.447500", "103651.447500", "103653.447500", "103655.447500", "103657.447500", "103659.447500", "103701.447500", "103703.447500", "103705.447500", "103707.447500", "103709.447500", "103711.447500", "103713.447500", "103715.447500", "103717.447500", "103719.447500", "103721.447500", "103723.447500", "103725.447500", "103727.447500", "103729.447500", "103731.447500", "103733.447500", "103735.447500", "103737.447500", "103739.447500", "103741.447500", "103743.447500", "103745.447500", "103747.447500", "103749.447500", "103751.447500", "103753.447500", "103755.447500", "103757.447500", "103759.447500", "103801.447500", "103803.447500", "103805.447500", "103807.447500", "103809.447500", "103811.447500", "103813.447500", "103815.447500", "103817.447500", "103819.447500", "103821.447500", "103823.447500", "103825.447500", "103827.447500", "103829.447500", "103831.447500", "103833.447500", "103835.447500", "103837.447500", "103839.447500", "103841.447500", "103843.447500", "103845.447500", "103847.447500", "103849.447500", "103851.447500", "103853.447500", "103855.447500", "103857.447500", "103859.447500", "103901.447500", "103903.447500", "103905.447500", "103907.447500", "103909.447500", "103911.447500", "103913.447500", "103915.447500", "103917.447500", "103919.447500", "103921.447500", "103923.447500", "103925.447500", "103927.447500", "103929.447500", "103931.447500", "103933.447500", "103935.447500", "103937.447500", "103939.447500", "103941.447500", "103943.447500", "103945.447500", "103947.447500", "103949.447500", "103951.447500", "103953.447500", "103955.447500", "103957.447500", "103959.447500", "104001.447500", "104003.447500", "104005.447500", "104007.447500", "104009.447500", "104011.447500", "104013.447500", "104015.447500", "104017.447500", "104019.447500", "104021.447500", "104023.447500", "104025.447500", "104027.447500", "104029.447500", "104031.447500", "104033.447500", "104035.447500", "104037.447500", "104039.447500", "104041.447500", "104043.447500", "104045.447500", "104047.447500", "104049.447500", "104051.447500", "104053.447500", "104055.447500", "104057.447500", "104059.447500", "104101.447500", "104103.447500", "104105.447500", "104107.447500", "104109.447500", "104111.447500", "104113.447500", "104115.447500", "104117.447500", "104119.447500"],
      "ContentTime": ["103536.103000", "103536.106000", "103536.109000", "103536.111000", "103536.113000", "103536.116000", "103536.118000", "103536.120000", "103536.122000", "103536.125000", "103536.127000", "103536.129000", "103536.132000", "103536.136000", "103536.138000", "103536.140000", "103536.142000", "103536.145000", "103536.155000", "103536.157000", "103536.160000", "103536.162000", "103536.164000", "103536.167000", "103536.169000", "103536.171000", "103536.174000", "103616.099000", "103616.102000", "103616.104000", "103616.107000", "103616.109000", "103616.111000", "103616.114000", "103616.116000", "103616.118000", "103616.121000", "103616.123000", "103616.125000", "103616.127000", "103616.130000", "103616.132000", "103616.146000", "103616.148000", "103616.150000", "103616.153000", "103616.155000", "103656.099000", "103656.102000", "103656.104000", "103656.106000", "103656.109000", "103656.111000", "103656.113000", "103656.116000", "103656.118000", "103656.120000", "103656.123000", "103656.125000", "103656.127000", "103656.130000", "103656.132000", "103656.134000", "103656.137000", "103656.139000", "103656.141000", "103656.144000", "103736.099000", "103736.102000", "103736.104000", "103736.107000", "103736.109000", "103736.111000", "103736.114000", "103736.116000", "103736.118000", "103736.121000", "103736.123000", "103736.125000", "103736.128000", "103736.130000", "103736.132000", "103736.135000", "103736.137000", "103736.139000", "103736.142000", "103736.144000", "103816.098000", "103816.101000", "103816.103000", "103816.105000", "103816.108000", "103816.110000", "103816.112000", "103816.115000", "103816.117000", "103816.119000", "103816.122000", "103816.124000", "103816.126000", "103816.129000", "103816.131000", "103816.133000", "103816.135000", "103816.138000", "103816.140000", "103816.142000", "103856.099000", "103856.102000", "103856.104000", "103856.107000", "103856.109000", "103856.111000", "103856.114000", "103856.116000", "103856.118000", "103856.121000", "103856.123000", "103856.125000", "103856.127000", "103856.130000", "103856.132000", "103856.134000", "103856.137000", "103856.139000", "103856.141000", "103856.144000", "103936.099000", "103936.102000", "103936.104000", "103936.107000", "103936.109000", "103936.111000", "103936.114000", "103936.116000", "103936.118000", "103936.121000", "103936.123000", "103936.125000", "103936.127000", "103936.130000", "103936.132000", "103936.134000", "103936.137000", "103936.139000", "103936.141000", "103936.144000", "104016.098000", "104016.101000", "104016.103000", "104016.106000", "104016.108000", "104016.110000", "104016.113000", "104016.115000", "104016.117000", "104016.119000", "104016.122000", "104016.124000", "104016.126000", "104016.129000", "104016.131000", "104016.133000", "104016.135000", "104016.138000", "104016.140000", "104016.142000", "104056.099000", "104056.102000", "104056.104000", "104056.106000", "104056.109000", "104056.111000", "104056.113000", "104056.116000", "104056.118000", "104056.120000", "104056.123000", "104056.125000", "104056.127000", "104056.130000", "104056.132000", "104056.134000", "104056.137000", "104056.139000", "104056.141000", "104056.143000", "104120.727000", "104120.729000", "104120.731000", "104120.734000", "104120.736000", "104120.739000", "104120.741000", "104120.744000", "104120.746000", "104120.748000", "104120.750000", "104120.753000", "104120.755000"],
      "InstanceCreationTime": ["103536.103000", "103536.106000", "103536.109000", "103536.111000", "103536.113000", "103536.116000", "103536.118000", "103536.120000", "103536.122000", "103536.125000", "103536.127000", "103536.129000", "103536.132000", "103536.136000", "103536.138000", "103536.140000", "103536.142000", "103536.145000", "103536.155000", "103536.157000", "103536.160000", "103536.162000", "103536.164000", "103536.167000", "103536.169000", "103536.171000", "103536.174000", "103616.099000", "103616.102000", "103616.104000", "103616.107000", "103616.109000", "103616.111000", "103616.114000", "103616.116000", "103616.118000", "103616.121000", "103616.123000", "103616.125000", "103616.127000", "103616.130000", "103616.132000", "103616.146000", "103616.148000", "103616.150000", "103616.153000", "103616.155000", "103656.099000", "103656.102000", "103656.104000", "103656.106000", "103656.109000", "103656.111000", "103656.113000", "103656.116000", "103656.118000", "103656.120000", "103656.123000", "103656.125000", "103656.127000", "103656.130000", "103656.132000", "103656.134000", "103656.137000", "103656.139000", "103656.141000", "103656.144000", "103736.099000", "103736.102000", "103736.104000", "103736.107000", "103736.109000", "103736.111000", "103736.114000", "103736.116000", "103736.118000", "103736.121000", "103736.123000", "103736.125000", "103736.128000", "103736.130000", "103736.132000", "103736.135000", "103736.137000", "103736.139000", "103736.142000", "103736.144000", "103816.098000", "103816.101000", "103816.103000", "103816.105000", "103816.108000", "103816.110000", "103816.112000", "103816.115000", "103816.117000", "103816.119000", "103816.122000", "103816.124000", "103816.126000", "103816.129000", "103816.131000", "103816.133000", "103816.135000", "103816.138000", "103816.140000", "103816.142000", "103856.099000", "103856.102000", "103856.104000", "103856.107000", "103856.109000", "103856.111000", "103856.114000", "103856.116000", "103856.118000", "103856.121000", "103856.123000", "103856.125000", "103856.127000", "103856.130000", "103856.132000", "103856.134000", "103856.137000", "103856.139000", "103856.141000", "103856.144000", "103936.099000", "103936.102000", "103936.104000", "103936.107000", "103936.109000", "103936.111000", "103936.114000", "103936.116000", "103936.118000", "103936.121000", "103936.123000", "103936.125000", "103936.127000", "103936.130000", "103936.132000", "103936.134000", "103936.137000", "103936.139000", "103936.141000", "103936.144000", "104016.098000", "104016.101000", "104016.103000", "104016.106000", "104016.108000", "104016.110000", "104016.113000", "104016.115000", "104016.117000", "104016.119000", "104016.122000", "104016.124000", "104016.126000", "104016.129000", "104016.131000", "104016.133000", "104016.135000", "104016.138000", "104016.140000", "104016.142000", "104056.099000", "104056.102000", "104056.104000", "104056.106000", "104056.109000", "104056.111000", "104056.113000", "104056.116000", "104056.118000", "104056.120000", "104056.123000", "104056.125000", "104056.127000", "104056.130000", "104056.132000", "104056.134000", "104056.137000", "104056.139000", "104056.141000", "104056.143000", "104120.727000", "104120.729000", "104120.731000", "104120.734000", "104120.736000", "104120.739000", "104120.741000", "104120.744000", "104120.746000", "104120.748000", "104120.750000", "104120.753000", "104120.755000"],
      "InstanceNumber": [1, 2, 3, 4, 5, 6, 7, 8, 9, 10, 11, 12, 13, 14, 15, 16, 17, 18, 19, 20, 21, 22, 23, 24, 25, 26, 27, 28, 29, 30, 31, 32, 33, 34, 35, 36, 37, 38, 39, 40, 41, 42, 43, 44, 45, 46, 47, 48, 49, 50, 51, 52, 53, 54, 55, 56, 57, 58, 59, 60, 61, 62, 63, 64, 65, 66, 67, 68, 69, 70, 71, 72, 73, 74, 75, 76, 77, 78, 79, 80, 81, 82, 83, 84, 85, 86, 87, 88, 89, 90, 91, 92, 93, 94, 95, 96, 97, 98, 99, 100, 101, 102, 103, 104, 105, 106, 107, 108, 109, 110, 111, 112, 113, 114, 115, 116, 117, 118, 119, 120, 121, 122, 123, 124, 125, 126, 127, 128, 129, 130, 131, 132, 133, 134, 135, 136, 137, 138, 139, 140, 141, 142, 143, 144, 145, 146, 147, 148, 149, 150, 151, 152, 153, 154, 155, 156, 157, 158, 159, 160, 161, 162, 163, 164, 165, 166, 167, 168, 169, 170, 171, 172, 173, 174, 175, 176, 177, 178, 179, 180, 181, 182, 183, 184, 185, 186, 187, 188, 189, 190, 191, 192, 193, 194, 195, 196, 197, 198, 199, 200],
      "LargestImagePixelValue": [2232, 2234, 2229, 2232, 2233, 2233, 2231, 2233, 2229, 2232, 2232, 2232, 2232, 2231, 2233, 2233, 2229, 2233, 2233, 2232, 2233, 2233, 2232, 2230, 2231, 2231, 2232, 2231, 2233, 2232, 2229, 2231, 2229, 2230, 2232, 2231, 2234, 2233, 2235, 2231, 2231, 2232, 2231, 2231, 2230, 2229, 2231, 2228, 2227, 2230, 2229, 2232, 2231, 2230, 2232, 2232, 2232, 2233, 2231, 2230, 2231, 2230, 2228, 2232, 2233, 2231, 2233, 2230, 2230, 2232, 2231, 2230, 2231, 2229, 2231, 2230, 2228, 2230, 2231, 2228, 2229, 2228, 2229, 2229, 2231, 2232, 2231, 2230, 2229, 2229, 2232, 2227, 2230, 2231, 2229, 2227, 2230, 2229, 2229, 2228, 2231, 2230, 2232, 2231, 2231, 2230, 2231, 2232, 2232, 2228, 2229, 2229, 2229, 2229, 2233, 2230, 2232, 2231, 2228, 2229, 2231, 2229, 2230, 2229, 2228, 2228, 2230, 2229, 2231, 2230, 2230, 2233, 2229, 2230, 2231, 2229, 2228, 2230, 2230, 2229, 2230, 2230, 2230, 2230, 2230, 2227, 2233, 2229, 2230, 2230, 2231, 2230, 2229, 2230, 2227, 2228, 2233, 2230, 2230, 2232, 2232, 2228, 2229, 2229, 2227, 2230, 2229, 2228, 2231, 2230, 2231, 2230, 2230, 2229, 2228, 2230, 2229, 2229, 2230, 2231, 2233, 2229, 2230, 2232, 2230, 2228, 2230, 2228, 2231, 2230, 2228, 2229, 2231, 2231, 2230, 2228, 2228, 2229, 2230, 2230],
      "WindowCenter": [1028.0, 1028.0, 1028.0, 1028.0, 1028.0, 1029.0, 1028.0, 1028.0, 1029.0, 1028.0, 1028.0, 1028.0, 1028.0, 1028.0, 1028.0, 1029.0, 1028.0, 1028.0, 1029.0, 1028.0, 1028.0, 1028.0, 1028.0, 1028.0, 1028.0, 1028.0, 1028.0, 1029.0, 1028.0, 1028.0, 1028.0, 1028.0, 1028.0, 1028.0, 1029.0, 1028.0, 1028.0, 1028.0, 1028.0, 1028.0, 1028.0, 1028.0, 1028.0, 1028.0, 1027.0, 1027.0, 1028.0, 1027.0, 1028.0, 1027.0, 1027.0, 1027.0, 1027.0, 1027.0, 1027.0, 1027.0, 1027.0, 1027.0, 1027.0, 1027.0, 1027.0, 1027.0, 1027.0, 1028.0, 1027.0, 1027.0, 1027.0, 1028.0, 1027.0, 1027.0, 1027.0, 1027.0, 1027.0, 1028.0, 1027.0, 1027.0, 1027.0, 1027.0, 1027.0, 1027.0, 1027.0, 1027.0, 1027.0, 1028.0, 1027.0, 1028.0, 1027.0, 1027.0, 1027.0, 1027.0, 1027.0, 1027.0, 1027.0, 1027.0, 1027.0, 1027.0, 1027.0, 1027.0, 1027.0, 1027.0, 1027.0, 1027.0, 1027.0, 1027.0, 1027.0, 1027.0, 1027.0, 1027.0, 1027.0, 1027.0, 1027.0, 1027.0, 1027.0, 1027.0, 1027.0, 1027.0, 1027.0, 1027.0, 1028.0, 1027.0, 1027.0, 1027.0, 1027.0, 1027.0, 1027.0, 1027.0, 1027.0, 1026.0, 1027.0, 1026.0, 1027.0, 1027.0, 1027.0, 1026.0, 1027.0, 1027.0, 1028.0, 1027.0, 1027.0, 1026.0, 1027.0, 1027.0, 1026.0, 1026.0, 1026.0, 1026.0, 1026.0, 1027.0, 1027.0, 1026.0, 1026.0, 1026.0, 1027.0, 1026.0, 1026.0, 1027.0, 1026.0, 1026.0, 1026.0, 1026.0, 1026.0, 1026.0, 1026.0, 1026.0, 1026.0, 1026.0, 1026.0, 1026.0, 1026.0, 1026.0, 1026.0, 1026.0, 1026.0, 1027.0, 1026.0, 1026.0, 1026.0, 1026.0, 1026.0, 1026.0, 1026.0, 1027.0, 1027.0, 1027.0, 1026.0, 1026.0, 1026.0, 1027.0, 1027.0, 1026.0, 1027.0, 1026.0, 1026.0, 1026.0, 1026.0, 1026.0, 1026.0, 1026.0, 1026.0, 1026.0],
      "WindowWidth": [2310.0, 2310.0, 2310.0, 2310.0, 2311.0, 2311.0, 2311.0, 2310.0, 2311.0, 2310.0, 2310.0, 2310.0, 2310.0, 2310.0, 2310.0, 2311.0, 2310.0, 2310.0, 2311.0, 2310.0, 2310.0, 2310.0, 2311.0, 2311.0, 2310.0, 2310.0, 2310.0, 2311.0, 2310.0, 2310.0, 2310.0, 2310.0, 2310.0, 2310.0, 2311.0, 2310.0, 2310.0, 2310.0, 2310.0, 2310.0, 2310.0, 2310.0, 2310.0, 2310.0, 2310.0, 2310.0, 2310.0, 2310.0, 2309.0, 2310.0, 2310.0, 2310.0, 2310.0, 2310.0, 2310.0, 2310.0, 2310.0, 2309.0, 2309.0, 2309.0, 2309.0, 2309.0, 2309.0, 2310.0, 2309.0, 2309.0, 2309.0, 2310.0, 2309.0, 2309.0, 2309.0, 2309.0, 2309.0, 2310.0, 2309.0, 2309.0, 2309.0, 2309.0, 2309.0, 2309.0, 2309.0, 2309.0, 2309.0, 2309.0, 2309.0, 2309.0, 2309.0, 2309.0, 2309.0, 2309.0, 2309.0, 2309.0, 2309.0, 2309.0, 2309.0, 2309.0, 2309.0, 2309.0, 2309.0, 2309.0, 2309.0, 2309.0, 2309.0, 2309.0, 2309.0, 2308.0, 2308.0, 2308.0, 2309.0, 2308.0, 2308.0, 2308.0, 2308.0, 2308.0, 2308.0, 2308.0, 2308.0, 2308.0, 2309.0, 2308.0, 2308.0, 2308.0, 2308.0, 2308.0, 2308.0, 2308.0, 2308.0, 2308.0, 2308.0, 2308.0, 2309.0, 2308.0, 2308.0, 2308.0, 2309.0, 2309.0, 2308.0, 2308.0, 2308.0, 2307.0, 2308.0, 2308.0, 2308.0, 2308.0, 2308.0, 2308.0, 2308.0, 2309.0, 2309.0, 2308.0, 2308.0, 2308.0, 2308.0, 2308.0, 2308.0, 2308.0, 2308.0, 2308.0, 2308.0, 2308.0, 2307.0, 2307.0, 2307.0, 2307.0, 2307.0, 2308.0, 2307.0, 2307.0, 2308.0, 2307.0, 2308.0, 2308.0, 2308.0, 2308.0, 2307.0, 2308.0, 2307.0, 2307.0, 2308.0, 2307.0, 2307.0, 2308.0, 2309.0, 2309.0, 2307.0, 2307.0, 2307.0, 2308.0, 2308.0, 2308.0, 2308.0, 2307.0, 2307.0, 2307.0, 2307.0, 2307.0, 2307.0, 2307.0, 2307.0, 2307.0]
    },
    "slices": {}
  }
}