{
  "AcquisitionMatrixPE": 80,
  "AcquisitionNumber": 1,
  "AcquisitionTime": "10:27:51.135000",
  "BandwidthPerPixelPhaseEncode": 46.296,
  "BaseResolution": 80,
  "BodyPartExamined": "BRAIN",
  "CoilCombinationMethod": "Sum of Squares",
  "ConsistencyInfo": "N4_VE11E_LATEST_20181129",
  "ConversionSoftware": "dcm2niix",
  "ConversionSoftwareVersion": "v1.0.20220720",
  "DerivedVendorReportedEchoSpacing": 0.000540003,
  "DeviceSerialNumber": "66112",
  "DwellTime": 2.7e-06,
  "EchoTime": 0.035,
  "EchoTrainLength": 39,
  "EffectiveEchoSpacing": 0.000270002,
  "FlipAngle": 90,
  "HeudiconvVersion": "0.13.1",
  "ImageOrientationPatientDICOM": [0.999972, 0.00705812, 0.00257618, -0.00750478, 0.954838, 0.297031],
  "ImageOrientationText": "Tra>Cor(17.3)>Sag(0.0)",
  "ImageType": [
    "ORIGINAL",
    "PRIMARY",
    "M",
    "ND",
    "NORM",
    "MOSAIC"
],
  "ImagingFrequency": 123.261,
  "InPlanePhaseEncodingDirectionDICOM": "COL",
  "InstitutionAddress": "Maynard 3,Hanover,NH,US,03755",
  "InstitutionName": "Dartmouth College - PBS",
  "InstitutionalDepartmentName": "Department",
  "MRAcquisitionType": "2D",
  "MagneticFieldStrength": 3,
  "Manufacturer": "Siemens",
  "ManufacturersModelName": "Prisma",
  "Modality": "MR",
  "MultibandAccelerationFactor": 4,
  "NonlinearGradientCorrection": false,
  "ParallelReductionFactorInPlane": 2,
  "PartialFourier": 1,
  "PatientPosition": "HFS",
  "PercentPhaseFOV": 100,
  "PercentSampling": 100,
  "PhaseEncodingDirection": "j-",
  "PhaseEncodingSteps": 79,
  "PhaseResolution": 1,
  "PixelBandwidth": 2315,
  "ProcedureStepDescription": "dbic^QA",
  "ProtocolName": "func-bold_task-rest_acq-p2-s4-3.5mm",
  "PulseSequenceDetails": "%SiemensSeq%\\ep2d_bold",
  "ReceiveCoilActiveElements": "HEA;HEP",
  "ReceiveCoilName": "Head_32",
  "ReconMatrixPE": 80,
  "RefLinesPE": 24,
  "RepetitionTime": 2,
  "SAR": 0.0206367,
  "ScanOptions": "FS",
  "ScanningSequence": "EP",
  "SequenceName": "*epfid2d1_80",
  "SequenceVariant": "SK",
  "SeriesDescription": "func-bold_task-rest_acq-p2-s4-3.5mm",
  "SeriesNumber": 6,
  "ShimSetting": [4245, -7736, -7483, -10, -181, -58, -11, 88],
  "SliceThickness": 3.5,
  "SliceTiming": [1.485, 0, 0.99, 0.2475, 1.2375, 0.7425, 1.7325, 0.495, 1.485, 0, 0.99, 0.2475, 1.2375, 0.7425, 1.7325, 0.495, 1.485, 0, 0.99, 0.2475, 1.2375, 0.7425, 1.7325, 0.495, 1.485, 0, 0.99, 0.2475, 1.2375, 0.7425, 1.7325, 0.495],
  "SoftwareVersions": "syngo MR E11",
  "SpacingBetweenSlices": 3.99,
  "StationName": "AWP66112",
  "TaskName": "rest",
  "TotalReadoutTime": 0.0213301,
  "TxRefAmp": 222.629,
  "dcmmeta_affine": [
    [-2.999915361404419, -0.022514326497912407, 0.001449783449061215, 120.85343170166016],
    [-0.021174348890781403, 2.8645153045654297, 1.185196042060852, -130.1785430908203],
    [0.007728525437414646, -0.8910919427871704, 3.8099091053009033, -25.888967514038086],
    [0.0, 0.0, 0.0, 1.0]
],
  "dcmmeta_reorient_transform": [
    [0.0, -1.0, 0.0, 79.0],
    [1.0, 0.0, 0.0, 0.0],
    [0.0, 0.0, 1.0, 0.0],
    [0.0, 0.0, 0.0, 1.0]
],
  "dcmmeta_shape": [80, 80, 32, 200],
  "dcmmeta_slice_dim": 2,
  "dcmmeta_version": 0.6,
  "global": {
    "const": {
      "AccessionNumber": "qa",
      "AcquisitionMatrix": [80, 0, 0, 80],
      "AngioFlag": "N",
      "BitsAllocated": 16,
      "BitsStored": 12,
      "BodyPartExamined": "BRAIN",
      "Columns": 480,
      "EchoNumbers": 1,
      "EchoTime": 35.0,
      "EchoTrainLength": 39,
      "FlipAngle": 90.0,
      "HighBit": 11,
      "ImageOrientationPatient": [0.99997177275875, 0.00705811638736, 0.00257617522262, -0.0075047757734, 0.95483845211009, 0.29703065281649],
      "ImagePositionPatient": [-714.55500083795, -673.25610968621, -276.04932890788],
      "ImageType": [
        "ORIGINAL",
        "PRIMARY",
        "M",
        "ND",
        "NORM",
        "MOSAIC"
],
      "ImagedNucleus": "1H",
      "ImagingFrequency": 123.261243,
      "InPlanePhaseEncodingDirection": "COL",
      "MRAcquisitionType": "2D",
      "MagneticFieldStrength": 3.0,
      "Manufacturer": "SIEMENS",
      "ManufacturerModelName": "Prisma",
      "Modality": "MR",
      "NumberOfAverages": 1.0,
      "NumberOfPhaseEncodingSteps": 79,
      "PercentPhaseFieldOfView": 100.0,
      "PercentSampling": 100.0,
      "PerformedProcedureStepStartTime": "101337.660000",
      "PhotometricInterpretation": "MONOCHROME2",
      "PixelBandwidth": 2315.0,
      "PixelRepresentation": 0,
      "PixelSpacing": [3.0, 3.0],
      "ProtocolName": "func-bold_task-rest_acq-p2-s4-3.5mm",
      "RepetitionTime": 2000.0,
      "Rows": 480,
      "SAR": 0.02063669620056,
      "SamplesPerPixel": 1,
      "ScanOptions": "FS",
      "ScanningSequence": "EP",
      "SequenceName": "*epfid2d1_80",
      "SequenceVariant": "SK",
      "SeriesDescription": "func-bold_task-rest_acq-p2-s4-3.5mm",
      "SeriesNumber": 6,
      "SeriesTime": "102836.015000",
      "SliceLocation": -63.34498590855,
      "SliceThickness": 3.5,
      "SmallestImagePixelValue": 0,
      "SoftwareVersions": "syngo MR E11",
      "SpacingBetweenSlices": 3.9899999718833,
      "SpecificCharacterSet": "ISO_IR 100",
      "StudyID": "40",
      "StudyTime": "101337.606000",
      "TransmitCoilName": "Body",
      "VariableFlipAngleFlag": "N",
      "WindowCenterWidthExplanation": "Algo1"
    },
    "slices": {}
  },
  "time": {
    "samples": {
      "AcquisitionNumber": [1, 2, 3, 4, 5, 6, 7, 8, 9, 10, 11, 12, 13, 14, 15, 16, 17, 18, 19, 20, 21, 22, 23, 24, 25, 26, 27, 28, 29, 30, 31, 32, 33, 34, 35, 36, 37, 38, 39, 40, 41, 42, 43, 44, 45, 46, 47, 48, 49, 50, 51, 52, 53, 54, 55, 56, 57, 58, 59, 60, 61, 62, 63, 64, 65, 66, 67, 68, 69, 70, 71, 72, 73, 74, 75, 76, 77, 78, 79, 80, 81, 82, 83, 84, 85, 86, 87, 88, 89, 90, 91, 92, 93, 94, 95, 96, 97, 98, 99, 100, 101, 102, 103, 104, 105, 106, 107, 108, 109, 110, 111, 112, 113, 114, 115, 116, 117, 118, 119, 120, 121, 122, 123, 124, 125, 126, 127, 128, 129, 130, 131, 132, 133, 134, 135, 136, 137, 138, 139, 140, 141, 142, 143, 144, 145, 146, 147, 148, 149, 150, 151, 152, 153, 154, 155, 156, 157, 158, 159, 160, 161, 162, 163, 164, 165, 166, 167, 168, 169, 170, 171, 172, 173, 174, 175, 176, 177, 178, 179, 180, 181, 182, 183, 184, 185, 186, 187, 188, 189, 190, 191, 192, 193, 194, 195, 196, 197, 198, 199, 200],
      "AcquisitionTime": ["102751.135000", "102753.135000", "102755.135000", "102757.135000", "102759.135000", "102801.135000", "102803.135000", "102805.135000", "102807.135000", "102809.135000", "102811.135000", "102813.135000", "102815.135000", "102817.135000", "102819.135000", "102821.135000", "102823.135000", "102825.135000", "102827.135000", "102829.135000", "102831.135000", "102833.135000", "102835.135000", "102837.135000", "102839.135000", "102841.135000", "102843.135000", "102845.135000", "102847.135000", "102849.135000", "102851.135000", "102853.135000", "102855.135000", "102857.135000", "102859.135000", "102901.135000", "102903.135000", "102905.135000", "102907.135000", "102909.135000", "102911.135000", "102913.135000", "102915.135000", "102917.135000", "102919.135000", "102921.135000", "102923.135000", "102925.135000", "102927.135000", "102929.135000", "102931.135000", "102933.135000", "102935.135000", "102937.135000", "102939.135000", "102941.135000", "102943.135000", "102945.135000", "102947.135000", "102949.135000", "102951.135000", "102953.135000", "102955.135000", "102957.135000", "102959.135000", "103001.135000", "103003.135000", "103005.135000", "103007.135000", "103009.135000", "103011.135000", "103013.135000", "103015.135000", "103017.135000", "103019.135000", "103021.135000", "103023.135000", "103025.135000", "103027.135000", "103029.135000", "103031.135000", "103033.135000", "103035.135000", "103037.135000", "103039.135000", "103041.135000", "103043.135000", "103045.135000", "103047.135000", "103049.135000", "103051.135000", "103053.135000", "103055.135000", "103057.135000", "103059.135000", "103101.135000", "103103.135000", "103105.135000", "103107.135000", "103109.135000", "103111.135000", "103113.135000", "103115.135000", "103117.135000", "103119.135000", "103121.135000", "103123.135000", "103125.135000", "103127.135000", "103129.135000", "103131.135000", "103133.135000", "103135.135000", "103137.135000", "103139.135000", "103141.135000", "103143.135000", "103145.135000", "103147.135000", "103149.135000", "103151.135000", "103153.135000", "103155.135000", "103157.135000", "103159.135000", "103201.135000", "103203.135000", "103205.135000", "103207.135000", "103209.135000", "103211.135000", "103213.135000", "103215.135000", "103217.135000", "103219.135000", "103221.135000", "103223.135000", "103225.135000", "103227.135000", "103229.135000", "103231.135000", "103233.135000", "103235.135000", "103237.135000", "103239.135000", "103241.135000", "103243.135000", "103245.135000", "103247.135000", "103249.135000", "103251.135000", "103253.135000", "103255.135000", "103257.135000", "103259.135000", "103301.135000", "103303.135000", "103305.135000", "103307.135000", "103309.135000", "103311.135000", "103313.135000", "103315.135000", "103317.135000", "103319.135000", "103321.135000", "103323.135000", "103325.135000", "103327.135000", "103329.135000", "103331.135000", "103333.135000", "103335.135000", "103337.135000", "103339.135000", "103341.135000", "103343.135000", "103345.135000", "103347.135000", "103349.135000", "103351.135000", "103353.135000", "103355.135000", "103357.135000", "103359.135000", "103401.135000", "103403.135000", "103405.135000", "103407.135000", "103409.135000", "103411.135000", "103413.135000", "103415.135000", "103417.135000", "103419.135000", "103421.135000", "103423.135000", "103425.135000", "103427.135000", "103429.135000"],
      "ContentTime": ["102836.018000", "102836.021000", "102836.023000", "102836.025000", "102836.028000", "102836.039000", "102836.041000", "102836.043000", "102836.046000", "102836.048000", "102836.050000", "102836.053000", "102836.060000", "102836.063000", "102836.065000", "102836.068000", "102836.070000", "102836.072000", "102836.075000", "102836.077000", "102836.079000", "102836.094000", "102856.012000", "102856.015000", "102856.017000", "102856.020000", "102856.022000", "102856.024000", "102856.034000", "102856.036000", "102856.038000", "102856.041000", "102936.013000", "102936.016000", "102936.018000", "102936.020000", "102936.022000", "102936.025000", "102936.027000", "102936.029000", "102936.032000", "102936.034000", "102936.036000", "102936.039000", "102936.041000", "102936.043000", "102936.046000", "102936.048000", "102936.050000", "102936.052000", "102936.055000", "102936.057000", "103016.013000", "103016.016000", "103016.018000", "103016.021000", "103016.023000", "103016.025000", "103016.028000", "103016.030000", "103016.032000", "103016.035000", "103016.037000", "103016.039000", "103016.042000", "103016.044000", "103016.046000", "103016.049000", "103016.051000", "103016.054000", "103016.064000", "103016.066000", "103056.013000", "103056.016000", "103056.018000", "103056.020000", "103056.023000", "103056.025000", "103056.027000", "103056.030000", "103056.032000", "103056.034000", "103056.037000", "103056.039000", "103056.041000", "103056.055000", "103056.057000", "103056.059000", "103056.062000", "103056.064000", "103056.066000", "103056.069000", "103136.013000", "103136.016000", "103136.018000", "103136.020000", "103136.023000", "103136.025000", "103136.027000", "103136.030000", "103136.032000", "103136.034000", "103136.037000", "103136.039000", "103136.041000", "103136.043000", "103136.046000", "103136.048000", "103136.050000", "103136.053000", "103136.055000", "103136.057000", "103216.013000", "103216.016000", "103216.018000", "103216.020000", "103216.023000", "103216.025000", "103216.027000", "103216.030000", "103216.032000", "103216.034000", "103216.036000", "103216.039000", "103216.041000", "103216.043000", "103216.046000", "103216.048000", "103216.051000", "103216.053000", "103216.055000", "103216.058000", "103256.013000", "103256.016000", "103256.018000", "103256.021000", "103256.051000", "103256.053000", "103256.056000", "103256.058000", "103256.060000", "103256.063000", "103256.065000", "103256.067000", "103256.070000", "103256.072000", "103256.075000", "103256.077000", "103256.079000", "103256.082000", "103256.084000", "103256.086000", "103336.012000", "103336.015000", "103336.017000", "103336.019000", "103336.022000", "103336.024000", "103336.027000", "103336.029000", "103336.031000", "103336.034000", "103336.036000", "103336.038000", "103336.041000", "103336.043000", "103336.045000", "103336.048000", "103336.050000", "103336.052000", "103336.055000", "103336.057000", "103416.013000", "103416.016000", "103416.018000", "103416.021000", "103416.023000", "103416.026000", "103416.028000", "103416.030000", "103416.033000", "103416.035000", "103416.038000", "103416.040000", "103416.042000", "103416.045000", "103416.047000", "103416.049000", "103416.052000", "103416.054000", "103416.056000", "103416.059000", "103430.749000", "103430.751000", "103430.754000", "103430.756000", "103430.758000", "103430.761000", "103430.763000", "103430.765000"],
      "InstanceCreationTime": ["102836.018000", "102836.021000", "102836.023000", "102836.025000", "102836.028000", "102836.039000", "102836.041000", "102836.043000", "102836.046000", "102836.048000", "102836.050000", "102836.053000", "102836.060000", "102836.063000", "102836.065000", "102836.068000", "102836.070000", "102836.072000", "102836.075000", "102836.077000", "102836.079000", "102836.094000", "102856.012000", "102856.015000", "102856.017000", "102856.020000", "102856.022000", "102856.024000", "102856.034000", "102856.036000", "102856.038000", "102856.041000", "102936.013000", "102936.016000", "102936.018000", "102936.020000", "102936.022000", "102936.025000", "102936.027000", "102936.029000", "102936.032000", "102936.034000", "102936.036000", "102936.039000", "102936.041000", "102936.043000", "102936.046000", "102936.048000", "102936.050000", "102936.052000", "102936.055000", "102936.057000", "103016.013000", "103016.016000", "103016.018000", "103016.021000", "103016.023000", "103016.025000", "103016.028000", "103016.030000", "103016.032000", "103016.035000", "103016.037000", "103016.039000", "103016.042000", "103016.044000", "103016.046000", "103016.049000", "103016.051000", "103016.054000", "103016.064000", "103016.066000", "103056.013000", "103056.016000", "103056.018000", "103056.020000", "103056.023000", "103056.025000", "103056.027000", "103056.030000", "103056.032000", "103056.034000", "103056.037000", "103056.039000", "103056.041000", "103056.055000", "103056.057000", "103056.059000", "103056.062000", "103056.064000", "103056.066000", "103056.069000", "103136.013000", "103136.016000", "103136.018000", "103136.020000", "103136.023000", "103136.025000", "103136.027000", "103136.030000", "103136.032000", "103136.034000", "103136.037000", "103136.039000", "103136.041000", "103136.043000", "103136.046000", "103136.048000", "103136.050000", "103136.053000", "103136.055000", "103136.057000", "103216.013000", "103216.016000", "103216.018000", "103216.020000", "103216.023000", "103216.025000", "103216.027000", "103216.030000", "103216.032000", "103216.034000", "103216.036000", "103216.039000", "103216.041000", "103216.043000", "103216.046000", "103216.048000", "103216.051000", "103216.053000", "103216.055000", "103216.058000", "103256.013000", "103256.016000", "103256.018000", "103256.021000", "103256.051000", "103256.053000", "103256.056000", "103256.058000", "103256.060000", "103256.063000", "103256.065000", "103256.067000", "103256.070000", "103256.072000", "103256.075000", "103256.077000", "103256.079000", "103256.082000", "103256.084000", "103256.086000", "103336.012000", "103336.015000", "103336.017000", "103336.019000", "103336.022000", "103336.024000", "103336.027000", "103336.029000", "103336.031000", "103336.034000", "103336.036000", "103336.038000", "103336.041000", "103336.043000", "103336.045000", "103336.048000", "103336.050000", "103336.052000", "103336.055000", "103336.057000", "103416.013000", "103416.016000", "103416.018000", "103416.021000", "103416.023000", "103416.026000", "103416.028000", "103416.030000", "103416.033000", "103416.035000", "103416.038000", "103416.040000", "103416.042000", "103416.045000", "103416.047000", "103416.049000", "103416.052000", "103416.054000", "103416.056000", "103416.059000", "103430.749000", "103430.751000", "103430.754000", "103430.756000", "103430.758000", "103430.761000", "103430.763000", "103430.765000"],
      "InstanceNumber": [1, 2, 3, 4, 5, 6, 7, 8, 9, 10, 11, 12, 13, 14, 15, 16, 17, 18, 19, 20, 21, 22, 23, 24, 25, 26, 27, 28, 29, 30, 31, 32, 33, 34, 35, 36, 37, 38, 39, 40, 41, 42, 43, 44, 45, 46, 47, 48, 49, 50, 51, 52, 53, 54, 55, 56, 57, 58, 59, 60, 61, 62, 63, 64, 65, 66, 67, 68, 69, 70, 71, 72, 73, 74, 75, 76, 77, 78, 79, 80, 81, 82, 83, 84, 85, 86, 87, 88, 89, 90, 91, 92, 93, 94, 95, 96, 97, 98, 99, 100, 101, 102, 103, 104, 105, 106, 107, 108, 109, 110, 111, 112, 113, 114, 115, 116, 117, 118, 119, 120, 121, 122, 123, 124, 125, 126, 127, 128, 129, 130, 131, 132, 133, 134, 135, 136, 137, 138, 139, 140, 141, 142, 143, 144, 145, 146, 147, 148, 149, 150, 151, 152, 153, 154, 155, 156, 157, 158, 159, 160, 161, 162, 163, 164, 165, 166, 167, 168, 169, 170, 171, 172, 173, 174, 175, 176, 177, 178, 179, 180, 181, 182, 183, 184, 185, 186, 187, 188, 189, 190, 191, 192, 193, 194, 195, 196, 197, 198, 199, 200],
      "LargestImagePixelValue": [2285, 2285, 2288, 2288, 2282, 2287, 2284, 2288, 2284, 2285, 2286, 2286, 2285, 2285, 2284, 2288, 2283, 2286, 2285, 2287, 2285, 2287, 2282, 2289, 2284, 2285, 2284, 2289, 2287, 2290, 2284, 2292, 2289, 2287, 2287, 2288, 2285, 2289, 2285, 2290, 2283, 2289, 2285, 2287, 2290, 2287, 2286, 2291, 2290, 2290, 2290, 2286, 2285, 2284, 2287, 2287, 2289, 2285, 2289, 2286, 2291, 2285, 2296, 2283, 2287, 2286, 2292, 2284, 2295, 2286, 2291, 2286, 2291, 2284, 2288, 2282, 2288, 2286, 2289, 2286, 2289, 2290, 2287, 2285, 2286, 2287, 2288, 2290, 2289, 2287, 2287, 2290, 2286, 2289, 2286, 2285, 2292, 2287, 2287, 2288, 2287, 2290, 2289, 2287, 2285, 2292, 2288, 2287, 2289, 2289, 2286, 2291, 2283, 2288, 2286, 2289, 2289, 2292, 2288, 2289, 2291, 2293, 2290, 2291, 2289, 2293, 2288, 2292, 2290, 2290, 2289, 2286, 2290, 2293, 2289, 2290, 2284, 2287, 2290, 2290, 2291, 2288, 2287, 2287, 2292, 2289, 2290, 2289, 2288, 2286, 2293, 2291, 2290, 2287, 2290, 2288, 2285, 2289, 2296, 2286, 2293, 2287, 2293, 2286, 2293, 2289, 2293, 2285, 2291, 2289, 2290, 2290, 2294, 2290, 2291, 2289, 2292, 2289, 2290, 2290, 2290, 2291, 2291, 2291, 2290, 2288, 2287, 2290, 2287, 2291, 2292, 2288, 2289, 2287, 2290, 2293, 2288, 2290, 2291, 2291],
      "WindowCenter": [973.0, 973.0, 973.0, 973.0, 973.0, 975.0, 973.0, 973.0, 973.0, 974.0, 972.0, 973.0, 972.0, 973.0, 973.0, 973.0, 974.0, 973.0, 974.0, 973.0, 973.0, 973.0, 974.0, 972.0, 973.0, 973.0, 973.0, 973.0, 973.0, 973.0, 973.0, 973.0, 974.0, 974.0, 975.0, 973.0, 973.0, 973.0, 973.0, 973.0, 973.0, 973.0, 973.0, 973.0, 973.0, 974.0, 973.0, 973.0, 973.0, 973.0, 974.0, 974.0, 973.0, 973.0, 972.0, 974.0, 974.0, 974.0, 973.0, 974.0, 974.0, 973.0, 973.0, 974.0, 973.0, 974.0, 973.0, 973.0, 973.0, 973.0, 973.0, 973.0, 973.0, 973.0, 973.0, 973.0, 974.0, 974.0, 974.0, 974.0, 974.0, 972.0, 972.0, 973.0, 975.0, 973.0, 973.0, 974.0, 973.0, 974.0, 974.0, 972.0, 973.0, 972.0, 974.0, 974.0, 973.0, 973.0, 973.0, 974.0, 973.0, 974.0, 973.0, 973.0, 973.0, 974.0, 973.0, 974.0, 974.0, 973.0, 974.0, 973.0, 973.0, 973.0, 973.0, 973.0, 973.0, 973.0, 974.0, 973.0, 974.0, 973.0, 973.0, 973.0, 973.0, 973.0, 973.0, 974.0, 974.0, 973.0, 973.0, 973.0, 973.0, 973.0, 973.0, 974.0, 974.0, 973.0, 973.0, 973.0, 973.0, 973.0, 975.0, 973.0, 973.0, 973.0, 973.0, 974.0, 974.0, 973.0, 974.0, 974.0, 973.0, 973.0, 973.0, 974.0, 974.0, 974.0, 972.0, 973.0, 973.0, 973.0, 973.0, 973.0, 973.0, 974.0, 972.0, 974.0, 974.0, 973.0, 973.0, 974.0, 973.0, 974.0, 974.0, 974.0, 972.0, 973.0, 973.0, 973.0, 974.0, 973.0, 974.0, 973.0, 973.0, 973.0, 973.0, 974.0, 973.0, 974.0, 972.0, 973.0, 973.0, 973.0, 973.0, 974.0, 973.0, 975.0, 973.0, 973.0],
      "WindowWidth": [2316.0, 2315.0, 2316.0, 2316.0, 2316.0, 2317.0, 2316.0, 2316.0, 2316.0, 2316.0, 2315.0, 2315.0, 2315.0, 2316.0, 2316.0, 2316.0, 2317.0, 2315.0, 2317.0, 2316.0, 2316.0, 2316.0, 2316.0, 2315.0, 2316.0, 2316.0, 2316.0, 2316.0, 2315.0, 2315.0, 2316.0, 2316.0, 2316.0, 2316.0, 2317.0, 2316.0, 2316.0, 2316.0, 2315.0, 2316.0, 2316.0, 2316.0, 2316.0, 2316.0, 2315.0, 2317.0, 2315.0, 2316.0, 2316.0, 2316.0, 2316.0, 2316.0, 2315.0, 2316.0, 2315.0, 2317.0, 2316.0, 2316.0, 2316.0, 2316.0, 2316.0, 2316.0, 2315.0, 2316.0, 2316.0, 2316.0, 2316.0, 2316.0, 2315.0, 2315.0, 2316.0, 2316.0, 2315.0, 2316.0, 2316.0, 2315.0, 2316.0, 2316.0, 2316.0, 2316.0, 2316.0, 2315.0, 2315.0, 2315.0, 2317.0, 2316.0, 2316.0, 2316.0, 2316.0, 2316.0, 2316.0, 2315.0, 2315.0, 2315.0, 2316.0, 2316.0, 2316.0, 2316.0, 2316.0, 2316.0, 2316.0, 2316.0, 2316.0, 2316.0, 2316.0, 2316.0, 2315.0, 2316.0, 2316.0, 2315.0, 2316.0, 2316.0, 2316.0, 2315.0, 2316.0, 2315.0, 2316.0, 2315.0, 2316.0, 2315.0, 2316.0, 2316.0, 2315.0, 2315.0, 2315.0, 2315.0, 2316.0, 2316.0, 2316.0, 2316.0, 2315.0, 2316.0, 2315.0, 2316.0, 2315.0, 2316.0, 2316.0, 2315.0, 2315.0, 2316.0, 2315.0, 2316.0, 2317.0, 2315.0, 2315.0, 2315.0, 2315.0, 2316.0, 2316.0, 2316.0, 2316.0, 2316.0, 2315.0, 2315.0, 2315.0, 2316.0, 2316.0, 2316.0, 2315.0, 2316.0, 2315.0, 2315.0, 2315.0, 2315.0, 2315.0, 2316.0, 2314.0, 2316.0, 2316.0, 2315.0, 2315.0, 2316.0, 2315.0, 2316.0, 2316.0, 2316.0, 2314.0, 2315.0, 2315.0, 2315.0, 2316.0, 2315.0, 2316.0, 2315.0, 2315.0, 2315.0, 2315.0, 2316.0, 2315.0, 2316.0, 2314.0, 2315.0, 2315.0, 2315.0, 2315.0, 2316.0, 2315.0, 2316.0, 2315.0, 2315.0]
    },
    "slices": {}
  }
}