{
  "AcquisitionMatrixPE": 80,
  "AcquisitionNumber": 1,
  "AcquisitionTime": "10:41:27.467500",
  "BandwidthPerPixelPhaseEncode": 25,
  "BaseResolution": 80,
  "BodyPartExamined": "BRAIN",
  "CoilCombinationMethod": "Sum of Squares",
  "ConsistencyInfo": "N4_VE11E_LATEST_20181129",
  "ConversionSoftware": "dcm2niix",
  "ConversionSoftwareVersion": "v1.0.20220720",
  "DerivedVendorReportedEchoSpacing": 0.0005,
  "DeviceSerialNumber": "66112",
  "DwellTime": 2.7e-06,
  "EchoTime": 0.03,
  "EchoTrainLength": 80,
  "EffectiveEchoSpacing": 0.0005,
  "FlipAngle": 10,
  "HeudiconvVersion": "0.13.1",
  "ImageOrientationPatientDICOM": [0.999972, 0.00705812, 0.00257618, -0.00750478, 0.954838, 0.297031],
  "ImageOrientationText": "Tra>Cor(17.3)>Sag(0.0)",
  "ImageType": [
    "ORIGINAL",
    "PRIMARY",
    "M",
    "ND",
    "NORM",
    "MOSAIC"
],
  "ImagingFrequency": 123.261,
  "InPlanePhaseEncodingDirectionDICOM": "COL",
  "InstitutionAddress": "Maynard 3,Hanover,NH,US,03755",
  "InstitutionName": "Dartmouth College - PBS",
  "InstitutionalDepartmentName": "Department",
  "MRAcquisitionType": "2D",
  "MagneticFieldStrength": 3,
  "Manufacturer": "Siemens",
  "ManufacturersModelName": "Prisma",
  "MatrixCoilMode": "SENSE",
  "Modality": "MR",
  "NonlinearGradientCorrection": false,
  "PartialFourier": 1,
  "PatientPosition": "HFS",
  "PercentPhaseFOV": 100,
  "PercentSampling": 100,
  "PhaseEncodingDirection": "j-",
  "PhaseEncodingSteps": 80,
  "PhaseResolution": 1,
  "PixelBandwidth": 2315,
  "ProcedureStepDescription": "dbic^QA",
  "ProtocolName": "func-bold_fa-10",
  "PulseSequenceDetails": "%SiemensSeq%\\ep2d_bold",
  "ReceiveCoilActiveElements": "HEA;HEP",
  "ReceiveCoilName": "Head_32",
  "ReconMatrixPE": 80,
  "RepetitionTime": 2,
  "SAR": 0.0115683,
  "ScanOptions": "FS",
  "ScanningSequence": "EP",
  "SequenceName": "*epfid2d1_80",
  "SequenceVariant": "SK",
  "SeriesDescription": "func-bold_fa-10",
  "SeriesNumber": 8,
  "ShimSetting": [4245, -7735, -7484, -11, -180, -59, -12, 88],
  "SliceThickness": 3.5,
  "SliceTiming": [0.99, 0, 1.055, 0.065, 1.12, 0.1325, 1.1875, 0.1975, 1.2525, 0.2625, 1.32, 0.33, 1.385, 0.395, 1.45, 0.46, 1.5175, 0.5275, 1.5825, 0.5925, 1.65, 0.66, 1.715, 0.725, 1.78, 0.79, 1.8475, 0.8575, 1.9125, 0.9225],
  "SoftwareVersions": "syngo MR E11",
  "SpacingBetweenSlices": 3.99,
  "StationName": "AWP66112",
  "TotalReadoutTime": 0.0395,
  "TxRefAmp": 222.629,
  "dcmmeta_affine": [
    [-2.999915361404419, -0.022514326497912407, 0.001449783449061215, 120.86419677734375],
    [-0.021174348890781403, 2.8645153045654297, 1.185196042060852, -130.4065399169922],
    [0.007728525437414646, -0.8910919427871704, 3.8099093437194824, -22.30238914489746],
    [0.0, 0.0, 0.0, 1.0]
],
  "dcmmeta_reorient_transform": [
    [0.0, -1.0, 0.0, 79.0],
    [1.0, 0.0, 0.0, 0.0],
    [0.0, 0.0, 1.0, 0.0],
    [0.0, 0.0, 0.0, 1.0]
],
  "dcmmeta_shape": [80, 80, 30, 200],
  "dcmmeta_slice_dim": 2,
  "dcmmeta_version": 0.6,
  "global": {
    "const": {
      "AccessionNumber": "qa",
      "AcquisitionMatrix": [80, 0, 0, 80],
      "AngioFlag": "N",
      "BitsAllocated": 16,
      "BitsStored": 12,
      "BodyPartExamined": "BRAIN",
      "Columns": 480,
      "EchoNumbers": 1,
      "EchoTime": 30.0,
      "EchoTrainLength": 80,
      "FlipAngle": 10.0,
      "HighBit": 11,
      "ImageOrientationPatient": [0.99997177275875, 0.00705811638736, 0.00257617522262, -0.0075047757734, 0.95483845211009, 0.29703065281649],
      "ImagePositionPatient": [-714.56576034805, -673.02811667473, -272.46275053874],
      "ImageType": [
        "ORIGINAL",
        "PRIMARY",
        "M",
        "ND",
        "NORM",
        "MOSAIC"
],
      "ImagedNucleus": "1H",
      "ImagingFrequency": 123.261245,
      "InPlanePhaseEncodingDirection": "COL",
      "MRAcquisitionType": "2D",
      "MagneticFieldStrength": 3.0,
      "Manufacturer": "SIEMENS",
      "ManufacturerModelName": "Prisma",
      "Modality": "MR",
      "NumberOfAverages": 1.0,
      "NumberOfPhaseEncodingSteps": 80,
      "PercentPhaseFieldOfView": 100.0,
      "PercentSampling": 100.0,
      "PerformedProcedureStepStartTime": "101337.660000",
      "PhotometricInterpretation": "MONOCHROME2",
      "PixelBandwidth": 2315.0,
      "PixelRepresentation": 0,
      "PixelSpacing": [3.0, 3.0],
      "ProtocolName": "func-bold_fa-10",
      "RepetitionTime": 2000.0,
      "Rows": 480,
      "SAR": 0.01156827590879,
      "SamplesPerPixel": 1,
      "ScanOptions": "FS",
      "ScanningSequence": "EP",
      "SequenceName": "*epfid2d1_80",
      "SequenceVariant": "SK",
      "SeriesDescription": "func-bold_fa-10",
      "SeriesNumber": 8,
      "SeriesTime": "104215.930000",
      "SliceLocation": -59.988009157606,
      "SliceThickness": 3.5,
      "SmallestImagePixelValue": 0,
      "SoftwareVersions": "syngo MR E11",
      "SpacingBetweenSlices": 3.9900000582304,
      "SpecificCharacterSet": "ISO_IR 100",
      "StudyID": "40",
      "StudyTime": "101337.606000",
      "TransmitCoilName": "Body",
      "VariableFlipAngleFlag": "N",
      "WindowCenterWidthExplanation": "Algo1"
    },
    "slices": {}
  },
  "time": {
    "samples": {
      "AcquisitionNumber": [1, 2, 3, 4, 5, 6, 7, 8, 9, 10, 11, 12, 13, 14, 15, 16, 17, 18, 19, 20, 21, 22, 23, 24, 25, 26, 27, 28, 29, 30, 31, 32, 33, 34, 35, 36, 37, 38, 39, 40, 41, 42, 43, 44, 45, 46, 47, 48, 49, 50, 51, 52, 53, 54, 55, 56, 57, 58, 59, 60, 61, 62, 63, 64, 65, 66, 67, 68, 69, 70, 71, 72, 73, 74, 75, 76, 77, 78, 79, 80, 81, 82, 83, 84, 85, 86, 87, 88, 89, 90, 91, 92, 93, 94, 95, 96, 97, 98, 99, 100, 101, 102, 103, 104, 105, 106, 107, 108, 109, 110, 111, 112, 113, 114, 115, 116, 117, 118, 119, 120, 121, 122, 123, 124, 125, 126, 127, 128, 129, 130, 131, 132, 133, 134, 135, 136, 137, 138, 139, 140, 141, 142, 143, 144, 145, 146, 147, 148, 149, 150, 151, 152, 153, 154, 155, 156, 157, 158, 159, 160, 161, 162, 163, 164, 165, 166, 167, 168, 169, 170, 171, 172, 173, 174, 175, 176, 177, 178, 179, 180, 181, 182, 183, 184, 185, 186, 187, 188, 189, 190, 191, 192, 193, 194, 195, 196, 197, 198, 199, 200],
      "AcquisitionTime": ["104127.467500", "104129.467500", "104131.467500", "104133.467500", "104135.467500", "104137.467500", "104139.467500", "104141.467500", "104143.467500", "104145.467500", "104147.467500", "104149.467500", "104151.467500", "104153.467500", "104155.467500", "104157.467500", "104159.467500", "104201.467500", "104203.467500", "104205.467500", "104207.467500", "104209.467500", "104211.467500", "104213.467500", "104215.467500", "104217.467500", "104219.467500", "104221.467500", "104223.467500", "104225.467500", "104227.467500", "104229.467500", "104231.467500", "104233.467500", "104235.467500", "104237.467500", "104239.467500", "104241.467500", "104243.467500", "104245.467500", "104247.467500", "104249.467500", "104251.467500", "104253.467500", "104255.467500", "104257.467500", "104259.467500", "104301.467500", "104303.467500", "104305.467500", "104307.467500", "104309.467500", "104311.467500", "104313.467500", "104315.467500", "104317.467500", "104319.467500", "104321.467500", "104323.467500", "104325.467500", "104327.467500", "104329.467500", "104331.467500", "104333.467500", "104335.467500", "104337.467500", "104339.467500", "104341.467500", "104343.467500", "104345.467500", "104347.467500", "104349.467500", "104351.467500", "104353.467500", "104355.467500", "104357.467500", "104359.467500", "104401.467500", "104403.467500", "104405.467500", "104407.467500", "104409.467500", "104411.467500", "104413.467500", "104415.467500", "104417.467500", "104419.467500", "104421.467500", "104423.467500", "104425.467500", "104427.467500", "104429.467500", "104431.467500", "104433.467500", "104435.467500", "104437.467500", "104439.467500", "104441.467500", "104443.467500", "104445.467500", "104447.467500", "104449.467500", "104451.467500", "104453.467500", "104455.467500", "104457.467500", "104459.467500", "104501.467500", "104503.467500", "104505.467500", "104507.467500", "104509.467500", "104511.467500", "104513.467500", "104515.467500", "104517.467500", "104519.467500", "104521.467500", "104523.467500", "104525.467500", "104527.467500", "104529.467500", "104531.467500", "104533.467500", "104535.467500", "104537.467500", "104539.467500", "104541.467500", "104543.467500", "104545.467500", "104547.467500", "104549.467500", "104551.467500", "104553.467500", "104555.467500", "104557.467500", "104559.467500", "104601.467500", "104603.467500", "104605.467500", "104607.467500", "104609.467500", "104611.467500", "104613.467500", "104615.467500", "104617.467500", "104619.467500", "104621.467500", "104623.467500", "104625.467500", "104627.467500", "104629.467500", "104631.467500", "104633.467500", "104635.467500", "104637.467500", "104639.467500", "104641.467500", "104643.467500", "104645.467500", "104647.467500", "104649.467500", "104651.467500", "104653.467500", "104655.467500", "104657.467500", "104659.467500", "104701.467500", "104703.467500", "104705.467500", "104707.467500", "104709.467500", "104711.467500", "104713.467500", "104715.467500", "104717.467500", "104719.467500", "104721.467500", "104723.467500", "104725.467500", "104727.467500", "104729.467500", "104731.467500", "104733.467500", "104735.467500", "104737.467500", "104739.467500", "104741.467500", "104743.467500", "104745.467500", "104747.467500", "104749.467500", "104751.467500", "104753.467500", "104755.467500", "104757.467500", "104759.467500", "104801.467500", "104803.467500", "104805.467500"],
      "ContentTime": ["104215.933000", "104215.936000", "104215.946000", "104215.948000", "104215.951000", "104215.953000", "104215.955000", "104215.958000", "104215.960000", "104215.962000", "104215.965000", "104215.967000", "104215.969000", "104215.972000", "104215.974000", "104215.978000", "104215.980000", "104215.983000", "104215.985000", "104215.991000", "104215.994000", "104215.996000", "104216.000000", "104216.002000", "104255.927000", "104255.930000", "104255.932000", "104255.934000", "104255.937000", "104255.939000", "104255.941000", "104255.944000", "104255.946000", "104255.949000", "104255.951000", "104255.953000", "104255.955000", "104255.958000", "104255.960000", "104255.962000", "104255.965000", "104255.967000", "104255.969000", "104255.971000", "104335.928000", "104335.931000", "104335.933000", "104335.935000", "104335.938000", "104335.940000", "104335.954000", "104335.956000", "104335.958000", "104335.961000", "104335.963000", "104335.965000", "104335.968000", "104335.973000", "104335.976000", "104335.978000", "104335.980000", "104335.983000", "104335.985000", "104335.987000", "104415.928000", "104415.931000", "104415.944000", "104415.946000", "104415.949000", "104415.951000", "104415.954000", "104415.956000", "104415.958000", "104415.960000", "104415.963000", "104415.965000", "104415.967000", "104415.970000", "104415.972000", "104415.974000", "104415.977000", "104415.979000", "104415.981000", "104415.984000", "104455.927000", "104455.930000", "104455.932000", "104455.934000", "104455.937000", "104455.939000", "104455.941000", "104455.944000", "104455.946000", "104455.948000", "104455.951000", "104455.953000", "104455.955000", "104455.958000", "104455.960000", "104455.962000", "104455.965000", "104455.967000", "104455.969000", "104455.971000", "104535.928000", "104535.931000", "104535.933000", "104535.935000", "104535.938000", "104535.940000", "104535.942000", "104535.945000", "104535.947000", "104535.949000", "104535.952000", "104535.954000", "104535.956000", "104535.958000", "104535.961000", "104535.963000", "104535.965000", "104535.968000", "104535.970000", "104535.972000", "104615.928000", "104615.931000", "104615.933000", "104615.935000", "104615.938000", "104615.940000", "104615.942000", "104615.944000", "104615.947000", "104615.949000", "104615.951000", "104615.954000", "104615.956000", "104615.958000", "104615.960000", "104615.963000", "104615.965000", "104615.968000", "104615.970000", "104615.972000", "104655.928000", "104655.931000", "104655.933000", "104655.935000", "104655.938000", "104655.940000", "104655.942000", "104655.945000", "104655.947000", "104655.949000", "104655.952000", "104655.954000", "104655.956000", "104655.959000", "104655.961000", "104655.971000", "104655.973000", "104655.975000", "104655.978000", "104655.980000", "104735.927000", "104735.930000", "104735.932000", "104735.934000", "104735.937000", "104735.939000", "104735.941000", "104735.944000", "104735.946000", "104735.948000", "104735.951000", "104735.953000", "104735.960000", "104735.963000", "104735.965000", "104735.967000", "104735.970000", "104735.972000", "104735.974000", "104735.977000", "104807.205000", "104807.208000", "104807.210000", "104807.212000", "104807.215000", "104807.217000", "104807.219000", "104807.222000", "104807.224000", "104807.226000", "104807.229000", "104807.231000", "104807.233000", "104807.238000", "104807.242000", "104807.247000"],
      "InstanceCreationTime": ["104215.933000", "104215.936000", "104215.946000", "104215.948000", "104215.951000", "104215.953000", "104215.955000", "104215.958000", "104215.960000", "104215.962000", "104215.965000", "104215.967000", "104215.969000", "104215.972000", "104215.974000", "104215.978000", "104215.980000", "104215.983000", "104215.985000", "104215.991000", "104215.994000", "104215.996000", "104216.000000", "104216.002000", "104255.927000", "104255.930000", "104255.932000", "104255.934000", "104255.937000", "104255.939000", "104255.941000", "104255.944000", "104255.946000", "104255.949000", "104255.951000", "104255.953000", "104255.955000", "104255.958000", "104255.960000", "104255.962000", "104255.965000", "104255.967000", "104255.969000", "104255.971000", "104335.928000", "104335.931000", "104335.933000", "104335.935000", "104335.938000", "104335.940000", "104335.954000", "104335.956000", "104335.958000", "104335.961000", "104335.963000", "104335.965000", "104335.968000", "104335.973000", "104335.976000", "104335.978000", "104335.980000", "104335.983000", "104335.985000", "104335.987000", "104415.928000", "104415.931000", "104415.944000", "104415.946000", "104415.949000", "104415.951000", "104415.954000", "104415.956000", "104415.958000", "104415.960000", "104415.963000", "104415.965000", "104415.967000", "104415.970000", "104415.972000", "104415.974000", "104415.977000", "104415.979000", "104415.981000", "104415.984000", "104455.927000", "104455.930000", "104455.932000", "104455.934000", "104455.937000", "104455.939000", "104455.941000", "104455.944000", "104455.946000", "104455.948000", "104455.951000", "104455.953000", "104455.955000", "104455.958000", "104455.960000", "104455.962000", "104455.965000", "104455.967000", "104455.969000", "104455.971000", "104535.928000", "104535.931000", "104535.933000", "104535.935000", "104535.938000", "104535.940000", "104535.942000", "104535.945000", "104535.947000", "104535.949000", "104535.952000", "104535.954000", "104535.956000", "104535.958000", "104535.961000", "104535.963000", "104535.965000", "104535.968000", "104535.970000", "104535.972000", "104615.928000", "104615.931000", "104615.933000", "104615.935000", "104615.938000", "104615.940000", "104615.942000", "104615.944000", "104615.947000", "104615.949000", "104615.951000", "104615.954000", "104615.956000", "104615.958000", "104615.960000", "104615.963000", "104615.965000", "104615.968000", "104615.970000", "104615.972000", "104655.928000", "104655.931000", "104655.933000", "104655.935000", "104655.938000", "104655.940000", "104655.942000", "104655.945000", "104655.947000", "104655.949000", "104655.952000", "104655.954000", "104655.956000", "104655.959000", "104655.961000", "104655.971000", "104655.973000", "104655.975000", "104655.978000", "104655.980000", "104735.927000", "104735.930000", "104735.932000", "104735.934000", "104735.937000", "104735.939000", "104735.941000", "104735.944000", "104735.946000", "104735.948000", "104735.951000", "104735.953000", "104735.960000", "104735.963000", "104735.965000", "104735.967000", "104735.970000", "104735.972000", "104735.974000", "104735.977000", "104807.205000", "104807.208000", "104807.210000", "104807.212000", "104807.215000", "104807.217000", "104807.219000", "104807.222000", "104807.224000", "104807.226000", "104807.229000", "104807.231000", "104807.233000", "104807.238000", "104807.242000", "104807.247000"],
      "InstanceNumber": [1, 2, 3, 4, 5, 6, 7, 8, 9, 10, 11, 12, 13, 14, 15, 16, 17, 18, 19, 20, 21, 22, 23, 24, 25, 26, 27, 28, 29, 30, 31, 32, 33, 34, 35, 36, 37, 38, 39, 40, 41, 42, 43, 44, 45, 46, 47, 48, 49, 50, 51, 52, 53, 54, 55, 56, 57, 58, 59, 60, 61, 62, 63, 64, 65, 66, 67, 68, 69, 70, 71, 72, 73, 74, 75, 76, 77, 78, 79, 80, 81, 82, 83, 84, 85, 86, 87, 88, 89, 90, 91, 92, 93, 94, 95, 96, 97, 98, 99, 100, 101, 102, 103, 104, 105, 106, 107, 108, 109, 110, 111, 112, 113, 114, 115, 116, 117, 118, 119, 120, 121, 122, 123, 124, 125, 126, 127, 128, 129, 130, 131, 132, 133, 134, 135, 136, 137, 138, 139, 140, 141, 142, 143, 144, 145, 146, 147, 148, 149, 150, 151, 152, 153, 154, 155, 156, 157, 158, 159, 160, 161, 162, 163, 164, 165, 166, 167, 168, 169, 170, 171, 172, 173, 174, 175, 176, 177, 178, 179, 180, 181, 182, 183, 184, 185, 186, 187, 188, 189, 190, 191, 192, 193, 194, 195, 196, 197, 198, 199, 200],
      "LargestImagePixelValue": [382, 381, 380, 380, 379, 383, 380, 383, 381, 383, 382, 381, 382, 383, 381, 383, 381, 382, 381, 381, 381, 380, 382, 380, 382, 381, 381, 381, 383, 381, 380, 381, 382, 382, 382, 380, 381, 382, 382, 381, 381, 383, 381, 383, 381, 381, 381, 382, 381, 382, 381, 382, 381, 382, 381, 380, 381, 381, 380, 381, 381, 380, 383, 380, 382, 381, 383, 381, 382, 379, 382, 381, 382, 382, 383, 382, 381, 380, 382, 382, 380, 382, 379, 382, 380, 382, 379, 382, 380, 382, 381, 382, 379, 382, 381, 382, 381, 382, 382, 380, 382, 380, 382, 381, 381, 381, 383, 380, 381, 380, 381, 381, 383, 380, 382, 380, 382, 380, 382, 381, 380, 381, 381, 382, 380, 382, 380, 381, 380, 382, 382, 381, 380, 382, 381, 381, 381, 381, 381, 381, 381, 381, 381, 380, 382, 382, 382, 380, 383, 380, 382, 380, 381, 379, 382, 382, 380, 381, 379, 380, 380, 381, 381, 381, 380, 381, 381, 383, 381, 382, 379, 382, 380, 382, 381, 382, 380, 383, 381, 381, 381, 381, 382, 381, 383, 380, 381, 380, 384, 380, 381, 380, 382, 381, 381, 380, 381, 380, 380, 379],
      "WindowCenter": [306.0, 306.0, 306.0, 306.0, 305.0, 306.0, 306.0, 305.0, 306.0, 306.0, 305.0, 306.0, 306.0, 305.0, 306.0, 305.0, 306.0, 305.0, 305.0, 305.0, 306.0, 306.0, 305.0, 305.0, 306.0, 305.0, 305.0, 306.0, 306.0, 306.0, 305.0, 306.0, 305.0, 306.0, 306.0, 305.0, 306.0, 306.0, 305.0, 306.0, 306.0, 305.0, 306.0, 306.0, 305.0, 305.0, 305.0, 305.0, 306.0, 305.0, 305.0, 305.0, 306.0, 305.0, 306.0, 305.0, 305.0, 305.0, 305.0, 306.0, 305.0, 305.0, 305.0, 305.0, 305.0, 305.0, 305.0, 305.0, 305.0, 305.0, 305.0, 305.0, 306.0, 305.0, 305.0, 305.0, 305.0, 306.0, 305.0, 305.0, 305.0, 306.0, 306.0, 306.0, 305.0, 306.0, 306.0, 306.0, 305.0, 305.0, 305.0, 305.0, 305.0, 305.0, 306.0, 305.0, 305.0, 305.0, 305.0, 305.0, 305.0, 306.0, 305.0, 306.0, 305.0, 305.0, 305.0, 305.0, 305.0, 305.0, 305.0, 306.0, 305.0, 306.0, 306.0, 305.0, 305.0, 306.0, 305.0, 305.0, 305.0, 305.0, 305.0, 305.0, 305.0, 305.0, 305.0, 305.0, 305.0, 306.0, 305.0, 306.0, 306.0, 305.0, 305.0, 305.0, 305.0, 305.0, 305.0, 305.0, 306.0, 306.0, 306.0, 306.0, 305.0, 305.0, 305.0, 305.0, 305.0, 306.0, 305.0, 305.0, 305.0, 305.0, 305.0, 305.0, 305.0, 305.0, 305.0, 305.0, 305.0, 305.0, 305.0, 305.0, 305.0, 305.0, 305.0, 305.0, 305.0, 305.0, 305.0, 305.0, 305.0, 305.0, 305.0, 305.0, 305.0, 305.0, 305.0, 305.0, 305.0, 305.0, 305.0, 305.0, 305.0, 304.0, 305.0, 306.0, 305.0, 305.0, 305.0, 305.0, 305.0, 305.0, 304.0, 305.0, 305.0, 305.0, 305.0, 305.0],
      "WindowWidth": [662.0, 662.0, 662.0, 662.0, 662.0, 662.0, 662.0, 662.0, 663.0, 662.0, 662.0, 662.0, 662.0, 662.0, 662.0, 661.0, 663.0, 662.0, 662.0, 662.0, 662.0, 662.0, 662.0, 662.0, 662.0, 661.0, 661.0, 662.0, 662.0, 662.0, 661.0, 662.0, 662.0, 662.0, 662.0, 661.0, 662.0, 662.0, 661.0, 662.0, 662.0, 661.0, 662.0, 662.0, 661.0, 662.0, 661.0, 661.0, 662.0, 661.0, 661.0, 661.0, 662.0, 661.0, 662.0, 661.0, 662.0, 661.0, 661.0, 662.0, 662.0, 661.0, 662.0, 661.0, 661.0, 661.0, 661.0, 661.0, 661.0, 661.0, 661.0, 661.0, 661.0, 661.0, 661.0, 662.0, 661.0, 662.0, 661.0, 661.0, 661.0, 662.0, 662.0, 662.0, 661.0, 662.0, 661.0, 662.0, 661.0, 661.0, 661.0, 661.0, 661.0, 661.0, 662.0, 661.0, 661.0, 661.0, 661.0, 661.0, 661.0, 662.0, 661.0, 662.0, 661.0, 661.0, 661.0, 661.0, 661.0, 661.0, 661.0, 661.0, 661.0, 661.0, 661.0, 661.0, 661.0, 662.0, 661.0, 661.0, 661.0, 661.0, 661.0, 661.0, 661.0, 661.0, 661.0, 661.0, 661.0, 661.0, 661.0, 661.0, 662.0, 661.0, 661.0, 661.0, 661.0, 661.0, 661.0, 661.0, 662.0, 662.0, 662.0, 661.0, 661.0, 661.0, 661.0, 661.0, 661.0, 661.0, 661.0, 661.0, 661.0, 661.0, 661.0, 661.0, 661.0, 661.0, 661.0, 661.0, 661.0, 661.0, 661.0, 661.0, 661.0, 661.0, 661.0, 661.0, 661.0, 661.0, 661.0, 660.0, 661.0, 661.0, 661.0, 661.0, 661.0, 660.0, 661.0, 661.0, 661.0, 660.0, 661.0, 661.0, 661.0, 660.0, 661.0, 661.0, 661.0, 661.0, 661.0, 661.0, 661.0, 661.0, 660.0, 661.0, 661.0, 661.0, 660.0, 661.0]
    },
    "slices": {}
  }
}