{
  "AcquisitionMatrixPE": 80,
  "AcquisitionNumber": 1,
  "AcquisitionTime": "10:20:57.737500",
  "BandwidthPerPixelPhaseEncode": 48.077,
  "BaseResolution": 80,
  "BodyPartExamined": "BRAIN",
  "CoilCombinationMethod": "Sum of Squares",
  "ConsistencyInfo": "N4_VE11E_LATEST_20181129",
  "ConversionSoftware": "dcm2niix",
  "ConversionSoftwareVersion": "v1.0.20220720",
  "DerivedVendorReportedEchoSpacing": 0.000519999,
  "DeviceSerialNumber": "66112",
  "DwellTime": 2.7e-06,
  "EchoTime": 0.035,
  "EchoTrainLength": 39,
  "EffectiveEchoSpacing": 0.00026,
  "FlipAngle": 90,
  "HeudiconvVersion": "0.13.1",
  "ImageOrientationPatientDICOM": [0.999972, 0.00705812, 0.00257618, -0.00750478, 0.954838, 0.297031],
  "ImageOrientationText": "Tra>Cor(17.3)>Sag(0.0)",
  "ImageType": [
    "ORIGINAL",
    "PRIMARY",
    "M",
    "ND",
    "NORM",
    "MOSAIC"
],
  "ImagingFrequency": 123.261,
  "InPlanePhaseEncodingDirectionDICOM": "COL",
  "InstitutionAddress": "Maynard 3,Hanover,NH,US,03755",
  "InstitutionName": "Dartmouth College - PBS",
  "InstitutionalDepartmentName": "Department",
  "MRAcquisitionType": "2D",
  "MagneticFieldStrength": 3,
  "Manufacturer": "Siemens",
  "ManufacturersModelName": "Prisma",
  "MatrixCoilMode": "GRAPPA",
  "Modality": "MR",
  "NonlinearGradientCorrection": false,
  "ParallelReductionFactorInPlane": 2,
  "PartialFourier": 1,
  "PatientPosition": "HFS",
  "PercentPhaseFOV": 100,
  "PercentSampling": 100,
  "PhaseEncodingDirection": "j-",
  "PhaseEncodingSteps": 79,
  "PhaseResolution": 1,
  "PixelBandwidth": 2315,
  "ProcedureStepDescription": "dbic^QA",
  "ProtocolName": "func-bold_task-rest_acq-p2",
  "PulseSequenceDetails": "%SiemensSeq%\\ep2d_bold",
  "ReceiveCoilActiveElements": "HEA;HEP",
  "ReceiveCoilName": "Head_32",
  "ReconMatrixPE": 80,
  "RefLinesPE": 24,
  "RepetitionTime": 2,
  "SAR": 0.0548771,
  "ScanOptions": "FS",
  "ScanningSequence": "EP",
  "SequenceName": "*epfid2d1_80",
  "SequenceVariant": "SK",
  "SeriesDescription": "func-bold_task-rest_acq-p2",
  "SeriesNumber": 5,
  "ShimSetting": [4245, -7735, -7484, -11, -180, -58, -12, 88],
  "SliceThickness": 3.5,
  "SliceTiming": [0.99, 0, 1.0575, 0.0675, 1.1225, 0.1325, 1.1875, 0.1975, 1.255, 0.265, 1.32, 0.33, 1.3875, 0.3975, 1.4525, 0.4625, 1.5175, 0.5275, 1.585, 0.595, 1.65, 0.66, 1.7175, 0.7275, 1.7825, 0.7925, 1.8475, 0.8575, 1.915, 0.925],
  "SoftwareVersions": "syngo MR E11",
  "SpacingBetweenSlices": 3.99,
  "StationName": "AWP66112",
  "TaskName": "rest",
  "TotalReadoutTime": 0.02054,
  "TxRefAmp": 222.629,
  "dcmmeta_affine": [
    [-2.999915361404419, -0.022514326497912407, 0.001449783449061215, 120.8548812866211],
    [-0.021174348890781403, 2.8645153045654297, 1.1851959228515625, -128.99334716796875],
    [0.007728525437414646, -0.8910919427871704, 3.8099091053009033, -22.079057693481445],
    [0.0, 0.0, 0.0, 1.0]
],
  "dcmmeta_reorient_transform": [
    [0.0, -1.0, 0.0, 79.0],
    [1.0, 0.0, 0.0, 0.0],
    [0.0, 0.0, 1.0, 0.0],
    [0.0, 0.0, 0.0, 1.0]
],
  "dcmmeta_shape": [80, 80, 30, 200],
  "dcmmeta_slice_dim": 2,
  "dcmmeta_version": 0.6,
  "global": {
    "const": {
      "AccessionNumber": "qa",
      "AcquisitionMatrix": [80, 0, 0, 80],
      "AngioFlag": "N",
      "BitsAllocated": 16,
      "BitsStored": 12,
      "BodyPartExamined": "BRAIN",
      "Columns": 480,
      "EchoNumbers": 1,
      "EchoTime": 35.0,
      "EchoTrainLength": 39,
      "FlipAngle": 90.0,
      "HighBit": 11,
      "ImageOrientationPatient": [0.99997177275875, 0.00705811638736, 0.00257617522262, -0.0075047757734, 0.95483845211009, 0.29703065281649],
      "ImagePositionPatient": [-714.55645057565, -674.44130560906, -272.23941908733],
      "ImageType": [
        "ORIGINAL",
        "PRIMARY",
        "M",
        "ND",
        "NORM",
        "MOSAIC"
],
      "ImagedNucleus": "1H",
      "ImagingFrequency": 123.261242,
      "InPlanePhaseEncodingDirection": "COL",
      "MRAcquisitionType": "2D",
      "MagneticFieldStrength": 3.0,
      "Manufacturer": "SIEMENS",
      "ManufacturerModelName": "Prisma",
      "Modality": "MR",
      "NumberOfAverages": 1.0,
      "NumberOfPhaseEncodingSteps": 79,
      "PercentPhaseFieldOfView": 100.0,
      "PercentSampling": 100.0,
      "PerformedProcedureStepStartTime": "101337.660000",
      "PhotometricInterpretation": "MONOCHROME2",
      "PixelBandwidth": 2315.0,
      "PixelRepresentation": 0,
      "PixelSpacing": [3.0, 3.0],
      "ProtocolName": "func-bold_task-rest_acq-p2",
      "RepetitionTime": 2000.0,
      "Rows": 480,
      "SAR": 0.05487704904003,
      "SamplesPerPixel": 1,
      "ScanOptions": "FS",
      "ScanningSequence": "EP",
      "SequenceName": "*epfid2d1_80",
      "SequenceVariant": "SK",
      "SeriesDescription": "func-bold_task-rest_acq-p2",
      "SeriesNumber": 5,
      "SeriesTime": "102155.949000",
      "SliceLocation": -59.354985367441,
      "SliceThickness": 3.5,
      "SmallestImagePixelValue": 0,
      "SoftwareVersions": "syngo MR E11",
      "SpacingBetweenSlices": 3.9899999326263,
      "SpecificCharacterSet": "ISO_IR 100",
      "StudyID": "40",
      "StudyTime": "101337.606000",
      "TransmitCoilName": "Body",
      "VariableFlipAngleFlag": "N",
      "WindowCenterWidthExplanation": "Algo1"
    },
    "slices": {}
  },
  "time": {
    "samples": {
      "AcquisitionNumber": [1, 2, 3, 4, 5, 6, 7, 8, 9, 10, 11, 12, 13, 14, 15, 16, 17, 18, 19, 20, 21, 22, 23, 24, 25, 26, 27, 28, 29, 30, 31, 32, 33, 34, 35, 36, 37, 38, 39, 40, 41, 42, 43, 44, 45, 46, 47, 48, 49, 50, 51, 52, 53, 54, 55, 56, 57, 58, 59, 60, 61, 62, 63, 64, 65, 66, 67, 68, 69, 70, 71, 72, 73, 74, 75, 76, 77, 78, 79, 80, 81, 82, 83, 84, 85, 86, 87, 88, 89, 90, 91, 92, 93, 94, 95, 96, 97, 98, 99, 100, 101, 102, 103, 104, 105, 106, 107, 108, 109, 110, 111, 112, 113, 114, 115, 116, 117, 118, 119, 120, 121, 122, 123, 124, 125, 126, 127, 128, 129, 130, 131, 132, 133, 134, 135, 136, 137, 138, 139, 140, 141, 142, 143, 144, 145, 146, 147, 148, 149, 150, 151, 152, 153, 154, 155, 156, 157, 158, 159, 160, 161, 162, 163, 164, 165, 166, 167, 168, 169, 170, 171, 172, 173, 174, 175, 176, 177, 178, 179, 180, 181, 182, 183, 184, 185, 186, 187, 188, 189, 190, 191, 192, 193, 194, 195, 196, 197, 198, 199, 200],
      "AcquisitionTime": ["102057.737500", "102059.737500", "102101.737500", "102103.737500", "102105.737500", "102107.737500", "102109.737500", "102111.737500", "102113.737500", "102115.737500", "102117.737500", "102119.737500", "102121.737500", "102123.737500", "102125.737500", "102127.737500", "102129.737500", "102131.737500", "102133.737500", "102135.737500", "102137.737500", "102139.737500", "102141.737500", "102143.737500", "102145.737500", "102147.737500", "102149.737500", "102151.737500", "102153.737500", "102155.737500", "102157.737500", "102159.737500", "102201.737500", "102203.737500", "102205.737500", "102207.737500", "102209.737500", "102211.737500", "102213.737500", "102215.737500", "102217.737500", "102219.737500", "102221.737500", "102223.737500", "102225.737500", "102227.737500", "102229.737500", "102231.737500", "102233.737500", "102235.737500", "102237.737500", "102239.737500", "102241.737500", "102243.737500", "102245.737500", "102247.737500", "102249.737500", "102251.737500", "102253.737500", "102255.737500", "102257.737500", "102259.737500", "102301.737500", "102303.737500", "102305.737500", "102307.737500", "102309.737500", "102311.737500", "102313.737500", "102315.737500", "102317.737500", "102319.737500", "102321.737500", "102323.737500", "102325.737500", "102327.737500", "102329.737500", "102331.737500", "102333.737500", "102335.737500", "102337.737500", "102339.737500", "102341.737500", "102343.737500", "102345.737500", "102347.737500", "102349.737500", "102351.737500", "102353.737500", "102355.737500", "102357.737500", "102359.737500", "102401.737500", "102403.737500", "102405.737500", "102407.737500", "102409.737500", "102411.737500", "102413.737500", "102415.737500", "102417.737500", "102419.737500", "102421.737500", "102423.737500", "102425.737500", "102427.737500", "102429.737500", "102431.737500", "102433.737500", "102435.737500", "102437.737500", "102439.737500", "102441.737500", "102443.737500", "102445.737500", "102447.737500", "102449.737500", "102451.737500", "102453.737500", "102455.737500", "102457.737500", "102459.737500", "102501.737500", "102503.737500", "102505.737500", "102507.737500", "102509.737500", "102511.737500", "102513.737500", "102515.737500", "102517.737500", "102519.737500", "102521.737500", "102523.737500", "102525.737500", "102527.737500", "102529.737500", "102531.737500", "102533.737500", "102535.737500", "102537.737500", "102539.737500", "102541.737500", "102543.737500", "102545.737500", "102547.737500", "102549.737500", "102551.737500", "102553.737500", "102555.737500", "102557.737500", "102559.737500", "102601.737500", "102603.737500", "102605.737500", "102607.737500", "102609.737500", "102611.737500", "102613.737500", "102615.737500", "102617.737500", "102619.737500", "102621.737500", "102623.737500", "102625.737500", "102627.737500", "102629.737500", "102631.737500", "102633.737500", "102635.737500", "102637.737500", "102639.737500", "102641.737500", "102643.737500", "102645.737500", "102647.737500", "102649.737500", "102651.737500", "102653.737500", "102655.737500", "102657.737500", "102659.737500", "102701.737500", "102703.737500", "102705.737500", "102707.737500", "102709.737500", "102711.737500", "102713.737500", "102715.737500", "102717.737500", "102719.737500", "102721.737500", "102723.737500", "102725.737500", "102727.737500", "102729.737500", "102731.737500", "102733.737500", "102735.737500"],
      "ContentTime": ["102155.953000", "102155.956000", "102155.958000", "102155.961000", "102155.963000", "102155.965000", "102155.968000", "102155.970000", "102155.972000", "102155.975000", "102155.977000", "102155.989000", "102155.991000", "102156.000000", "102156.002000", "102156.005000", "102156.007000", "102156.009000", "102156.012000", "102156.014000", "102156.024000", "102156.026000", "102156.028000", "102156.031000", "102156.033000", "102156.035000", "102156.038000", "102156.040000", "102156.042000", "102235.928000", "102235.931000", "102235.933000", "102235.936000", "102235.938000", "102235.940000", "102235.943000", "102235.945000", "102235.947000", "102235.950000", "102235.952000", "102235.954000", "102235.988000", "102235.990000", "102235.992000", "102235.995000", "102235.997000", "102236.000000", "102236.003000", "102236.005000", "102315.928000", "102315.936000", "102315.938000", "102315.940000", "102315.943000", "102315.945000", "102315.947000", "102315.950000", "102315.952000", "102315.955000", "102315.957000", "102315.959000", "102315.962000", "102315.964000", "102315.966000", "102315.977000", "102315.980000", "102315.982000", "102315.984000", "102315.987000", "102355.928000", "102355.931000", "102355.933000", "102355.936000", "102355.938000", "102355.940000", "102355.943000", "102355.945000", "102355.947000", "102355.949000", "102355.952000", "102355.954000", "102355.956000", "102355.959000", "102355.962000", "102355.964000", "102355.966000", "102355.976000", "102355.978000", "102355.981000", "102435.928000", "102435.931000", "102435.933000", "102435.936000", "102435.938000", "102435.940000", "102435.943000", "102435.945000", "102435.947000", "102435.950000", "102435.952000", "102435.954000", "102435.957000", "102435.959000", "102435.962000", "102435.965000", "102435.967000", "102435.969000", "102435.972000", "102435.974000", "102515.928000", "102515.931000", "102515.933000", "102515.935000", "102515.938000", "102515.940000", "102515.942000", "102515.945000", "102515.947000", "102515.949000", "102515.952000", "102515.954000", "102515.956000", "102515.959000", "102515.961000", "102515.963000", "102515.965000", "102515.968000", "102515.970000", "102515.973000", "102555.928000", "102555.931000", "102555.933000", "102555.935000", "102555.938000", "102555.940000", "102555.942000", "102555.945000", "102555.947000", "102555.949000", "102555.952000", "102555.954000", "102555.956000", "102555.959000", "102555.961000", "102555.963000", "102555.966000", "102555.968000", "102555.970000", "102555.973000", "102635.927000", "102635.930000", "102635.932000", "102635.934000", "102635.937000", "102635.939000", "102635.941000", "102635.944000", "102635.946000", "102635.948000", "102635.951000", "102635.953000", "102635.955000", "102635.958000", "102635.960000", "102635.962000", "102635.965000", "102635.967000", "102635.969000", "102635.972000", "102715.928000", "102715.931000", "102715.933000", "102715.935000", "102715.938000", "102715.940000", "102715.942000", "102715.945000", "102715.947000", "102715.949000", "102715.952000", "102715.954000", "102715.957000", "102715.959000", "102715.961000", "102715.964000", "102715.966000", "102715.968000", "102715.971000", "102715.973000", "102736.791000", "102736.794000", "102736.796000", "102736.799000", "102736.801000", "102736.803000", "102736.806000", "102736.808000", "102736.811000", "102736.813000", "102736.816000"],
      "InstanceCreationTime": ["102155.953000", "102155.956000", "102155.958000", "102155.961000", "102155.963000", "102155.965000", "102155.968000", "102155.970000", "102155.972000", "102155.975000", "102155.977000", "102155.989000", "102155.991000", "102156.000000", "102156.002000", "102156.005000", "102156.007000", "102156.009000", "102156.012000", "102156.014000", "102156.024000", "102156.026000", "102156.028000", "102156.031000", "102156.033000", "102156.035000", "102156.038000", "102156.040000", "102156.042000", "102235.928000", "102235.931000", "102235.933000", "102235.936000", "102235.938000", "102235.940000", "102235.943000", "102235.945000", "102235.947000", "102235.950000", "102235.952000", "102235.954000", "102235.988000", "102235.990000", "102235.992000", "102235.995000", "102235.997000", "102236.000000", "102236.003000", "102236.005000", "102315.928000", "102315.936000", "102315.938000", "102315.940000", "102315.943000", "102315.945000", "102315.947000", "102315.950000", "102315.952000", "102315.955000", "102315.957000", "102315.959000", "102315.962000", "102315.964000", "102315.966000", "102315.977000", "102315.980000", "102315.982000", "102315.984000", "102315.987000", "102355.928000", "102355.931000", "102355.933000", "102355.936000", "102355.938000", "102355.940000", "102355.943000", "102355.945000", "102355.947000", "102355.949000", "102355.952000", "102355.954000", "102355.956000", "102355.959000", "102355.962000", "102355.964000", "102355.966000", "102355.976000", "102355.978000", "102355.981000", "102435.928000", "102435.931000", "102435.933000", "102435.936000", "102435.938000", "102435.940000", "102435.943000", "102435.945000", "102435.947000", "102435.950000", "102435.952000", "102435.954000", "102435.957000", "102435.959000", "102435.962000", "102435.965000", "102435.967000", "102435.969000", "102435.972000", "102435.974000", "102515.928000", "102515.931000", "102515.933000", "102515.935000", "102515.938000", "102515.940000", "102515.942000", "102515.945000", "102515.947000", "102515.949000", "102515.952000", "102515.954000", "102515.956000", "102515.959000", "102515.961000", "102515.963000", "102515.965000", "102515.968000", "102515.970000", "102515.973000", "102555.928000", "102555.931000", "102555.933000", "102555.935000", "102555.938000", "102555.940000", "102555.942000", "102555.945000", "102555.947000", "102555.949000", "102555.952000", "102555.954000", "102555.956000", "102555.959000", "102555.961000", "102555.963000", "102555.966000", "102555.968000", "102555.970000", "102555.973000", "102635.927000", "102635.930000", "102635.932000", "102635.934000", "102635.937000", "102635.939000", "102635.941000", "102635.944000", "102635.946000", "102635.948000", "102635.951000", "102635.953000", "102635.955000", "102635.958000", "102635.960000", "102635.962000", "102635.965000", "102635.967000", "102635.969000", "102635.972000", "102715.928000", "102715.931000", "102715.933000", "102715.935000", "102715.938000", "102715.940000", "102715.942000", "102715.945000", "102715.947000", "102715.949000", "102715.952000", "102715.954000", "102715.957000", "102715.959000", "102715.961000", "102715.964000", "102715.966000", "102715.968000", "102715.971000", "102715.973000", "102736.791000", "102736.794000", "102736.796000", "102736.799000", "102736.801000", "102736.803000", "102736.806000", "102736.808000", "102736.811000", "102736.813000", "102736.816000"],
      "InstanceNumber": [1, 2, 3, 4, 5, 6, 7, 8, 9, 10, 11, 12, 13, 14, 15, 16, 17, 18, 19, 20, 21, 22, 23, 24, 25, 26, 27, 28, 29, 30, 31, 32, 33, 34, 35, 36, 37, 38, 39, 40, 41, 42, 43, 44, 45, 46, 47, 48, 49, 50, 51, 52, 53, 54, 55, 56, 57, 58, 59, 60, 61, 62, 63, 64, 65, 66, 67, 68, 69, 70, 71, 72, 73, 74, 75, 76, 77, 78, 79, 80, 81, 82, 83, 84, 85, 86, 87, 88, 89, 90, 91, 92, 93, 94, 95, 96, 97, 98, 99, 100, 101, 102, 103, 104, 105, 106, 107, 108, 109, 110, 111, 112, 113, 114, 115, 116, 117, 118, 119, 120, 121, 122, 123, 124, 125, 126, 127, 128, 129, 130, 131, 132, 133, 134, 135, 136, 137, 138, 139, 140, 141, 142, 143, 144, 145, 146, 147, 148, 149, 150, 151, 152, 153, 154, 155, 156, 157, 158, 159, 160, 161, 162, 163, 164, 165, 166, 167, 168, 169, 170, 171, 172, 173, 174, 175, 176, 177, 178, 179, 180, 181, 182, 183, 184, 185, 186, 187, 188, 189, 190, 191, 192, 193, 194, 195, 196, 197, 198, 199, 200],
      "LargestImagePixelValue": [2261, 2255, 2257, 2256, 2256, 2255, 2259, 2257, 2261, 2256, 2255, 2258, 2259, 2254, 2256, 2263, 2258, 2258, 2258, 2264, 2259, 2258, 2261, 2255, 2259, 2257, 2265, 2255, 2255, 2258, 2264, 2253, 2260, 2258, 2262, 2263, 2259, 2254, 2267, 2252, 2262, 2257, 2256, 2259, 2264, 2264, 2261, 2263, 2258, 2262, 2259, 2262, 2256, 2256, 2259, 2258, 2263, 2255, 2258, 2258, 2259, 2259, 2259, 2255, 2259, 2258, 2261, 2254, 2254, 2258, 2256, 2259, 2258, 2266, 2258, 2253, 2259, 2255, 2258, 2266, 2258, 2256, 2257, 2259, 2255, 2257, 2258, 2256, 2255, 2258, 2254, 2259, 2253, 2263, 2254, 2254, 2258, 2258, 2254, 2261, 2257, 2257, 2251, 2256, 2258, 2251, 2259, 2261, 2254, 2258, 2252, 2261, 2260, 2260, 2255, 2259, 2259, 2255, 2254, 2255, 2258, 2259, 2260, 2255, 2252, 2257, 2259, 2252, 2260, 2251, 2259, 2265, 2261, 2256, 2261, 2261, 2252, 2265, 2258, 2263, 2259, 2256, 2259, 2260, 2259, 2257, 2261, 2262, 2258, 2259, 2255, 2258, 2256, 2260, 2258, 2257, 2260, 2252, 2256, 2255, 2258, 2258, 2259, 2252, 2256, 2260, 2259, 2260, 2257, 2253, 2259, 2253, 2257, 2263, 2257, 2256, 2258, 2257, 2255, 2257, 2256, 2257, 2259, 2255, 2255, 2259, 2253, 2260, 2259, 2250, 2256, 2258, 2257, 2254, 2254, 2258, 2255, 2261, 2257, 2253],
      "WindowCenter": [1046.0, 1045.0, 1045.0, 1046.0, 1045.0, 1045.0, 1045.0, 1045.0, 1045.0, 1045.0, 1045.0, 1045.0, 1045.0, 1045.0, 1045.0, 1045.0, 1046.0, 1045.0, 1045.0, 1045.0, 1045.0, 1045.0, 1045.0, 1045.0, 1045.0, 1045.0, 1045.0, 1045.0, 1045.0, 1045.0, 1045.0, 1045.0, 1045.0, 1045.0, 1045.0, 1045.0, 1045.0, 1045.0, 1045.0, 1045.0, 1045.0, 1045.0, 1045.0, 1045.0, 1045.0, 1045.0, 1045.0, 1045.0, 1045.0, 1045.0, 1045.0, 1045.0, 1045.0, 1045.0, 1045.0, 1045.0, 1045.0, 1045.0, 1045.0, 1045.0, 1045.0, 1045.0, 1045.0, 1045.0, 1045.0, 1045.0, 1045.0, 1045.0, 1045.0, 1045.0, 1045.0, 1045.0, 1045.0, 1045.0, 1045.0, 1045.0, 1045.0, 1045.0, 1045.0, 1045.0, 1045.0, 1045.0, 1045.0, 1045.0, 1045.0, 1045.0, 1045.0, 1045.0, 1045.0, 1045.0, 1045.0, 1045.0, 1045.0, 1045.0, 1045.0, 1045.0, 1045.0, 1045.0, 1045.0, 1045.0, 1044.0, 1045.0, 1044.0, 1044.0, 1045.0, 1044.0, 1044.0, 1044.0, 1046.0, 1045.0, 1045.0, 1044.0, 1044.0, 1045.0, 1044.0, 1045.0, 1045.0, 1044.0, 1044.0, 1045.0, 1044.0, 1045.0, 1044.0, 1044.0, 1045.0, 1044.0, 1044.0, 1044.0, 1044.0, 1044.0, 1044.0, 1045.0, 1044.0, 1044.0, 1044.0, 1044.0, 1044.0, 1044.0, 1044.0, 1044.0, 1044.0, 1044.0, 1044.0, 1044.0, 1044.0, 1044.0, 1044.0, 1044.0, 1044.0, 1044.0, 1044.0, 1044.0, 1044.0, 1044.0, 1044.0, 1044.0, 1044.0, 1044.0, 1044.0, 1044.0, 1044.0, 1044.0, 1044.0, 1044.0, 1044.0, 1044.0, 1044.0, 1044.0, 1044.0, 1044.0, 1044.0, 1044.0, 1044.0, 1044.0, 1044.0, 1044.0, 1044.0, 1044.0, 1044.0, 1044.0, 1044.0, 1044.0, 1044.0, 1044.0, 1044.0, 1044.0, 1044.0, 1044.0, 1044.0, 1044.0, 1044.0, 1044.0, 1044.0, 1044.0, 1044.0, 1044.0, 1044.0, 1044.0, 1044.0, 1044.0],
      "WindowWidth": [2346.0, 2345.0, 2345.0, 2345.0, 2345.0, 2345.0, 2346.0, 2345.0, 2345.0, 2345.0, 2345.0, 2345.0, 2345.0, 2345.0, 2345.0, 2345.0, 2345.0, 2345.0, 2345.0, 2345.0, 2345.0, 2345.0, 2345.0, 2345.0, 2344.0, 2345.0, 2344.0, 2345.0, 2344.0, 2344.0, 2344.0, 2344.0, 2344.0, 2344.0, 2344.0, 2344.0, 2344.0, 2344.0, 2344.0, 2344.0, 2344.0, 2344.0, 2344.0, 2344.0, 2344.0, 2344.0, 2344.0, 2344.0, 2344.0, 2344.0, 2344.0, 2344.0, 2344.0, 2344.0, 2344.0, 2344.0, 2344.0, 2344.0, 2344.0, 2344.0, 2344.0, 2344.0, 2344.0, 2344.0, 2344.0, 2344.0, 2344.0, 2344.0, 2343.0, 2344.0, 2343.0, 2343.0, 2343.0, 2344.0, 2344.0, 2344.0, 2344.0, 2343.0, 2344.0, 2343.0, 2344.0, 2343.0, 2343.0, 2343.0, 2343.0, 2343.0, 2343.0, 2343.0, 2343.0, 2343.0, 2343.0, 2343.0, 2343.0, 2343.0, 2343.0, 2343.0, 2343.0, 2343.0, 2343.0, 2343.0, 2343.0, 2343.0, 2343.0, 2343.0, 2343.0, 2343.0, 2343.0, 2343.0, 2344.0, 2343.0, 2343.0, 2343.0, 2343.0, 2344.0, 2343.0, 2343.0, 2343.0, 2343.0, 2342.0, 2343.0, 2343.0, 2343.0, 2343.0, 2343.0, 2343.0, 2343.0, 2343.0, 2343.0, 2343.0, 2343.0, 2342.0, 2343.0, 2342.0, 2342.0, 2343.0, 2342.0, 2342.0, 2342.0, 2343.0, 2342.0, 2343.0, 2342.0, 2342.0, 2342.0, 2342.0, 2342.0, 2342.0, 2342.0, 2342.0, 2342.0, 2342.0, 2342.0, 2342.0, 2342.0, 2342.0, 2342.0, 2342.0, 2342.0, 2342.0, 2342.0, 2342.0, 2342.0, 2342.0, 2342.0, 2342.0, 2342.0, 2342.0, 2342.0, 2342.0, 2342.0, 2342.0, 2342.0, 2342.0, 2342.0, 2342.0, 2342.0, 2342.0, 2342.0, 2342.0, 2343.0, 2342.0, 2342.0, 2342.0, 2342.0, 2342.0, 2342.0, 2342.0, 2341.0, 2341.0, 2342.0, 2342.0, 2342.0, 2342.0, 2342.0, 2342.0, 2342.0, 2342.0, 2342.0, 2342.0, 2342.0]
    },
    "slices": {}
  }
}