{
  "AcquisitionMatrixPE": 80,
  "AcquisitionNumber": 1,
  "AcquisitionTime": "09:13:2.492500",
  "BandwidthPerPixelPhaseEncode": 25,
  "BaseResolution": 80,
  "BodyPartExamined": "BRAIN",
  "CoilCombinationMethod": "Sum of Squares",
  "ConsistencyInfo": "N4_VE11C_LATEST_20160120",
  "ConversionSoftware": "dcm2niix",
  "ConversionSoftwareVersion": "v1.0.20220720",
  "DerivedVendorReportedEchoSpacing": 0.0005,
  "DeviceSerialNumber": "66112",
  "DwellTime": 2.7e-06,
  "EchoTime": 0.03,
  "EchoTrainLength": 80,
  "EffectiveEchoSpacing": 0.0005,
  "FlipAngle": 77,
  "HeudiconvVersion": "0.13.1",
  "ImageOrientationPatientDICOM": [0.988098, -0.152722, -0.0184148, 0.150847, 0.938533, 0.310485],
  "ImageOrientationText": "Tra>Cor(18.0)>Sag(1.7)",
  "ImageType": [
    "ORIGINAL",
    "PRIMARY",
    "M",
    "ND",
    "NORM",
    "MOSAIC"
],
  "ImagingFrequency": 123.252,
  "InPlanePhaseEncodingDirectionDICOM": "COL",
  "InstitutionAddress": "Maynard 3,Hanover,NH,US,03755",
  "InstitutionName": "Dartmouth College - PBS",
  "InstitutionalDepartmentName": "Department",
  "MRAcquisitionType": "2D",
  "MagneticFieldStrength": 3,
  "Manufacturer": "Siemens",
  "ManufacturersModelName": "Prisma",
  "MatrixCoilMode": "SENSE",
  "Modality": "MR",
  "NonlinearGradientCorrection": false,
  "PartialFourier": 1,
  "PatientPosition": "HFS",
  "PercentPhaseFOV": 100,
  "PercentSampling": 100,
  "PhaseEncodingDirection": "j-",
  "PhaseEncodingSteps": 80,
  "PhaseResolution": 1,
  "PixelBandwidth": 2315,
  "ProcedureStepDescription": "dbic^QA",
  "ProtocolName": "func-bold_fa-77",
  "PulseSequenceDetails": "%SiemensSeq%\\ep2d_bold",
  "ReceiveCoilActiveElements": "HC1-7;NC1,2",
  "ReceiveCoilName": "HeadNeck_64",
  "ReconMatrixPE": 80,
  "RepetitionTime": 2,
  "SAR": 0.0285023,
  "ScanOptions": "FS",
  "ScanningSequence": "EP",
  "SequenceName": "*epfid2d1_80",
  "SequenceVariant": "SK",
  "SeriesDescription": "func-bold_fa-77",
  "SeriesNumber": 7,
  "ShimSetting": [4142, -7686, -7501, 178, -74, -314, -52, 86],
  "SliceThickness": 3.5,
  "SliceTiming": [0.99, 0, 1.055, 0.065, 1.1225, 0.1325, 1.1875, 0.1975, 1.2525, 0.265, 1.32, 0.33, 1.385, 0.395, 1.4525, 0.4625, 1.5175, 0.5275, 1.5825, 0.595, 1.65, 0.66, 1.715, 0.725, 1.7825, 0.7925, 1.8475, 0.8575, 1.9125, 0.9225],
  "SoftwareVersions": "syngo MR E11",
  "SpacingBetweenSlices": 3.99,
  "StationName": "AWP66112",
  "TotalReadoutTime": 0.0395,
  "TxRefAmp": 218.059,
  "dcmmeta_affine": [
    [-2.9642930030822754, 0.45254167914390564, 0.12023847550153732, 100.0818862915039],
    [0.45816490054130554, 2.815598487854004, 1.2351751327514648, -130.31039428710938],
    [-0.05524435639381409, -0.9314562082290649, 3.7920949459075928, -29.117782592773438],
    [0.0, 0.0, 0.0, 1.0]
],
  "dcmmeta_reorient_transform": [
    [0.0, -1.0, 0.0, 79.0],
    [1.0, 0.0, 0.0, 0.0],
    [0.0, 0.0, 1.0, 0.0],
    [0.0, 0.0, 0.0, 1.0]
],
  "dcmmeta_shape": [80, 80, 30, 200],
  "dcmmeta_slice_dim": 2,
  "dcmmeta_version": 0.6,
  "global": {
    "const": {
      "AccessionNumber": "qa64",
      "AcquisitionMatrix": [80, 0, 0, 80],
      "AngioFlag": "N",
      "BitsAllocated": 16,
      "BitsStored": 12,
      "BodyPartExamined": "BRAIN",
      "Columns": 480,
      "EchoNumbers": 1,
      "EchoTime": 30.0,
      "EchoTrainLength": 80,
      "FlipAngle": 77.0,
      "HighBit": 11,
      "ImageOrientationPatient": [0.98809766625618, -0.1527216344012, -0.0184147854973, 0.15084722828951, 0.93853285846193, 0.31048540594472],
      "ImagePositionPatient": [-819.19961879736, -563.60862813767, -277.9451970029],
      "ImageType": [
        "ORIGINAL",
        "PRIMARY",
        "M",
        "ND",
        "NORM",
        "MOSAIC"
],
      "ImagedNucleus": "1H",
      "ImagingFrequency": 123.252498,
      "InPlanePhaseEncodingDirection": "COL",
      "MRAcquisitionType": "2D",
      "MagneticFieldStrength": 3.0,
      "Manufacturer": "SIEMENS",
      "ManufacturerModelName": "Prisma",
      "Modality": "MR",
      "NumberOfAverages": 1.0,
      "NumberOfPhaseEncodingSteps": 80,
      "PercentPhaseFieldOfView": 100.0,
      "PercentSampling": 100.0,
      "PerformedProcedureStepStartTime": "085913.025000",
      "PhotometricInterpretation": "MONOCHROME2",
      "PixelBandwidth": 2315.0,
      "PixelRepresentation": 0,
      "PixelSpacing": [3.0, 3.0],
      "ProtocolName": "func-bold_fa-77",
      "RepetitionTime": 2000.0,
      "Rows": 480,
      "SAR": 0.02850230401355,
      "SamplesPerPixel": 1,
      "ScanOptions": "FS",
      "ScanningSequence": "EP",
      "SequenceName": "*epfid2d1_80",
      "SequenceVariant": "SK",
      "SeriesDescription": "func-bold_fa-77",
      "SeriesNumber": 7,
      "SeriesTime": "091345.832000",
      "SliceLocation": -64.997463142108,
      "SliceThickness": 3.5,
      "SmallestImagePixelValue": 0,
      "SoftwareVersions": "syngo MR E11",
      "SpacingBetweenSlices": 3.9899998581309,
      "SpecificCharacterSet": "ISO_IR 100",
      "StudyID": "5",
      "StudyTime": "085912.957000",
      "TransmitCoilName": "Body",
      "VariableFlipAngleFlag": "N",
      "WindowCenterWidthExplanation": "Algo1",
      "dBdt": 0.0},
    "slices": {}
  },
  "time": {
    "samples": {
      "AcquisitionNumber": [1, 2, 3, 4, 5, 6, 7, 8, 9, 10, 11, 12, 13, 14, 15, 16, 17, 18, 19, 20, 21, 22, 23, 24, 25, 26, 27, 28, 29, 30, 31, 32, 33, 34, 35, 36, 37, 38, 39, 40, 41, 42, 43, 44, 45, 46, 47, 48, 49, 50, 51, 52, 53, 54, 55, 56, 57, 58, 59, 60, 61, 62, 63, 64, 65, 66, 67, 68, 69, 70, 71, 72, 73, 74, 75, 76, 77, 78, 79, 80, 81, 82, 83, 84, 85, 86, 87, 88, 89, 90, 91, 92, 93, 94, 95, 96, 97, 98, 99, 100, 101, 102, 103, 104, 105, 106, 107, 108, 109, 110, 111, 112, 113, 114, 115, 116, 117, 118, 119, 120, 121, 122, 123, 124, 125, 126, 127, 128, 129, 130, 131, 132, 133, 134, 135, 136, 137, 138, 139, 140, 141, 142, 143, 144, 145, 146, 147, 148, 149, 150, 151, 152, 153, 154, 155, 156, 157, 158, 159, 160, 161, 162, 163, 164, 165, 166, 167, 168, 169, 170, 171, 172, 173, 174, 175, 176, 177, 178, 179, 180, 181, 182, 183, 184, 185, 186, 187, 188, 189, 190, 191, 192, 193, 194, 195, 196, 197, 198, 199, 200],
      "AcquisitionTime": ["091302.492500", "091304.492500", "091306.492500", "091308.492500", "091310.492500", "091312.492500", "091314.492500", "091316.492500", "091318.492500", "091320.492500", "091322.492500", "091324.492500", "091326.492500", "091328.492500", "091330.492500", "091332.492500", "091334.492500", "091336.492500", "091338.492500", "091340.492500", "091342.492500", "091344.492500", "091346.492500", "091348.492500", "091350.492500", "091352.492500", "091354.492500", "091356.492500", "091358.492500", "091400.492500", "091402.492500", "091404.492500", "091406.492500", "091408.492500", "091410.492500", "091412.492500", "091414.492500", "091416.492500", "091418.492500", "091420.492500", "091422.492500", "091424.492500", "091426.492500", "091428.492500", "091430.492500", "091432.492500", "091434.492500", "091436.492500", "091438.492500", "091440.492500", "091442.492500", "091444.492500", "091446.492500", "091448.492500", "091450.492500", "091452.492500", "091454.492500", "091456.492500", "091458.492500", "091500.492500", "091502.492500", "091504.492500", "091506.492500", "091508.492500", "091510.492500", "091512.492500", "091514.492500", "091516.492500", "091518.492500", "091520.492500", "091522.492500", "091524.492500", "091526.492500", "091528.492500", "091530.492500", "091532.492500", "091534.492500", "091536.492500", "091538.492500", "091540.492500", "091542.492500", "091544.492500", "091546.492500", "091548.492500", "091550.492500", "091552.492500", "091554.492500", "091556.492500", "091558.492500", "091600.492500", "091602.492500", "091604.492500", "091606.492500", "091608.492500", "091610.492500", "091612.492500", "091614.492500", "091616.492500", "091618.492500", "091620.492500", "091622.492500", "091624.492500", "091626.492500", "091628.492500", "091630.492500", "091632.492500", "091634.492500", "091636.492500", "091638.492500", "091640.492500", "091642.492500", "091644.492500", "091646.492500", "091648.492500", "091650.492500", "091652.492500", "091654.492500", "091656.492500", "091658.492500", "091700.492500", "091702.492500", "091704.492500", "091706.492500", "091708.492500", "091710.492500", "091712.492500", "091714.492500", "091716.492500", "091718.492500", "091720.492500", "091722.492500", "091724.492500", "091726.492500", "091728.492500", "091730.492500", "091732.492500", "091734.492500", "091736.492500", "091738.492500", "091740.492500", "091742.492500", "091744.492500", "091746.492500", "091748.492500", "091750.492500", "091752.492500", "091754.492500", "091756.492500", "091758.492500", "091800.492500", "091802.492500", "091804.492500", "091806.492500", "091808.492500", "091810.492500", "091812.492500", "091814.492500", "091816.492500", "091818.492500", "091820.492500", "091822.492500", "091824.492500", "091826.492500", "091828.492500", "091830.492500", "091832.492500", "091834.492500", "091836.492500", "091838.492500", "091840.492500", "091842.492500", "091844.492500", "091846.492500", "091848.492500", "091850.492500", "091852.492500", "091854.492500", "091856.492500", "091858.492500", "091900.492500", "091902.492500", "091904.492500", "091906.492500", "091908.492500", "091910.492500", "091912.492500", "091914.492500", "091916.492500", "091918.492500", "091920.492500", "091922.492500", "091924.492500", "091926.492500", "091928.492500", "091930.492500", "091932.492500", "091934.492500", "091936.492500", "091938.492500", "091940.492500"],
      "ContentTime": ["091345.835000", "091345.839000", "091345.841000", "091345.844000", "091345.846000", "091345.849000", "091345.855000", "091345.857000", "091345.860000", "091345.862000", "091345.865000", "091345.867000", "091345.871000", "091345.873000", "091345.876000", "091345.878000", "091345.881000", "091345.883000", "091345.886000", "091345.888000", "091345.891000", "091425.832000", "091425.834000", "091425.843000", "091425.846000", "091425.848000", "091425.851000", "091425.853000", "091425.856000", "091425.858000", "091425.861000", "091425.863000", "091425.866000", "091425.868000", "091425.871000", "091425.873000", "091425.876000", "091425.879000", "091425.881000", "091425.884000", "091425.886000", "091505.831000", "091505.834000", "091505.846000", "091505.848000", "091505.851000", "091505.853000", "091505.856000", "091505.859000", "091505.869000", "091505.872000", "091505.874000", "091505.877000", "091505.879000", "091505.882000", "091505.884000", "091505.887000", "091505.889000", "091505.892000", "091505.894000", "091505.897000", "091545.830000", "091545.833000", "091545.836000", "091545.838000", "091545.841000", "091545.844000", "091545.846000", "091545.849000", "091545.851000", "091545.854000", "091545.856000", "091545.859000", "091545.861000", "091545.864000", "091545.866000", "091545.869000", "091545.871000", "091545.874000", "091545.876000", "091545.879000", "091605.831000", "091605.833000", "091605.836000", "091605.839000", "091605.841000", "091605.844000", "091605.846000", "091605.849000", "091605.851000", "091605.854000", "091645.831000", "091645.834000", "091645.837000", "091645.839000", "091645.842000", "091645.845000", "091645.847000", "091645.850000", "091645.852000", "091645.855000", "091645.857000", "091645.860000", "091645.862000", "091645.865000", "091645.867000", "091645.870000", "091645.873000", "091645.875000", "091645.878000", "091645.880000", "091725.832000", "091726.022000", "091726.025000", "091726.027000", "091726.030000", "091726.032000", "091726.035000", "091726.037000", "091726.040000", "091726.042000", "091726.045000", "091726.048000", "091726.050000", "091726.053000", "091726.055000", "091726.058000", "091726.060000", "091726.063000", "091726.065000", "091726.068000", "091805.830000", "091806.084000", "091806.086000", "091806.089000", "091806.091000", "091806.094000", "091806.096000", "091806.099000", "091806.101000", "091806.104000", "091806.107000", "091806.109000", "091806.112000", "091806.114000", "091806.117000", "091806.120000", "091806.122000", "091806.125000", "091806.127000", "091806.130000", "091845.830000", "091846.071000", "091846.074000", "091846.076000", "091846.079000", "091846.081000", "091846.084000", "091846.086000", "091846.089000", "091846.091000", "091846.094000", "091846.097000", "091846.099000", "091846.102000", "091846.104000", "091846.107000", "091846.109000", "091846.112000", "091846.115000", "091846.117000", "091925.831000", "091925.834000", "091925.837000", "091925.840000", "091925.842000", "091925.845000", "091925.847000", "091925.850000", "091925.852000", "091925.855000", "091925.858000", "091925.860000", "091925.863000", "091925.865000", "091925.868000", "091925.870000", "091925.873000", "091925.875000", "091925.878000", "091925.881000", "091942.321000", "091942.324000", "091942.327000", "091942.329000", "091942.332000", "091942.334000", "091942.337000", "091942.340000", "091942.346000"],
      "InstanceCreationTime": ["091345.835000", "091345.839000", "091345.841000", "091345.844000", "091345.846000", "091345.849000", "091345.855000", "091345.857000", "091345.860000", "091345.862000", "091345.865000", "091345.867000", "091345.871000", "091345.873000", "091345.876000", "091345.878000", "091345.881000", "091345.883000", "091345.886000", "091345.888000", "091345.891000", "091425.832000", "091425.834000", "091425.843000", "091425.846000", "091425.848000", "091425.851000", "091425.853000", "091425.856000", "091425.858000", "091425.861000", "091425.863000", "091425.866000", "091425.868000", "091425.871000", "091425.873000", "091425.876000", "091425.879000", "091425.881000", "091425.884000", "091425.886000", "091505.831000", "091505.834000", "091505.846000", "091505.848000", "091505.851000", "091505.853000", "091505.856000", "091505.859000", "091505.869000", "091505.872000", "091505.874000", "091505.877000", "091505.879000", "091505.882000", "091505.884000", "091505.887000", "091505.889000", "091505.892000", "091505.894000", "091505.897000", "091545.830000", "091545.833000", "091545.836000", "091545.838000", "091545.841000", "091545.844000", "091545.846000", "091545.849000", "091545.851000", "091545.854000", "091545.856000", "091545.859000", "091545.861000", "091545.864000", "091545.866000", "091545.869000", "091545.871000", "091545.874000", "091545.876000", "091545.879000", "091605.831000", "091605.833000", "091605.836000", "091605.839000", "091605.841000", "091605.844000", "091605.846000", "091605.849000", "091605.851000", "091605.854000", "091645.831000", "091645.834000", "091645.837000", "091645.839000", "091645.842000", "091645.845000", "091645.847000", "091645.850000", "091645.852000", "091645.855000", "091645.857000", "091645.860000", "091645.862000", "091645.865000", "091645.867000", "091645.870000", "091645.873000", "091645.875000", "091645.878000", "091645.880000", "091725.832000", "091726.022000", "091726.025000", "091726.027000", "091726.030000", "091726.032000", "091726.035000", "091726.037000", "091726.040000", "091726.042000", "091726.045000", "091726.048000", "091726.050000", "091726.053000", "091726.055000", "091726.058000", "091726.060000", "091726.063000", "091726.065000", "091726.068000", "091805.830000", "091806.084000", "091806.086000", "091806.089000", "091806.091000", "091806.094000", "091806.096000", "091806.099000", "091806.101000", "091806.104000", "091806.107000", "091806.109000", "091806.112000", "091806.114000", "091806.117000", "091806.120000", "091806.122000", "091806.125000", "091806.127000", "091806.130000", "091845.830000", "091846.071000", "091846.074000", "091846.076000", "091846.079000", "091846.081000", "091846.084000", "091846.086000", "091846.089000", "091846.091000", "091846.094000", "091846.097000", "091846.099000", "091846.102000", "091846.104000", "091846.107000", "091846.109000", "091846.112000", "091846.115000", "091846.117000", "091925.831000", "091925.834000", "091925.837000", "091925.840000", "091925.842000", "091925.845000", "091925.847000", "091925.850000", "091925.852000", "091925.855000", "091925.858000", "091925.860000", "091925.863000", "091925.865000", "091925.868000", "091925.870000", "091925.873000", "091925.875000", "091925.878000", "091925.881000", "091942.321000", "091942.324000", "091942.327000", "091942.329000", "091942.332000", "091942.334000", "091942.337000", "091942.340000", "091942.346000"],
      "InstanceNumber": [1, 2, 3, 4, 5, 6, 7, 8, 9, 10, 11, 12, 13, 14, 15, 16, 17, 18, 19, 20, 21, 22, 23, 24, 25, 26, 27, 28, 29, 30, 31, 32, 33, 34, 35, 36, 37, 38, 39, 40, 41, 42, 43, 44, 45, 46, 47, 48, 49, 50, 51, 52, 53, 54, 55, 56, 57, 58, 59, 60, 61, 62, 63, 64, 65, 66, 67, 68, 69, 70, 71, 72, 73, 74, 75, 76, 77, 78, 79, 80, 81, 82, 83, 84, 85, 86, 87, 88, 89, 90, 91, 92, 93, 94, 95, 96, 97, 98, 99, 100, 101, 102, 103, 104, 105, 106, 107, 108, 109, 110, 111, 112, 113, 114, 115, 116, 117, 118, 119, 120, 121, 122, 123, 124, 125, 126, 127, 128, 129, 130, 131, 132, 133, 134, 135, 136, 137, 138, 139, 140, 141, 142, 143, 144, 145, 146, 147, 148, 149, 150, 151, 152, 153, 154, 155, 156, 157, 158, 159, 160, 161, 162, 163, 164, 165, 166, 167, 168, 169, 170, 171, 172, 173, 174, 175, 176, 177, 178, 179, 180, 181, 182, 183, 184, 185, 186, 187, 188, 189, 190, 191, 192, 193, 194, 195, 196, 197, 198, 199, 200],
      "LargestImagePixelValue": [3604, 3604, 3607, 3606, 3607, 3605, 3609, 3605, 3605, 3601, 3604, 3604, 3604, 3604, 3600, 3596, 3600, 3600, 3607, 3613, 3611, 3613, 3612, 3615, 3610, 3606, 3612, 3606, 3606, 3606, 3600, 3604, 3600, 3602, 3606, 3604, 3598, 3604, 3607, 3600, 3605, 3608, 3600, 3601, 3598, 3595, 3594, 3596, 3594, 3597, 3598, 3596, 3599, 3597, 3595, 3600, 3605, 3599, 3604, 3604, 3604, 3604, 3604, 3600, 3602, 3605, 3599, 3600, 3609, 3604, 3609, 3602, 3602, 3598, 3596, 3595, 3601, 3596, 3602, 3604, 3604, 3603, 3603, 3607, 3606, 3607, 3603, 3598, 3599, 3601, 3608, 3604, 3606, 3606, 3610, 3613, 3604, 3602, 3609, 3605, 3601, 3602, 3604, 3605, 3603, 3608, 3608, 3605, 3605, 3606, 3605, 3609, 3603, 3599, 3603, 3601, 3601, 3597, 3602, 3608, 3601, 3601, 3602, 3604, 3605, 3605, 3602, 3604, 3607, 3607, 3603, 3600, 3609, 3607, 3608, 3607, 3608, 3610, 3610, 3605, 3608, 3610, 3612, 3605, 3609, 3607, 3604, 3607, 3601, 3600, 3598, 3602, 3612, 3607, 3604, 3606, 3602, 3604, 3602, 3605, 3606, 3606, 3609, 3603, 3609, 3606, 3605, 3609, 3604, 3604, 3603, 3598, 3606, 3599, 3601, 3604, 3603, 3603, 3607, 3604, 3600, 3608, 3604, 3602, 3602, 3606, 3606, 3604, 3603, 3602, 3605, 3605, 3605, 3604, 3601, 3606, 3600, 3602, 3600, 3597],
      "WindowCenter": [1338.0, 1338.0, 1337.0, 1338.0, 1337.0, 1338.0, 1338.0, 1337.0, 1338.0, 1337.0, 1337.0, 1337.0, 1337.0, 1337.0, 1337.0, 1337.0, 1337.0, 1338.0, 1337.0, 1337.0, 1337.0, 1338.0, 1337.0, 1337.0, 1337.0, 1337.0, 1337.0, 1337.0, 1337.0, 1337.0, 1337.0, 1337.0, 1337.0, 1337.0, 1337.0, 1338.0, 1337.0, 1336.0, 1337.0, 1337.0, 1336.0, 1336.0, 1336.0, 1336.0, 1336.0, 1336.0, 1335.0, 1335.0, 1335.0, 1335.0, 1335.0, 1335.0, 1335.0, 1336.0, 1335.0, 1335.0, 1335.0, 1335.0, 1335.0, 1336.0, 1335.0, 1335.0, 1335.0, 1335.0, 1335.0, 1335.0, 1335.0, 1335.0, 1334.0, 1334.0, 1334.0, 1335.0, 1334.0, 1334.0, 1334.0, 1334.0, 1334.0, 1334.0, 1335.0, 1335.0, 1334.0, 1334.0, 1335.0, 1335.0, 1334.0, 1334.0, 1334.0, 1334.0, 1335.0, 1334.0, 1334.0, 1334.0, 1334.0, 1334.0, 1333.0, 1334.0, 1334.0, 1334.0, 1334.0, 1334.0, 1334.0, 1334.0, 1334.0, 1334.0, 1334.0, 1334.0, 1334.0, 1334.0, 1333.0, 1334.0, 1334.0, 1334.0, 1333.0, 1333.0, 1333.0, 1334.0, 1334.0, 1334.0, 1334.0, 1334.0, 1334.0, 1334.0, 1334.0, 1334.0, 1334.0, 1334.0, 1334.0, 1334.0, 1334.0, 1334.0, 1334.0, 1333.0, 1333.0, 1333.0, 1333.0, 1333.0, 1333.0, 1333.0, 1333.0, 1334.0, 1333.0, 1333.0, 1334.0, 1333.0, 1333.0, 1333.0, 1333.0, 1334.0, 1333.0, 1334.0, 1333.0, 1334.0, 1334.0, 1333.0, 1333.0, 1333.0, 1333.0, 1333.0, 1334.0, 1334.0, 1333.0, 1333.0, 1333.0, 1333.0, 1333.0, 1333.0, 1333.0, 1333.0, 1333.0, 1333.0, 1333.0, 1332.0, 1333.0, 1333.0, 1333.0, 1333.0, 1333.0, 1333.0, 1333.0, 1333.0, 1333.0, 1332.0, 1333.0, 1333.0, 1332.0, 1332.0, 1332.0, 1332.0, 1332.0, 1332.0, 1332.0, 1332.0, 1332.0, 1332.0, 1332.0, 1333.0, 1332.0, 1332.0, 1332.0, 1333.0],
      "WindowWidth": [3207.0, 3207.0, 3206.0, 3207.0, 3207.0, 3207.0, 3207.0, 3206.0, 3207.0, 3206.0, 3206.0, 3206.0, 3206.0, 3207.0, 3207.0, 3207.0, 3206.0, 3207.0, 3207.0, 3207.0, 3207.0, 3207.0, 3207.0, 3207.0, 3207.0, 3206.0, 3206.0, 3206.0, 3206.0, 3206.0, 3206.0, 3206.0, 3206.0, 3206.0, 3206.0, 3206.0, 3206.0, 3207.0, 3206.0, 3206.0, 3205.0, 3205.0, 3205.0, 3206.0, 3206.0, 3205.0, 3204.0, 3204.0, 3204.0, 3204.0, 3204.0, 3204.0, 3204.0, 3204.0, 3204.0, 3204.0, 3204.0, 3204.0, 3204.0, 3204.0, 3204.0, 3204.0, 3204.0, 3204.0, 3204.0, 3204.0, 3204.0, 3204.0, 3204.0, 3204.0, 3204.0, 3204.0, 3204.0, 3204.0, 3204.0, 3204.0, 3204.0, 3204.0, 3204.0, 3204.0, 3204.0, 3204.0, 3204.0, 3204.0, 3203.0, 3203.0, 3203.0, 3203.0, 3204.0, 3203.0, 3203.0, 3203.0, 3203.0, 3203.0, 3204.0, 3203.0, 3203.0, 3203.0, 3203.0, 3203.0, 3203.0, 3203.0, 3203.0, 3203.0, 3203.0, 3203.0, 3203.0, 3203.0, 3203.0, 3203.0, 3203.0, 3203.0, 3203.0, 3203.0, 3203.0, 3203.0, 3203.0, 3203.0, 3203.0, 3203.0, 3203.0, 3203.0, 3203.0, 3203.0, 3203.0, 3203.0, 3202.0, 3203.0, 3202.0, 3203.0, 3203.0, 3202.0, 3202.0, 3202.0, 3202.0, 3202.0, 3202.0, 3202.0, 3202.0, 3202.0, 3202.0, 3202.0, 3202.0, 3202.0, 3202.0, 3202.0, 3202.0, 3202.0, 3202.0, 3202.0, 3202.0, 3202.0, 3202.0, 3202.0, 3202.0, 3202.0, 3202.0, 3202.0, 3202.0, 3202.0, 3202.0, 3202.0, 3202.0, 3202.0, 3202.0, 3202.0, 3202.0, 3202.0, 3202.0, 3202.0, 3202.0, 3202.0, 3202.0, 3202.0, 3202.0, 3202.0, 3202.0, 3202.0, 3202.0, 3202.0, 3202.0, 3201.0, 3202.0, 3202.0, 3201.0, 3201.0, 3201.0, 3201.0, 3201.0, 3201.0, 3201.0, 3201.0, 3201.0, 3201.0, 3201.0, 3201.0, 3201.0, 3201.0, 3201.0, 3201.0]
    },
    "slices": {}
  }
}