{
  "AcquisitionMatrixPE": 80,
  "AcquisitionNumber": 1,
  "AcquisitionTime": "09:06:13.827500",
  "BandwidthPerPixelPhaseEncode": 48.077,
  "BaseResolution": 80,
  "BodyPartExamined": "BRAIN",
  "CoilCombinationMethod": "Sum of Squares",
  "ConsistencyInfo": "N4_VE11C_LATEST_20160120",
  "ConversionSoftware": "dcm2niix",
  "ConversionSoftwareVersion": "v1.0.20220720",
  "DerivedVendorReportedEchoSpacing": 0.000519999,
  "DeviceSerialNumber": "66112",
  "DwellTime": 2.7e-06,
  "EchoTime": 0.035,
  "EchoTrainLength": 39,
  "EffectiveEchoSpacing": 0.00026,
  "FlipAngle": 90,
  "HeudiconvVersion": "0.13.1",
  "ImageOrientationPatientDICOM": [0.988098, -0.152722, -0.0184148, 0.150847, 0.938533, 0.310485],
  "ImageOrientationText": "Tra>Cor(18.0)>Sag(1.7)",
  "ImageType": [
    "ORIGINAL",
    "PRIMARY",
    "M",
    "ND",
    "NORM",
    "MOSAIC"
],
  "ImagingFrequency": 123.252,
  "InPlanePhaseEncodingDirectionDICOM": "COL",
  "InstitutionAddress": "Maynard 3,Hanover,NH,US,03755",
  "InstitutionName": "Dartmouth College - PBS",
  "InstitutionalDepartmentName": "Department",
  "MRAcquisitionType": "2D",
  "MagneticFieldStrength": 3,
  "Manufacturer": "Siemens",
  "ManufacturersModelName": "Prisma",
  "MatrixCoilMode": "GRAPPA",
  "Modality": "MR",
  "NonlinearGradientCorrection": false,
  "ParallelReductionFactorInPlane": 2,
  "PartialFourier": 1,
  "PatientPosition": "HFS",
  "PercentPhaseFOV": 100,
  "PercentSampling": 100,
  "PhaseEncodingDirection": "j-",
  "PhaseEncodingSteps": 79,
  "PhaseResolution": 1,
  "PixelBandwidth": 2315,
  "ProcedureStepDescription": "dbic^QA",
  "ProtocolName": "func-bold_task-rest_acq-p2",
  "PulseSequenceDetails": "%SiemensSeq%\\ep2d_bold",
  "ReceiveCoilActiveElements": "HC1-7;NC1,2",
  "ReceiveCoilName": "HeadNeck_64",
  "ReconMatrixPE": 80,
  "RefLinesPE": 24,
  "RepetitionTime": 2,
  "SAR": 0.0362694,
  "ScanOptions": "FS",
  "ScanningSequence": "EP",
  "SequenceName": "*epfid2d1_80",
  "SequenceVariant": "SK",
  "SeriesDescription": "func-bold_task-rest_acq-p2",
  "SeriesNumber": 5,
  "ShimSetting": [4142, -7687, -7501, 177, -74, -313, -52, 85],
  "SliceThickness": 3.5,
  "SliceTiming": [0.9875, 0, 1.055, 0.065, 1.12, 0.13, 1.1875, 0.1975, 1.2525, 0.2625, 1.3175, 0.33, 1.385, 0.395, 1.45, 0.46, 1.5175, 0.5275, 1.5825, 0.5925, 1.6475, 0.6575, 1.715, 0.725, 1.78, 0.79, 1.8475, 0.8575, 1.9125, 0.9225],
  "SoftwareVersions": "syngo MR E11",
  "SpacingBetweenSlices": 3.99,
  "StationName": "AWP66112",
  "TaskName": "rest",
  "TotalReadoutTime": 0.02054,
  "TxRefAmp": 218.059,
  "dcmmeta_affine": [
    [-2.9642930030822754, 0.45254167914390564, 0.12023848295211792, 102.63411712646484],
    [0.45816490054130554, 2.815598487854004, 1.2351752519607544, -126.56996154785156],
    [-0.05524435639381409, -0.9314562082290649, 3.7920949459075928, -30.773277282714844],
    [0.0, 0.0, 0.0, 1.0]
],
  "dcmmeta_reorient_transform": [
    [0.0, -1.0, 0.0, 79.0],
    [1.0, 0.0, 0.0, 0.0],
    [0.0, 0.0, 1.0, 0.0],
    [0.0, 0.0, 0.0, 1.0]
],
  "dcmmeta_shape": [80, 80, 30, 200],
  "dcmmeta_slice_dim": 2,
  "dcmmeta_version": 0.6,
  "global": {
    "const": {
      "AccessionNumber": "qa64",
      "AcquisitionMatrix": [80, 0, 0, 80],
      "AngioFlag": "N",
      "BitsAllocated": 16,
      "BitsStored": 12,
      "BodyPartExamined": "BRAIN",
      "Columns": 480,
      "EchoNumbers": 1,
      "EchoTime": 35.0,
      "EchoTrainLength": 39,
      "FlipAngle": 90.0,
      "HighBit": 11,
      "ImageOrientationPatient": [0.98809766625618, -0.1527216344012, -0.0184147854973, 0.15084722828951, 0.93853285846193, 0.31048540594472],
      "ImagePositionPatient": [-821.75184927469, -567.34905861195, -279.60069169284],
      "ImageType": [
        "ORIGINAL",
        "PRIMARY",
        "M",
        "ND",
        "NORM",
        "MOSAIC"
],
      "ImagedNucleus": "1H",
      "ImagingFrequency": 123.252497,
      "InPlanePhaseEncodingDirection": "COL",
      "MRAcquisitionType": "2D",
      "MagneticFieldStrength": 3.0,
      "Manufacturer": "SIEMENS",
      "ManufacturerModelName": "Prisma",
      "Modality": "MR",
      "NumberOfAverages": 1.0,
      "NumberOfPhaseEncodingSteps": 79,
      "PercentPhaseFieldOfView": 100.0,
      "PercentSampling": 100.0,
      "PerformedProcedureStepStartTime": "085913.025000",
      "PhotometricInterpretation": "MONOCHROME2",
      "PixelBandwidth": 2315.0,
      "PixelRepresentation": 0,
      "PixelSpacing": [3.0, 3.0],
      "ProtocolName": "func-bold_task-rest_acq-p2",
      "RepetitionTime": 2000.0,
      "Rows": 480,
      "SAR": 0.03626939943134,
      "SamplesPerPixel": 1,
      "ScanOptions": "FS",
      "ScanningSequence": "EP",
      "SequenceName": "*epfid2d1_80",
      "SequenceVariant": "SK",
      "SeriesDescription": "func-bold_task-rest_acq-p2",
      "SeriesNumber": 5,
      "SeriesTime": "090705.761000",
      "SliceLocation": -65.336016995321,
      "SliceThickness": 3.5,
      "SmallestImagePixelValue": 0,
      "SoftwareVersions": "syngo MR E11",
      "SpacingBetweenSlices": 3.9900000074496,
      "SpecificCharacterSet": "ISO_IR 100",
      "StudyID": "5",
      "StudyTime": "085912.957000",
      "TransmitCoilName": "Body",
      "VariableFlipAngleFlag": "N",
      "WindowCenterWidthExplanation": "Algo1",
      "dBdt": 0.0},
    "slices": {}
  },
  "time": {
    "samples": {
      "AcquisitionNumber": [1, 2, 3, 4, 5, 6, 7, 8, 9, 10, 11, 12, 13, 14, 15, 16, 17, 18, 19, 20, 21, 22, 23, 24, 25, 26, 27, 28, 29, 30, 31, 32, 33, 34, 35, 36, 37, 38, 39, 40, 41, 42, 43, 44, 45, 46, 47, 48, 49, 50, 51, 52, 53, 54, 55, 56, 57, 58, 59, 60, 61, 62, 63, 64, 65, 66, 67, 68, 69, 70, 71, 72, 73, 74, 75, 76, 77, 78, 79, 80, 81, 82, 83, 84, 85, 86, 87, 88, 89, 90, 91, 92, 93, 94, 95, 96, 97, 98, 99, 100, 101, 102, 103, 104, 105, 106, 107, 108, 109, 110, 111, 112, 113, 114, 115, 116, 117, 118, 119, 120, 121, 122, 123, 124, 125, 126, 127, 128, 129, 130, 131, 132, 133, 134, 135, 136, 137, 138, 139, 140, 141, 142, 143, 144, 145, 146, 147, 148, 149, 150, 151, 152, 153, 154, 155, 156, 157, 158, 159, 160, 161, 162, 163, 164, 165, 166, 167, 168, 169, 170, 171, 172, 173, 174, 175, 176, 177, 178, 179, 180, 181, 182, 183, 184, 185, 186, 187, 188, 189, 190, 191, 192, 193, 194, 195, 196, 197, 198, 199, 200],
      "AcquisitionTime": ["090613.827500", "090615.827500", "090617.827500", "090619.827500", "090621.827500", "090623.827500", "090625.827500", "090627.827500", "090629.827500", "090631.827500", "090633.827500", "090635.827500", "090637.827500", "090639.827500", "090641.827500", "090643.827500", "090645.827500", "090647.827500", "090649.827500", "090651.827500", "090653.827500", "090655.827500", "090657.827500", "090659.827500", "090701.827500", "090703.827500", "090705.827500", "090707.827500", "090709.827500", "090711.827500", "090713.827500", "090715.827500", "090717.827500", "090719.827500", "090721.827500", "090723.827500", "090725.827500", "090727.827500", "090729.827500", "090731.827500", "090733.827500", "090735.827500", "090737.827500", "090739.827500", "090741.827500", "090743.827500", "090745.827500", "090747.827500", "090749.827500", "090751.827500", "090753.827500", "090755.827500", "090757.827500", "090759.827500", "090801.827500", "090803.827500", "090805.827500", "090807.827500", "090809.827500", "090811.827500", "090813.827500", "090815.827500", "090817.827500", "090819.827500", "090821.827500", "090823.827500", "090825.827500", "090827.827500", "090829.827500", "090831.827500", "090833.827500", "090835.827500", "090837.827500", "090839.827500", "090841.827500", "090843.827500", "090845.827500", "090847.827500", "090849.827500", "090851.827500", "090853.827500", "090855.827500", "090857.827500", "090859.827500", "090901.827500", "090903.827500", "090905.827500", "090907.827500", "090909.827500", "090911.827500", "090913.827500", "090915.827500", "090917.827500", "090919.827500", "090921.827500", "090923.827500", "090925.827500", "090927.827500", "090929.827500", "090931.827500", "090933.827500", "090935.827500", "090937.827500", "090939.827500", "090941.827500", "090943.827500", "090945.827500", "090947.827500", "090949.827500", "090951.827500", "090953.827500", "090955.827500", "090957.827500", "090959.827500", "091001.827500", "091003.827500", "091005.827500", "091007.827500", "091009.827500", "091011.827500", "091013.827500", "091015.827500", "091017.827500", "091019.827500", "091021.827500", "091023.827500", "091025.827500", "091027.827500", "091029.827500", "091031.827500", "091033.827500", "091035.827500", "091037.827500", "091039.827500", "091041.827500", "091043.827500", "091045.827500", "091047.827500", "091049.827500", "091051.827500", "091053.827500", "091055.827500", "091057.827500", "091059.827500", "091101.827500", "091103.827500", "091105.827500", "091107.827500", "091109.827500", "091111.827500", "091113.827500", "091115.827500", "091117.827500", "091119.827500", "091121.827500", "091123.827500", "091125.827500", "091127.827500", "091129.827500", "091131.827500", "091133.827500", "091135.827500", "091137.827500", "091139.827500", "091141.827500", "091143.827500", "091145.827500", "091147.827500", "091149.827500", "091151.827500", "091153.827500", "091155.827500", "091157.827500", "091159.827500", "091201.827500", "091203.827500", "091205.827500", "091207.827500", "091209.827500", "091211.827500", "091213.827500", "091215.827500", "091217.827500", "091219.827500", "091221.827500", "091223.827500", "091225.827500", "091227.827500", "091229.827500", "091231.827500", "091233.827500", "091235.827500", "091237.827500", "091239.827500", "091241.827500", "091243.827500", "091245.827500", "091247.827500", "091249.827500", "091251.827500"],
      "ContentTime": ["090705.765000", "090705.768000", "090705.771000", "090705.773000", "090705.776000", "090705.786000", "090705.789000", "090705.791000", "090705.794000", "090705.796000", "090705.799000", "090705.802000", "090705.804000", "090705.807000", "090705.809000", "090705.812000", "090705.815000", "090705.817000", "090705.820000", "090705.822000", "090705.825000", "090705.828000", "090705.830000", "090705.833000", "090705.835000", "090705.846000", "090745.760000", "090745.763000", "090745.766000", "090745.769000", "090745.771000", "090745.774000", "090745.776000", "090745.779000", "090745.782000", "090745.784000", "090745.787000", "090745.789000", "090745.794000", "090745.797000", "090745.799000", "090745.802000", "090745.804000", "090745.807000", "090745.809000", "090745.812000", "090825.760000", "090825.763000", "090825.766000", "090825.769000", "090825.771000", "090825.774000", "090825.776000", "090825.779000", "090825.782000", "090825.784000", "090825.787000", "090825.789000", "090825.792000", "090825.795000", "090825.797000", "090825.800000", "090825.802000", "090825.805000", "090825.808000", "090825.810000", "090905.759000", "090905.762000", "090905.765000", "090905.768000", "090905.770000", "090905.773000", "090905.775000", "090905.778000", "090905.780000", "090905.783000", "090905.786000", "090905.788000", "090905.791000", "090905.793000", "090905.796000", "090905.798000", "090905.801000", "090905.804000", "090905.812000", "090905.814000", "090945.760000", "090945.763000", "090945.766000", "090945.769000", "090945.771000", "090945.774000", "090945.776000", "090945.779000", "090945.781000", "090945.784000", "090945.787000", "090945.789000", "090945.792000", "090945.794000", "090945.797000", "090945.799000", "090945.802000", "090945.805000", "090945.807000", "090945.810000", "091025.760000", "091025.763000", "091025.766000", "091025.769000", "091025.771000", "091025.774000", "091025.776000", "091025.779000", "091025.781000", "091025.784000", "091025.791000", "091025.794000", "091025.797000", "091025.799000", "091025.802000", "091025.804000", "091025.807000", "091025.810000", "091025.812000", "091025.815000", "091105.760000", "091105.762000", "091105.765000", "091105.768000", "091105.770000", "091105.773000", "091105.775000", "091105.778000", "091105.781000", "091105.783000", "091105.786000", "091105.788000", "091105.791000", "091105.794000", "091105.796000", "091105.799000", "091105.801000", "091105.804000", "091105.811000", "091105.813000", "091145.760000", "091145.762000", "091145.765000", "091145.768000", "091145.770000", "091145.773000", "091145.775000", "091145.778000", "091145.781000", "091145.783000", "091145.794000", "091145.796000", "091145.799000", "091145.801000", "091145.804000", "091145.806000", "091145.809000", "091145.812000", "091145.814000", "091145.817000", "091225.760000", "091225.763000", "091225.766000", "091225.769000", "091225.771000", "091225.774000", "091225.777000", "091225.779000", "091225.782000", "091225.785000", "091225.788000", "091225.790000", "091225.793000", "091225.796000", "091225.798000", "091225.801000", "091225.803000", "091225.806000", "091225.809000", "091225.811000", "091253.485000", "091253.488000", "091253.490000", "091253.493000", "091253.496000", "091253.499000", "091253.501000", "091253.504000", "091253.506000", "091253.509000", "091253.512000", "091253.518000", "091253.526000", "091253.530000"],
      "InstanceCreationTime": ["090705.765000", "090705.768000", "090705.771000", "090705.773000", "090705.776000", "090705.786000", "090705.789000", "090705.791000", "090705.794000", "090705.796000", "090705.799000", "090705.802000", "090705.804000", "090705.807000", "090705.809000", "090705.812000", "090705.815000", "090705.817000", "090705.820000", "090705.822000", "090705.825000", "090705.828000", "090705.830000", "090705.833000", "090705.835000", "090705.846000", "090745.760000", "090745.763000", "090745.766000", "090745.769000", "090745.771000", "090745.774000", "090745.776000", "090745.779000", "090745.782000", "090745.784000", "090745.787000", "090745.789000", "090745.794000", "090745.797000", "090745.799000", "090745.802000", "090745.804000", "090745.807000", "090745.809000", "090745.812000", "090825.760000", "090825.763000", "090825.766000", "090825.769000", "090825.771000", "090825.774000", "090825.776000", "090825.779000", "090825.782000", "090825.784000", "090825.787000", "090825.789000", "090825.792000", "090825.795000", "090825.797000", "090825.800000", "090825.802000", "090825.805000", "090825.808000", "090825.810000", "090905.759000", "090905.762000", "090905.765000", "090905.768000", "090905.770000", "090905.773000", "090905.775000", "090905.778000", "090905.780000", "090905.783000", "090905.786000", "090905.788000", "090905.791000", "090905.793000", "090905.796000", "090905.798000", "090905.801000", "090905.804000", "090905.812000", "090905.814000", "090945.760000", "090945.763000", "090945.766000", "090945.769000", "090945.771000", "090945.774000", "090945.776000", "090945.779000", "090945.781000", "090945.784000", "090945.787000", "090945.789000", "090945.792000", "090945.794000", "090945.797000", "090945.799000", "090945.802000", "090945.805000", "090945.807000", "090945.810000", "091025.760000", "091025.763000", "091025.766000", "091025.769000", "091025.771000", "091025.774000", "091025.776000", "091025.779000", "091025.781000", "091025.784000", "091025.791000", "091025.794000", "091025.797000", "091025.799000", "091025.802000", "091025.804000", "091025.807000", "091025.810000", "091025.812000", "091025.815000", "091105.760000", "091105.762000", "091105.765000", "091105.768000", "091105.770000", "091105.773000", "091105.775000", "091105.778000", "091105.781000", "091105.783000", "091105.786000", "091105.788000", "091105.791000", "091105.794000", "091105.796000", "091105.799000", "091105.801000", "091105.804000", "091105.811000", "091105.813000", "091145.760000", "091145.762000", "091145.765000", "091145.768000", "091145.770000", "091145.773000", "091145.775000", "091145.778000", "091145.781000", "091145.783000", "091145.794000", "091145.796000", "091145.799000", "091145.801000", "091145.804000", "091145.806000", "091145.809000", "091145.812000", "091145.814000", "091145.817000", "091225.760000", "091225.763000", "091225.766000", "091225.769000", "091225.771000", "091225.774000", "091225.777000", "091225.779000", "091225.782000", "091225.785000", "091225.788000", "091225.790000", "091225.793000", "091225.796000", "091225.798000", "091225.801000", "091225.803000", "091225.806000", "091225.809000", "091225.811000", "091253.485000", "091253.488000", "091253.490000", "091253.493000", "091253.496000", "091253.499000", "091253.501000", "091253.504000", "091253.506000", "091253.509000", "091253.512000", "091253.518000", "091253.526000", "091253.530000"],
      "InstanceNumber": [1, 2, 3, 4, 5, 6, 7, 8, 9, 10, 11, 12, 13, 14, 15, 16, 17, 18, 19, 20, 21, 22, 23, 24, 25, 26, 27, 28, 29, 30, 31, 32, 33, 34, 35, 36, 37, 38, 39, 40, 41, 42, 43, 44, 45, 46, 47, 48, 49, 50, 51, 52, 53, 54, 55, 56, 57, 58, 59, 60, 61, 62, 63, 64, 65, 66, 67, 68, 69, 70, 71, 72, 73, 74, 75, 76, 77, 78, 79, 80, 81, 82, 83, 84, 85, 86, 87, 88, 89, 90, 91, 92, 93, 94, 95, 96, 97, 98, 99, 100, 101, 102, 103, 104, 105, 106, 107, 108, 109, 110, 111, 112, 113, 114, 115, 116, 117, 118, 119, 120, 121, 122, 123, 124, 125, 126, 127, 128, 129, 130, 131, 132, 133, 134, 135, 136, 137, 138, 139, 140, 141, 142, 143, 144, 145, 146, 147, 148, 149, 150, 151, 152, 153, 154, 155, 156, 157, 158, 159, 160, 161, 162, 163, 164, 165, 166, 167, 168, 169, 170, 171, 172, 173, 174, 175, 176, 177, 178, 179, 180, 181, 182, 183, 184, 185, 186, 187, 188, 189, 190, 191, 192, 193, 194, 195, 196, 197, 198, 199, 200],
      "LargestImagePixelValue": [3714, 3706, 3714, 3703, 3708, 3712, 3711, 3701, 3708, 3710, 3703, 3709, 3705, 3699, 3707, 3710, 3702, 3705, 3710, 3715, 3708, 3701, 3695, 3700, 3702, 3699, 3700, 3711, 3695, 3705, 3706, 3703, 3706, 3715, 3705, 3708, 3707, 3718, 3711, 3706, 3698, 3699, 3702, 3702, 3703, 3700, 3698, 3708, 3701, 3705, 3698, 3707, 3699, 3704, 3701, 3703, 3705, 3707, 3711, 3704, 3702, 3708, 3705, 3708, 3710, 3704, 3704, 3709, 3697, 3701, 3708, 3709, 3700, 3709, 3708, 3701, 3708, 3694, 3711, 3694, 3717, 3709, 3700, 3703, 3703, 3703, 3706, 3709, 3700, 3691, 3705, 3697, 3704, 3697, 3708, 3698, 3700, 3698, 3702, 3695, 3705, 3695, 3706, 3696, 3698, 3711, 3700, 3702, 3713, 3712, 3705, 3705, 3696, 3697, 3699, 3704, 3708, 3710, 3694, 3696, 3697, 3705, 3712, 3692, 3710, 3710, 3704, 3704, 3702, 3701, 3703, 3701, 3705, 3705, 3696, 3694, 3701, 3700, 3703, 3700, 3693, 3700, 3707, 3699, 3695, 3715, 3701, 3694, 3692, 3712, 3696, 3699, 3690, 3693, 3696, 3692, 3696, 3693, 3691, 3698, 3700, 3698, 3694, 3694, 3698, 3697, 3692, 3694, 3708, 3689, 3693, 3700, 3697, 3700, 3692, 3695, 3696, 3708, 3696, 3695, 3693, 3699, 3694, 3707, 3699, 3698, 3701, 3695, 3698, 3697, 3697, 3695, 3688, 3700, 3702, 3701, 3697, 3699, 3695, 3696],
      "WindowCenter": [1399.0, 1398.0, 1398.0, 1398.0, 1398.0, 1398.0, 1398.0, 1398.0, 1398.0, 1398.0, 1398.0, 1398.0, 1398.0, 1398.0, 1398.0, 1398.0, 1398.0, 1398.0, 1398.0, 1398.0, 1398.0, 1398.0, 1398.0, 1398.0, 1398.0, 1398.0, 1398.0, 1398.0, 1398.0, 1398.0, 1398.0, 1398.0, 1398.0, 1398.0, 1398.0, 1397.0, 1398.0, 1398.0, 1398.0, 1397.0, 1398.0, 1397.0, 1398.0, 1397.0, 1398.0, 1399.0, 1398.0, 1398.0, 1397.0, 1398.0, 1397.0, 1398.0, 1397.0, 1397.0, 1398.0, 1398.0, 1398.0, 1398.0, 1397.0, 1397.0, 1398.0, 1397.0, 1398.0, 1398.0, 1398.0, 1398.0, 1398.0, 1397.0, 1397.0, 1397.0, 1398.0, 1398.0, 1397.0, 1398.0, 1398.0, 1398.0, 1397.0, 1397.0, 1398.0, 1398.0, 1398.0, 1398.0, 1397.0, 1398.0, 1398.0, 1397.0, 1396.0, 1397.0, 1397.0, 1397.0, 1397.0, 1397.0, 1397.0, 1397.0, 1398.0, 1397.0, 1397.0, 1397.0, 1397.0, 1397.0, 1398.0, 1397.0, 1397.0, 1397.0, 1397.0, 1397.0, 1397.0, 1398.0, 1397.0, 1397.0, 1397.0, 1397.0, 1397.0, 1397.0, 1397.0, 1397.0, 1397.0, 1397.0, 1398.0, 1397.0, 1397.0, 1397.0, 1397.0, 1397.0, 1397.0, 1397.0, 1397.0, 1397.0, 1398.0, 1397.0, 1397.0, 1397.0, 1397.0, 1397.0, 1396.0, 1397.0, 1396.0, 1396.0, 1396.0, 1396.0, 1397.0, 1397.0, 1397.0, 1397.0, 1396.0, 1397.0, 1397.0, 1397.0, 1397.0, 1396.0, 1396.0, 1397.0, 1396.0, 1395.0, 1395.0, 1395.0, 1396.0, 1395.0, 1396.0, 1396.0, 1395.0, 1395.0, 1395.0, 1395.0, 1395.0, 1395.0, 1395.0, 1395.0, 1395.0, 1395.0, 1395.0, 1395.0, 1395.0, 1395.0, 1395.0, 1395.0, 1395.0, 1395.0, 1395.0, 1395.0, 1395.0, 1395.0, 1394.0, 1395.0, 1395.0, 1394.0, 1395.0, 1394.0, 1395.0, 1395.0, 1395.0, 1394.0, 1395.0, 1394.0, 1395.0, 1395.0, 1395.0, 1395.0, 1395.0, 1394.0],
      "WindowWidth": [3240.0, 3238.0, 3238.0, 3239.0, 3238.0, 3238.0, 3238.0, 3238.0, 3237.0, 3238.0, 3238.0, 3237.0, 3237.0, 3237.0, 3237.0, 3237.0, 3237.0, 3237.0, 3237.0, 3237.0, 3237.0, 3237.0, 3237.0, 3237.0, 3237.0, 3237.0, 3237.0, 3237.0, 3237.0, 3237.0, 3237.0, 3237.0, 3237.0, 3237.0, 3237.0, 3237.0, 3237.0, 3237.0, 3237.0, 3237.0, 3237.0, 3237.0, 3237.0, 3237.0, 3237.0, 3236.0, 3237.0, 3237.0, 3237.0, 3237.0, 3237.0, 3237.0, 3237.0, 3237.0, 3236.0, 3237.0, 3237.0, 3236.0, 3237.0, 3236.0, 3236.0, 3236.0, 3237.0, 3236.0, 3236.0, 3236.0, 3236.0, 3236.0, 3236.0, 3236.0, 3236.0, 3235.0, 3236.0, 3235.0, 3235.0, 3235.0, 3236.0, 3236.0, 3236.0, 3235.0, 3235.0, 3235.0, 3235.0, 3235.0, 3235.0, 3235.0, 3236.0, 3235.0, 3235.0, 3235.0, 3235.0, 3235.0, 3235.0, 3235.0, 3235.0, 3235.0, 3235.0, 3235.0, 3235.0, 3235.0, 3235.0, 3235.0, 3235.0, 3235.0, 3235.0, 3235.0, 3235.0, 3235.0, 3235.0, 3235.0, 3235.0, 3235.0, 3235.0, 3235.0, 3234.0, 3235.0, 3234.0, 3235.0, 3235.0, 3235.0, 3235.0, 3235.0, 3235.0, 3234.0, 3235.0, 3234.0, 3234.0, 3234.0, 3234.0, 3234.0, 3234.0, 3234.0, 3234.0, 3234.0, 3234.0, 3234.0, 3234.0, 3234.0, 3234.0, 3234.0, 3234.0, 3234.0, 3234.0, 3234.0, 3234.0, 3234.0, 3234.0, 3234.0, 3234.0, 3234.0, 3234.0, 3234.0, 3233.0, 3233.0, 3233.0, 3233.0, 3233.0, 3233.0, 3233.0, 3233.0, 3233.0, 3233.0, 3233.0, 3233.0, 3233.0, 3233.0, 3233.0, 3233.0, 3233.0, 3233.0, 3233.0, 3233.0, 3233.0, 3233.0, 3233.0, 3233.0, 3233.0, 3233.0, 3233.0, 3233.0, 3233.0, 3233.0, 3233.0, 3232.0, 3232.0, 3233.0, 3232.0, 3233.0, 3232.0, 3232.0, 3232.0, 3232.0, 3232.0, 3232.0, 3232.0, 3232.0, 3232.0, 3232.0, 3232.0, 3232.0]
    },
    "slices": {}
  }
}