{
  "AcquisitionMatrixPE": 80,
  "AcquisitionNumber": 1,
  "AcquisitionTime": "09:19:49.555000",
  "BandwidthPerPixelPhaseEncode": 25,
  "BaseResolution": 80,
  "BodyPartExamined": "BRAIN",
  "CoilCombinationMethod": "Sum of Squares",
  "ConsistencyInfo": "N4_VE11C_LATEST_20160120",
  "ConversionSoftware": "dcm2niix",
  "ConversionSoftwareVersion": "v1.0.20220720",
  "DerivedVendorReportedEchoSpacing": 0.0005,
  "DeviceSerialNumber": "66112",
  "DwellTime": 2.7e-06,
  "EchoTime": 0.03,
  "EchoTrainLength": 80,
  "EffectiveEchoSpacing": 0.0005,
  "FlipAngle": 10,
  "HeudiconvVersion": "0.13.1",
  "ImageOrientationPatientDICOM": [0.988098, -0.152722, -0.0184148, 0.150847, 0.938533, 0.310485],
  "ImageOrientationText": "Tra>Cor(18.0)>Sag(1.7)",
  "ImageType": [
    "ORIGINAL",
    "PRIMARY",
    "M",
    "ND",
    "NORM",
    "MOSAIC"
],
  "ImagingFrequency": 123.253,
  "InPlanePhaseEncodingDirectionDICOM": "COL",
  "InstitutionAddress": "Maynard 3,Hanover,NH,US,03755",
  "InstitutionName": "Dartmouth College - PBS",
  "InstitutionalDepartmentName": "Department",
  "MRAcquisitionType": "2D",
  "MagneticFieldStrength": 3,
  "Manufacturer": "Siemens",
  "ManufacturersModelName": "Prisma",
  "MatrixCoilMode": "SENSE",
  "Modality": "MR",
  "NonlinearGradientCorrection": false,
  "PartialFourier": 1,
  "PatientPosition": "HFS",
  "PercentPhaseFOV": 100,
  "PercentSampling": 100,
  "PhaseEncodingDirection": "j-",
  "PhaseEncodingSteps": 80,
  "PhaseResolution": 1,
  "PixelBandwidth": 2315,
  "ProcedureStepDescription": "dbic^QA",
  "ProtocolName": "func-bold_fa-10",
  "PulseSequenceDetails": "%SiemensSeq%\\ep2d_bold",
  "ReceiveCoilActiveElements": "HC1-7;NC1,2",
  "ReceiveCoilName": "HeadNeck_64",
  "ReconMatrixPE": 80,
  "RepetitionTime": 2,
  "SAR": 0.00764572,
  "ScanOptions": "FS",
  "ScanningSequence": "EP",
  "SequenceName": "*epfid2d1_80",
  "SequenceVariant": "SK",
  "SeriesDescription": "func-bold_fa-10",
  "SeriesNumber": 9,
  "ShimSetting": [4142, -7686, -7501, 178, -74, -314, -52, 86],
  "SliceThickness": 3.5,
  "SliceTiming": [0.99, 0, 1.055, 0.0675, 1.1225, 0.1325, 1.1875, 0.1975, 1.255, 0.265, 1.32, 0.33, 1.385, 0.3975, 1.4525, 0.4625, 1.5175, 0.5275, 1.585, 0.595, 1.65, 0.66, 1.715, 0.7275, 1.7825, 0.7925, 1.8475, 0.8575, 1.915, 0.925],
  "SoftwareVersions": "syngo MR E11",
  "SpacingBetweenSlices": 3.99,
  "StationName": "AWP66112",
  "TotalReadoutTime": 0.0395,
  "TxRefAmp": 218.059,
  "dcmmeta_affine": [
    [-2.9642930030822754, 0.45254167914390564, 0.12023847550153732, 100.0818862915039],
    [0.45816490054130554, 2.815598487854004, 1.2351751327514648, -130.31039428710938],
    [-0.05524435639381409, -0.9314562082290649, 3.7920949459075928, -29.117782592773438],
    [0.0, 0.0, 0.0, 1.0]
],
  "dcmmeta_reorient_transform": [
    [0.0, -1.0, 0.0, 79.0],
    [1.0, 0.0, 0.0, 0.0],
    [0.0, 0.0, 1.0, 0.0],
    [0.0, 0.0, 0.0, 1.0]
],
  "dcmmeta_shape": [80, 80, 30, 200],
  "dcmmeta_slice_dim": 2,
  "dcmmeta_version": 0.6,
  "global": {
    "const": {
      "AccessionNumber": "qa64",
      "AcquisitionMatrix": [80, 0, 0, 80],
      "AngioFlag": "N",
      "BitsAllocated": 16,
      "BitsStored": 12,
      "BodyPartExamined": "BRAIN",
      "Columns": 480,
      "EchoNumbers": 1,
      "EchoTime": 30.0,
      "EchoTrainLength": 80,
      "FlipAngle": 10.0,
      "HighBit": 11,
      "ImageOrientationPatient": [0.98809766625618, -0.1527216344012, -0.0184147854973, 0.15084722828951, 0.93853285846193, 0.31048540594472],
      "ImagePositionPatient": [-819.19961879736, -563.60862813767, -277.9451970029],
      "ImageType": [
        "ORIGINAL",
        "PRIMARY",
        "M",
        "ND",
        "NORM",
        "MOSAIC"
],
      "ImagedNucleus": "1H",
      "ImagingFrequency": 123.252505,
      "InPlanePhaseEncodingDirection": "COL",
      "MRAcquisitionType": "2D",
      "MagneticFieldStrength": 3.0,
      "Manufacturer": "SIEMENS",
      "ManufacturerModelName": "Prisma",
      "Modality": "MR",
      "NumberOfAverages": 1.0,
      "NumberOfPhaseEncodingSteps": 80,
      "PercentPhaseFieldOfView": 100.0,
      "PercentSampling": 100.0,
      "PerformedProcedureStepStartTime": "085913.025000",
      "PhotometricInterpretation": "MONOCHROME2",
      "PixelBandwidth": 2315.0,
      "PixelRepresentation": 0,
      "PixelSpacing": [3.0, 3.0],
      "ProtocolName": "func-bold_fa-10",
      "RepetitionTime": 2000.0,
      "Rows": 480,
      "SAR": 0.00764571775672,
      "SamplesPerPixel": 1,
      "ScanOptions": "FS",
      "ScanningSequence": "EP",
      "SequenceName": "*epfid2d1_80",
      "SequenceVariant": "SK",
      "SeriesDescription": "func-bold_fa-10",
      "SeriesNumber": 9,
      "SeriesTime": "092045.690000",
      "SliceLocation": -64.997463142108,
      "SliceThickness": 3.5,
      "SmallestImagePixelValue": 0,
      "SoftwareVersions": "syngo MR E11",
      "SpacingBetweenSlices": 3.9899998581309,
      "SpecificCharacterSet": "ISO_IR 100",
      "StudyID": "5",
      "StudyTime": "085912.957000",
      "TransmitCoilName": "Body",
      "VariableFlipAngleFlag": "N",
      "WindowCenterWidthExplanation": "Algo1",
      "dBdt": 0.0},
    "slices": {}
  },
  "time": {
    "samples": {
      "AcquisitionNumber": [1, 2, 3, 4, 5, 6, 7, 8, 9, 10, 11, 12, 13, 14, 15, 16, 17, 18, 19, 20, 21, 22, 23, 24, 25, 26, 27, 28, 29, 30, 31, 32, 33, 34, 35, 36, 37, 38, 39, 40, 41, 42, 43, 44, 45, 46, 47, 48, 49, 50, 51, 52, 53, 54, 55, 56, 57, 58, 59, 60, 61, 62, 63, 64, 65, 66, 67, 68, 69, 70, 71, 72, 73, 74, 75, 76, 77, 78, 79, 80, 81, 82, 83, 84, 85, 86, 87, 88, 89, 90, 91, 92, 93, 94, 95, 96, 97, 98, 99, 100, 101, 102, 103, 104, 105, 106, 107, 108, 109, 110, 111, 112, 113, 114, 115, 116, 117, 118, 119, 120, 121, 122, 123, 124, 125, 126, 127, 128, 129, 130, 131, 132, 133, 134, 135, 136, 137, 138, 139, 140, 141, 142, 143, 144, 145, 146, 147, 148, 149, 150, 151, 152, 153, 154, 155, 156, 157, 158, 159, 160, 161, 162, 163, 164, 165, 166, 167, 168, 169, 170, 171, 172, 173, 174, 175, 176, 177, 178, 179, 180, 181, 182, 183, 184, 185, 186, 187, 188, 189, 190, 191, 192, 193, 194, 195, 196, 197, 198, 199, 200],
      "AcquisitionTime": ["091949.555000", "091951.555000", "091953.555000", "091955.555000", "091957.555000", "091959.555000", "092001.555000", "092003.555000", "092005.555000", "092007.555000", "092009.555000", "092011.555000", "092013.555000", "092015.555000", "092017.555000", "092019.555000", "092021.555000", "092023.555000", "092025.555000", "092027.555000", "092029.555000", "092031.555000", "092033.555000", "092035.555000", "092037.555000", "092039.555000", "092041.555000", "092043.555000", "092045.555000", "092047.555000", "092049.555000", "092051.555000", "092053.555000", "092055.555000", "092057.555000", "092059.555000", "092101.555000", "092103.555000", "092105.555000", "092107.555000", "092109.555000", "092111.555000", "092113.555000", "092115.555000", "092117.555000", "092119.555000", "092121.555000", "092123.555000", "092125.555000", "092127.555000", "092129.555000", "092131.555000", "092133.555000", "092135.555000", "092137.555000", "092139.555000", "092141.555000", "092143.555000", "092145.555000", "092147.555000", "092149.555000", "092151.555000", "092153.555000", "092155.555000", "092157.555000", "092159.555000", "092201.555000", "092203.555000", "092205.555000", "092207.555000", "092209.555000", "092211.555000", "092213.555000", "092215.555000", "092217.555000", "092219.555000", "092221.555000", "092223.555000", "092225.555000", "092227.555000", "092229.555000", "092231.555000", "092233.555000", "092235.555000", "092237.555000", "092239.555000", "092241.555000", "092243.555000", "092245.555000", "092247.555000", "092249.555000", "092251.555000", "092253.555000", "092255.555000", "092257.555000", "092259.555000", "092301.555000", "092303.555000", "092305.555000", "092307.555000", "092309.555000", "092311.555000", "092313.555000", "092315.555000", "092317.555000", "092319.555000", "092321.555000", "092323.555000", "092325.555000", "092327.555000", "092329.555000", "092331.555000", "092333.555000", "092335.555000", "092337.555000", "092339.555000", "092341.555000", "092343.555000", "092345.555000", "092347.555000", "092349.555000", "092351.555000", "092353.555000", "092355.555000", "092357.555000", "092359.555000", "092401.555000", "092403.555000", "092405.555000", "092407.555000", "092409.555000", "092411.555000", "092413.555000", "092415.555000", "092417.555000", "092419.555000", "092421.555000", "092423.555000", "092425.555000", "092427.555000", "092429.555000", "092431.555000", "092433.555000", "092435.555000", "092437.555000", "092439.555000", "092441.555000", "092443.555000", "092445.555000", "092447.555000", "092449.555000", "092451.555000", "092453.555000", "092455.555000", "092457.555000", "092459.555000", "092501.555000", "092503.555000", "092505.555000", "092507.555000", "092509.555000", "092511.555000", "092513.555000", "092515.555000", "092517.555000", "092519.555000", "092521.555000", "092523.555000", "092525.555000", "092527.555000", "092529.555000", "092531.555000", "092533.555000", "092535.555000", "092537.555000", "092539.555000", "092541.555000", "092543.555000", "092545.555000", "092547.555000", "092549.555000", "092551.555000", "092553.555000", "092555.555000", "092557.555000", "092559.555000", "092601.555000", "092603.555000", "092605.555000", "092607.555000", "092609.555000", "092611.555000", "092613.555000", "092615.555000", "092617.555000", "092619.555000", "092621.555000", "092623.555000", "092625.555000", "092627.555000"],
      "ContentTime": ["092045.693000", "092045.697000", "092045.699000", "092045.702000", "092045.704000", "092045.707000", "092045.709000", "092045.712000", "092045.714000", "092045.717000", "092045.719000", "092045.722000", "092045.725000", "092045.727000", "092045.730000", "092045.732000", "092045.735000", "092045.737000", "092045.740000", "092045.742000", "092045.745000", "092045.747000", "092045.750000", "092045.752000", "092045.755000", "092045.757000", "092045.760000", "092045.762000", "092125.690000", "092125.692000", "092125.695000", "092125.697000", "092125.700000", "092125.703000", "092125.705000", "092125.708000", "092125.710000", "092125.713000", "092125.715000", "092125.718000", "092125.720000", "092125.723000", "092125.725000", "092125.728000", "092125.730000", "092125.733000", "092125.735000", "092125.738000", "092205.689000", "092205.692000", "092205.695000", "092205.697000", "092205.700000", "092205.703000", "092205.705000", "092205.707000", "092205.710000", "092205.712000", "092205.715000", "092205.717000", "092205.720000", "092205.723000", "092205.725000", "092205.728000", "092205.730000", "092205.733000", "092205.735000", "092205.738000", "092245.689000", "092245.691000", "092245.694000", "092245.696000", "092245.699000", "092245.701000", "092245.704000", "092245.706000", "092245.709000", "092245.712000", "092245.714000", "092245.717000", "092245.719000", "092245.722000", "092245.724000", "092245.727000", "092245.729000", "092245.732000", "092245.734000", "092245.737000", "092325.688000", "092325.691000", "092325.694000", "092325.696000", "092325.699000", "092325.701000", "092325.704000", "092325.706000", "092325.709000", "092325.711000", "092325.714000", "092325.716000", "092325.719000", "092325.722000", "092325.724000", "092325.727000", "092325.729000", "092325.732000", "092325.734000", "092325.737000", "092405.704000", "092405.707000", "092405.710000", "092405.712000", "092405.715000", "092405.717000", "092405.720000", "092405.722000", "092405.725000", "092405.728000", "092405.730000", "092405.733000", "092405.735000", "092405.738000", "092405.740000", "092405.743000", "092405.745000", "092405.748000", "092405.750000", "092405.753000", "092445.689000", "092445.691000", "092445.694000", "092445.696000", "092445.699000", "092445.702000", "092445.704000", "092445.707000", "092445.709000", "092445.712000", "092445.714000", "092445.717000", "092445.719000", "092445.722000", "092445.724000", "092445.727000", "092445.729000", "092445.732000", "092445.734000", "092445.737000", "092525.688000", "092525.691000", "092525.694000", "092525.696000", "092525.699000", "092525.701000", "092525.704000", "092525.707000", "092525.709000", "092525.712000", "092525.714000", "092525.717000", "092525.719000", "092525.722000", "092525.724000", "092525.727000", "092525.729000", "092525.732000", "092525.734000", "092525.737000", "092605.690000", "092605.692000", "092605.703000", "092605.705000", "092605.708000", "092605.710000", "092605.713000", "092605.715000", "092605.718000", "092605.720000", "092605.723000", "092605.726000", "092605.728000", "092605.731000", "092605.733000", "092605.736000", "092605.738000", "092605.741000", "092605.743000", "092605.746000", "092628.824000", "092628.827000", "092628.830000", "092628.832000", "092628.835000", "092628.837000", "092628.840000", "092628.843000", "092628.845000", "092628.848000", "092628.850000", "092628.853000"],
      "InstanceCreationTime": ["092045.693000", "092045.697000", "092045.699000", "092045.702000", "092045.704000", "092045.707000", "092045.709000", "092045.712000", "092045.714000", "092045.717000", "092045.719000", "092045.722000", "092045.725000", "092045.727000", "092045.730000", "092045.732000", "092045.735000", "092045.737000", "092045.740000", "092045.742000", "092045.745000", "092045.747000", "092045.750000", "092045.752000", "092045.755000", "092045.757000", "092045.760000", "092045.762000", "092125.690000", "092125.692000", "092125.695000", "092125.697000", "092125.700000", "092125.703000", "092125.705000", "092125.708000", "092125.710000", "092125.713000", "092125.715000", "092125.718000", "092125.720000", "092125.723000", "092125.725000", "092125.728000", "092125.730000", "092125.733000", "092125.735000", "092125.738000", "092205.689000", "092205.692000", "092205.695000", "092205.697000", "092205.700000", "092205.703000", "092205.705000", "092205.707000", "092205.710000", "092205.712000", "092205.715000", "092205.717000", "092205.720000", "092205.723000", "092205.725000", "092205.728000", "092205.730000", "092205.733000", "092205.735000", "092205.738000", "092245.689000", "092245.691000", "092245.694000", "092245.696000", "092245.699000", "092245.701000", "092245.704000", "092245.706000", "092245.709000", "092245.712000", "092245.714000", "092245.717000", "092245.719000", "092245.722000", "092245.724000", "092245.727000", "092245.729000", "092245.732000", "092245.734000", "092245.737000", "092325.688000", "092325.691000", "092325.694000", "092325.696000", "092325.699000", "092325.701000", "092325.704000", "092325.706000", "092325.709000", "092325.711000", "092325.714000", "092325.716000", "092325.719000", "092325.722000", "092325.724000", "092325.727000", "092325.729000", "092325.732000", "092325.734000", "092325.737000", "092405.704000", "092405.707000", "092405.710000", "092405.712000", "092405.715000", "092405.717000", "092405.720000", "092405.722000", "092405.725000", "092405.728000", "092405.730000", "092405.733000", "092405.735000", "092405.738000", "092405.740000", "092405.743000", "092405.745000", "092405.748000", "092405.750000", "092405.753000", "092445.689000", "092445.691000", "092445.694000", "092445.696000", "092445.699000", "092445.702000", "092445.704000", "092445.707000", "092445.709000", "092445.712000", "092445.714000", "092445.717000", "092445.719000", "092445.722000", "092445.724000", "092445.727000", "092445.729000", "092445.732000", "092445.734000", "092445.737000", "092525.688000", "092525.691000", "092525.694000", "092525.696000", "092525.699000", "092525.701000", "092525.704000", "092525.707000", "092525.709000", "092525.712000", "092525.714000", "092525.717000", "092525.719000", "092525.722000", "092525.724000", "092525.727000", "092525.729000", "092525.732000", "092525.734000", "092525.737000", "092605.690000", "092605.692000", "092605.703000", "092605.705000", "092605.708000", "092605.710000", "092605.713000", "092605.715000", "092605.718000", "092605.720000", "092605.723000", "092605.726000", "092605.728000", "092605.731000", "092605.733000", "092605.736000", "092605.738000", "092605.741000", "092605.743000", "092605.746000", "092628.824000", "092628.827000", "092628.830000", "092628.832000", "092628.835000", "092628.837000", "092628.840000", "092628.843000", "092628.845000", "092628.848000", "092628.850000", "092628.853000"],
      "InstanceNumber": [1, 2, 3, 4, 5, 6, 7, 8, 9, 10, 11, 12, 13, 14, 15, 16, 17, 18, 19, 20, 21, 22, 23, 24, 25, 26, 27, 28, 29, 30, 31, 32, 33, 34, 35, 36, 37, 38, 39, 40, 41, 42, 43, 44, 45, 46, 47, 48, 49, 50, 51, 52, 53, 54, 55, 56, 57, 58, 59, 60, 61, 62, 63, 64, 65, 66, 67, 68, 69, 70, 71, 72, 73, 74, 75, 76, 77, 78, 79, 80, 81, 82, 83, 84, 85, 86, 87, 88, 89, 90, 91, 92, 93, 94, 95, 96, 97, 98, 99, 100, 101, 102, 103, 104, 105, 106, 107, 108, 109, 110, 111, 112, 113, 114, 115, 116, 117, 118, 119, 120, 121, 122, 123, 124, 125, 126, 127, 128, 129, 130, 131, 132, 133, 134, 135, 136, 137, 138, 139, 140, 141, 142, 143, 144, 145, 146, 147, 148, 149, 150, 151, 152, 153, 154, 155, 156, 157, 158, 159, 160, 161, 162, 163, 164, 165, 166, 167, 168, 169, 170, 171, 172, 173, 174, 175, 176, 177, 178, 179, 180, 181, 182, 183, 184, 185, 186, 187, 188, 189, 190, 191, 192, 193, 194, 195, 196, 197, 198, 199, 200],
      "LargestImagePixelValue": [616, 617, 617, 620, 617, 618, 616, 616, 617, 618, 617, 617, 618, 618, 618, 619, 617, 617, 617, 617, 616, 615, 615, 620, 614, 618, 616, 618, 619, 617, 615, 615, 617, 617, 618, 619, 615, 619, 618, 618, 620, 618, 619, 618, 620, 616, 617, 618, 617, 617, 617, 616, 617, 616, 619, 617, 620, 621, 619, 618, 617, 618, 615, 617, 617, 615, 615, 620, 616, 617, 616, 617, 619, 617, 615, 618, 616, 618, 619, 615, 615, 616, 614, 621, 618, 617, 616, 616, 616, 617, 617, 618, 618, 618, 617, 617, 618, 616, 615, 617, 619, 617, 616, 618, 618, 619, 616, 617, 617, 618, 618, 617, 615, 616, 619, 618, 618, 616, 617, 615, 616, 617, 614, 619, 614, 616, 618, 616, 616, 615, 617, 616, 616, 617, 617, 617, 616, 615, 618, 617, 615, 615, 616, 615, 618, 619, 615, 617, 617, 618, 616, 618, 615, 617, 615, 616, 616, 615, 618, 615, 616, 617, 619, 614, 616, 619, 617, 616, 615, 615, 615, 615, 618, 615, 614, 617, 613, 619, 621, 616, 615, 619, 614, 616, 613, 615, 616, 617, 615, 616, 616, 615, 618, 616, 614, 615, 616, 615, 616, 617],
      "WindowCenter": [439.0, 439.0, 439.0, 439.0, 439.0, 439.0, 439.0, 439.0, 439.0, 439.0, 439.0, 439.0, 439.0, 439.0, 439.0, 439.0, 439.0, 439.0, 439.0, 439.0, 439.0, 439.0, 439.0, 439.0, 439.0, 439.0, 439.0, 439.0, 439.0, 439.0, 439.0, 439.0, 439.0, 439.0, 439.0, 439.0, 439.0, 439.0, 439.0, 439.0, 439.0, 439.0, 439.0, 439.0, 439.0, 439.0, 439.0, 439.0, 439.0, 439.0, 439.0, 439.0, 439.0, 439.0, 439.0, 439.0, 439.0, 439.0, 439.0, 439.0, 439.0, 439.0, 439.0, 439.0, 439.0, 439.0, 439.0, 439.0, 439.0, 439.0, 439.0, 439.0, 439.0, 439.0, 439.0, 439.0, 439.0, 439.0, 439.0, 439.0, 439.0, 439.0, 439.0, 439.0, 439.0, 439.0, 439.0, 439.0, 439.0, 439.0, 439.0, 439.0, 439.0, 439.0, 439.0, 439.0, 439.0, 439.0, 439.0, 439.0, 439.0, 439.0, 439.0, 439.0, 439.0, 439.0, 439.0, 439.0, 439.0, 439.0, 439.0, 439.0, 439.0, 439.0, 439.0, 439.0, 439.0, 439.0, 439.0, 439.0, 439.0, 439.0, 439.0, 439.0, 439.0, 439.0, 439.0, 439.0, 439.0, 439.0, 439.0, 439.0, 439.0, 439.0, 439.0, 439.0, 439.0, 439.0, 439.0, 439.0, 439.0, 439.0, 439.0, 439.0, 439.0, 439.0, 439.0, 439.0, 439.0, 439.0, 438.0, 439.0, 439.0, 439.0, 439.0, 438.0, 439.0, 439.0, 439.0, 439.0, 439.0, 439.0, 439.0, 439.0, 439.0, 439.0, 438.0, 439.0, 439.0, 439.0, 439.0, 439.0, 439.0, 438.0, 438.0, 439.0, 439.0, 439.0, 438.0, 439.0, 438.0, 439.0, 439.0, 439.0, 439.0, 439.0, 439.0, 439.0, 439.0, 439.0, 439.0, 439.0, 438.0, 439.0, 438.0, 438.0, 439.0, 438.0, 439.0, 438.0],
      "WindowWidth": [914.0, 915.0, 915.0, 915.0, 915.0, 915.0, 915.0, 915.0, 915.0, 915.0, 915.0, 915.0, 915.0, 915.0, 915.0, 915.0, 915.0, 915.0, 915.0, 915.0, 915.0, 914.0, 915.0, 915.0, 915.0, 914.0, 915.0, 915.0, 915.0, 915.0, 914.0, 915.0, 915.0, 915.0, 915.0, 915.0, 915.0, 914.0, 915.0, 915.0, 915.0, 915.0, 914.0, 915.0, 914.0, 915.0, 914.0, 914.0, 914.0, 915.0, 914.0, 914.0, 914.0, 914.0, 915.0, 914.0, 914.0, 914.0, 914.0, 914.0, 914.0, 914.0, 914.0, 914.0, 915.0, 914.0, 914.0, 914.0, 914.0, 914.0, 914.0, 914.0, 914.0, 914.0, 914.0, 914.0, 914.0, 914.0, 914.0, 914.0, 914.0, 914.0, 914.0, 914.0, 914.0, 914.0, 914.0, 914.0, 914.0, 914.0, 914.0, 914.0, 914.0, 914.0, 914.0, 914.0, 914.0, 914.0, 914.0, 914.0, 914.0, 914.0, 914.0, 914.0, 914.0, 914.0, 914.0, 914.0, 914.0, 914.0, 914.0, 914.0, 914.0, 914.0, 914.0, 914.0, 914.0, 913.0, 914.0, 913.0, 913.0, 914.0, 913.0, 914.0, 913.0, 913.0, 913.0, 913.0, 913.0, 913.0, 913.0, 913.0, 913.0, 913.0, 913.0, 913.0, 913.0, 913.0, 913.0, 913.0, 913.0, 913.0, 913.0, 913.0, 913.0, 913.0, 913.0, 913.0, 913.0, 913.0, 913.0, 913.0, 913.0, 913.0, 913.0, 913.0, 913.0, 913.0, 913.0, 913.0, 913.0, 913.0, 913.0, 913.0, 913.0, 913.0, 913.0, 913.0, 913.0, 913.0, 913.0, 913.0, 913.0, 912.0, 913.0, 913.0, 913.0, 913.0, 912.0, 913.0, 912.0, 913.0, 913.0, 913.0, 913.0, 913.0, 913.0, 913.0, 913.0, 913.0, 913.0, 913.0, 912.0, 913.0, 912.0, 912.0, 913.0, 912.0, 913.0, 912.0]
    },
    "slices": {}
  }
}