{
  "AcquisitionMatrixPE": 80,
  "AcquisitionNumber": 1,
  "AcquisitionTime": "08:53:26.540000",
  "BandwidthPerPixelPhaseEncode": 25,
  "BaseResolution": 80,
  "BodyPartExamined": "BRAIN",
  "CoilCombinationMethod": "Sum of Squares",
  "ConsistencyInfo": "N4_VE11C_LATEST_20160120",
  "ConversionSoftware": "dcm2niix",
  "ConversionSoftwareVersion": "v1.0.20220720",
  "DerivedVendorReportedEchoSpacing": 0.0005,
  "DeviceSerialNumber": "66112",
  "DwellTime": 2.7e-06,
  "EchoTime": 0.03,
  "EchoTrainLength": 80,
  "EffectiveEchoSpacing": 0.0005,
  "FlipAngle": 77,
  "HeudiconvVersion": "0.13.1",
  "ImageOrientationPatientDICOM": [0.986818, 0.161679, 0.00704587, -0.155591, 0.935883, 0.316094],
  "ImageOrientationText": "Tra>Cor(18.3)>Sag(-2.6)",
  "ImageType": [
    "ORIGINAL",
    "PRIMARY",
    "M",
    "ND",
    "NORM",
    "MOSAIC"
],
  "ImagingFrequency": 123.252,
  "InPlanePhaseEncodingDirectionDICOM": "COL",
  "InstitutionAddress": "Maynard 3,Hanover,NH,US,03755",
  "InstitutionName": "Dartmouth College - PBS",
  "InstitutionalDepartmentName": "Department",
  "MRAcquisitionType": "2D",
  "MagneticFieldStrength": 3,
  "Manufacturer": "Siemens",
  "ManufacturersModelName": "Prisma",
  "MatrixCoilMode": "SENSE",
  "Modality": "MR",
  "NonlinearGradientCorrection": false,
  "PartialFourier": 1,
  "PatientPosition": "HFS",
  "PercentPhaseFOV": 100,
  "PercentSampling": 100,
  "PhaseEncodingDirection": "j-",
  "PhaseEncodingSteps": 80,
  "PhaseResolution": 1,
  "PixelBandwidth": 2315,
  "ProcedureStepDescription": "dbic^QA",
  "ProtocolName": "func-bold_fa-77",
  "PulseSequenceDetails": "%SiemensSeq%\\ep2d_bold",
  "ReceiveCoilActiveElements": "HC1-7;NC1,2",
  "ReceiveCoilName": "HeadNeck_64",
  "ReconMatrixPE": 80,
  "RepetitionTime": 2,
  "SAR": 0.0323253,
  "ScanOptions": "FS",
  "ScanningSequence": "EP",
  "SequenceName": "*epfid2d1_80",
  "SequenceVariant": "SK",
  "SeriesDescription": "func-bold_fa-77",
  "SeriesNumber": 7,
  "ShimSetting": [4140, -7708, -7511, 139, -76, -230, -63, 83],
  "SliceThickness": 3.5,
  "SliceTiming": [0.99, 0, 1.055, 0.065, 1.12, 0.1325, 1.1875, 0.1975, 1.2525, 0.2625, 1.32, 0.33, 1.385, 0.395, 1.45, 0.46, 1.5175, 0.5275, 1.5825, 0.5925, 1.65, 0.66, 1.715, 0.725, 1.78, 0.79, 1.8475, 0.8575, 1.9125, 0.9225],
  "SoftwareVersions": "syngo MR E11",
  "SpacingBetweenSlices": 3.99,
  "StationName": "AWP66112",
  "TotalReadoutTime": 0.0395,
  "TxRefAmp": 213.052,
  "dcmmeta_affine": [
    [-2.9604549407958984, -0.46677154302597046, -0.1776013821363449, 139.8357696533203],
    [-0.4850365221500397, 2.807647466659546, 1.248964786529541, -92.94287872314453],
    [0.021137621253728867, -0.9482824206352234, 3.7853198051452637, -21.372331619262695],
    [0.0, 0.0, 0.0, 1.0]
],
  "dcmmeta_reorient_transform": [
    [0.0, -1.0, 0.0, 79.0],
    [1.0, 0.0, 0.0, 0.0],
    [0.0, 0.0, 1.0, 0.0],
    [0.0, 0.0, 0.0, 1.0]
],
  "dcmmeta_shape": [80, 80, 30, 200],
  "dcmmeta_slice_dim": 2,
  "dcmmeta_version": 0.6,
  "global": {
    "const": {
      "AccessionNumber": "qa64",
      "AcquisitionMatrix": [80, 0, 0, 80],
      "AngioFlag": "N",
      "BitsAllocated": 16,
      "BitsStored": 12,
      "BodyPartExamined": "BRAIN",
      "Columns": 480,
      "EchoNumbers": 1,
      "EchoTime": 30.0,
      "EchoTrainLength": 80,
      "FlipAngle": 77.0,
      "HighBit": 11,
      "ImageOrientationPatient": [0.98681827510793, 0.16167884085569, 0.00704587344319, -0.1555905111774, 0.93588251707252, 0.31609414273216],
      "ImagePositionPatient": [-601.69746954889, -787.39809239833, -290.17065356519],
      "ImageType": [
        "ORIGINAL",
        "PRIMARY",
        "M",
        "ND",
        "NORM",
        "MOSAIC"
],
      "ImagedNucleus": "1H",
      "ImagingFrequency": 123.252363,
      "InPlanePhaseEncodingDirection": "COL",
      "MRAcquisitionType": "2D",
      "MagneticFieldStrength": 3.0,
      "Manufacturer": "SIEMENS",
      "ManufacturerModelName": "Prisma",
      "Modality": "MR",
      "NumberOfAverages": 1.0,
      "NumberOfPhaseEncodingSteps": 80,
      "PercentPhaseFieldOfView": 100.0,
      "PercentSampling": 100.0,
      "PerformedProcedureStepStartTime": "084436.638000",
      "PhotometricInterpretation": "MONOCHROME2",
      "PixelBandwidth": 2315.0,
      "PixelRepresentation": 0,
      "PixelSpacing": [3.0, 3.0],
      "ProtocolName": "func-bold_fa-77",
      "RepetitionTime": 2000.0,
      "Rows": 480,
      "SAR": 0.03232525669103,
      "SamplesPerPixel": 1,
      "ScanOptions": "FS",
      "ScanningSequence": "EP",
      "SequenceName": "*epfid2d1_80",
      "SequenceVariant": "SK",
      "SeriesDescription": "func-bold_fa-77",
      "SeriesNumber": 7,
      "SeriesTime": "085423.036000",
      "SliceLocation": -55.593612249819,
      "SliceThickness": 3.5,
      "SmallestImagePixelValue": 0,
      "SoftwareVersions": "syngo MR E11",
      "SpacingBetweenSlices": 3.9900001199983,
      "SpecificCharacterSet": "ISO_IR 100",
      "StudyID": "50",
      "StudyTime": "084436.575000",
      "TransmitCoilName": "Body",
      "VariableFlipAngleFlag": "N",
      "WindowCenterWidthExplanation": "Algo1",
      "dBdt": 0.0},
    "slices": {}
  },
  "time": {
    "samples": {
      "AcquisitionNumber": [1, 2, 3, 4, 5, 6, 7, 8, 9, 10, 11, 12, 13, 14, 15, 16, 17, 18, 19, 20, 21, 22, 23, 24, 25, 26, 27, 28, 29, 30, 31, 32, 33, 34, 35, 36, 37, 38, 39, 40, 41, 42, 43, 44, 45, 46, 47, 48, 49, 50, 51, 52, 53, 54, 55, 56, 57, 58, 59, 60, 61, 62, 63, 64, 65, 66, 67, 68, 69, 70, 71, 72, 73, 74, 75, 76, 77, 78, 79, 80, 81, 82, 83, 84, 85, 86, 87, 88, 89, 90, 91, 92, 93, 94, 95, 96, 97, 98, 99, 100, 101, 102, 103, 104, 105, 106, 107, 108, 109, 110, 111, 112, 113, 114, 115, 116, 117, 118, 119, 120, 121, 122, 123, 124, 125, 126, 127, 128, 129, 130, 131, 132, 133, 134, 135, 136, 137, 138, 139, 140, 141, 142, 143, 144, 145, 146, 147, 148, 149, 150, 151, 152, 153, 154, 155, 156, 157, 158, 159, 160, 161, 162, 163, 164, 165, 166, 167, 168, 169, 170, 171, 172, 173, 174, 175, 176, 177, 178, 179, 180, 181, 182, 183, 184, 185, 186, 187, 188, 189, 190, 191, 192, 193, 194, 195, 196, 197, 198, 199, 200],
      "AcquisitionTime": ["085326.540000", "085328.540000", "085330.540000", "085332.540000", "085334.540000", "085336.540000", "085338.540000", "085340.540000", "085342.540000", "085344.540000", "085346.540000", "085348.540000", "085350.540000", "085352.540000", "085354.540000", "085356.540000", "085358.540000", "085400.540000", "085402.540000", "085404.540000", "085406.540000", "085408.540000", "085410.540000", "085412.540000", "085414.540000", "085416.540000", "085418.540000", "085420.540000", "085422.540000", "085424.540000", "085426.540000", "085428.540000", "085430.540000", "085432.540000", "085434.540000", "085436.540000", "085438.540000", "085440.540000", "085442.540000", "085444.540000", "085446.540000", "085448.540000", "085450.540000", "085452.540000", "085454.540000", "085456.540000", "085458.540000", "085500.540000", "085502.540000", "085504.540000", "085506.540000", "085508.540000", "085510.540000", "085512.540000", "085514.540000", "085516.540000", "085518.540000", "085520.540000", "085522.540000", "085524.540000", "085526.540000", "085528.540000", "085530.540000", "085532.540000", "085534.540000", "085536.540000", "085538.540000", "085540.540000", "085542.540000", "085544.540000", "085546.540000", "085548.540000", "085550.540000", "085552.540000", "085554.540000", "085556.540000", "085558.540000", "085600.540000", "085602.540000", "085604.540000", "085606.540000", "085608.540000", "085610.540000", "085612.540000", "085614.540000", "085616.540000", "085618.540000", "085620.540000", "085622.540000", "085624.540000", "085626.540000", "085628.540000", "085630.540000", "085632.540000", "085634.540000", "085636.540000", "085638.540000", "085640.540000", "085642.540000", "085644.540000", "085646.540000", "085648.540000", "085650.540000", "085652.540000", "085654.540000", "085656.540000", "085658.540000", "085700.540000", "085702.540000", "085704.540000", "085706.540000", "085708.540000", "085710.540000", "085712.540000", "085714.540000", "085716.540000", "085718.540000", "085720.540000", "085722.540000", "085724.540000", "085726.540000", "085728.540000", "085730.540000", "085732.540000", "085734.540000", "085736.540000", "085738.540000", "085740.540000", "085742.540000", "085744.540000", "085746.540000", "085748.540000", "085750.540000", "085752.540000", "085754.540000", "085756.540000", "085758.540000", "085800.540000", "085802.540000", "085804.540000", "085806.540000", "085808.540000", "085810.540000", "085812.540000", "085814.540000", "085816.540000", "085818.540000", "085820.540000", "085822.540000", "085824.540000", "085826.540000", "085828.540000", "085830.540000", "085832.540000", "085834.540000", "085836.540000", "085838.540000", "085840.540000", "085842.540000", "085844.540000", "085846.540000", "085848.540000", "085850.540000", "085852.540000", "085854.540000", "085856.540000", "085858.540000", "085900.540000", "085902.540000", "085904.540000", "085906.540000", "085908.540000", "085910.540000", "085912.540000", "085914.540000", "085916.540000", "085918.540000", "085920.540000", "085922.540000", "085924.540000", "085926.540000", "085928.540000", "085930.540000", "085932.540000", "085934.540000", "085936.540000", "085938.540000", "085940.540000", "085942.540000", "085944.540000", "085946.540000", "085948.540000", "085950.540000", "085952.540000", "085954.540000", "085956.540000", "085958.540000", "090000.540000", "090002.540000", "090004.540000"],
      "ContentTime": ["085423.039000", "085423.043000", "085423.046000", "085423.048000", "085423.051000", "085423.053000", "085423.056000", "085423.059000", "085423.061000", "085423.064000", "085423.066000", "085423.069000", "085423.071000", "085423.074000", "085423.077000", "085423.079000", "085423.082000", "085423.084000", "085423.087000", "085423.090000", "085423.092000", "085423.107000", "085423.110000", "085423.117000", "085423.120000", "085423.123000", "085423.125000", "085423.135000", "085503.036000", "085503.038000", "085503.041000", "085503.044000", "085503.046000", "085503.049000", "085503.051000", "085503.054000", "085503.057000", "085503.059000", "085503.062000", "085503.064000", "085503.067000", "085503.070000", "085503.072000", "085503.075000", "085503.077000", "085503.080000", "085503.083000", "085503.085000", "085543.035000", "085543.037000", "085543.040000", "085543.042000", "085543.045000", "085543.048000", "085543.050000", "085543.053000", "085543.056000", "085543.058000", "085543.061000", "085543.063000", "085543.066000", "085543.069000", "085543.071000", "085543.074000", "085543.076000", "085543.079000", "085543.081000", "085543.084000", "085623.035000", "085623.037000", "085623.040000", "085623.043000", "085623.045000", "085623.048000", "085623.050000", "085623.053000", "085623.056000", "085623.058000", "085623.061000", "085623.063000", "085623.066000", "085623.069000", "085623.071000", "085623.074000", "085623.077000", "085623.079000", "085623.082000", "085623.084000", "085703.036000", "085703.038000", "085703.041000", "085703.044000", "085703.046000", "085703.049000", "085703.052000", "085703.054000", "085703.057000", "085703.059000", "085703.062000", "085703.064000", "085703.067000", "085703.070000", "085703.072000", "085703.075000", "085703.078000", "085703.080000", "085703.083000", "085703.085000", "085743.036000", "085743.038000", "085743.041000", "085743.044000", "085743.046000", "085743.049000", "085743.051000", "085743.054000", "085743.057000", "085743.059000", "085743.062000", "085743.064000", "085743.067000", "085743.070000", "085743.072000", "085743.075000", "085743.078000", "085743.080000", "085743.083000", "085743.085000", "085823.034000", "085823.037000", "085823.040000", "085823.042000", "085823.045000", "085823.048000", "085823.050000", "085823.053000", "085823.056000", "085823.058000", "085823.061000", "085823.063000", "085823.066000", "085823.069000", "085823.071000", "085823.074000", "085823.076000", "085823.079000", "085823.082000", "085823.084000", "085903.035000", "085903.037000", "085903.040000", "085903.043000", "085903.046000", "085903.048000", "085903.051000", "085903.053000", "085903.056000", "085903.058000", "085903.061000", "085903.064000", "085903.066000", "085903.069000", "085903.071000", "085903.074000", "085903.077000", "085903.079000", "085903.082000", "085903.084000", "085943.036000", "085943.038000", "085943.041000", "085943.044000", "085943.046000", "085943.049000", "085943.052000", "085943.054000", "085943.057000", "085943.059000", "085943.062000", "085943.065000", "085943.067000", "085943.070000", "085943.072000", "085943.075000", "085943.078000", "085943.080000", "085943.083000", "085943.085000", "090005.848000", "090005.851000", "090005.854000", "090005.856000", "090005.859000", "090005.862000", "090005.865000", "090005.867000", "090005.870000", "090005.872000", "090005.875000", "090005.878000"],
      "InstanceCreationTime": ["085423.039000", "085423.043000", "085423.046000", "085423.048000", "085423.051000", "085423.053000", "085423.056000", "085423.059000", "085423.061000", "085423.064000", "085423.066000", "085423.069000", "085423.071000", "085423.074000", "085423.077000", "085423.079000", "085423.082000", "085423.084000", "085423.087000", "085423.090000", "085423.092000", "085423.107000", "085423.110000", "085423.117000", "085423.120000", "085423.123000", "085423.125000", "085423.135000", "085503.036000", "085503.038000", "085503.041000", "085503.044000", "085503.046000", "085503.049000", "085503.051000", "085503.054000", "085503.057000", "085503.059000", "085503.062000", "085503.064000", "085503.067000", "085503.070000", "085503.072000", "085503.075000", "085503.077000", "085503.080000", "085503.083000", "085503.085000", "085543.035000", "085543.037000", "085543.040000", "085543.042000", "085543.045000", "085543.048000", "085543.050000", "085543.053000", "085543.056000", "085543.058000", "085543.061000", "085543.063000", "085543.066000", "085543.069000", "085543.071000", "085543.074000", "085543.076000", "085543.079000", "085543.081000", "085543.084000", "085623.035000", "085623.037000", "085623.040000", "085623.043000", "085623.045000", "085623.048000", "085623.050000", "085623.053000", "085623.056000", "085623.058000", "085623.061000", "085623.063000", "085623.066000", "085623.069000", "085623.071000", "085623.074000", "085623.077000", "085623.079000", "085623.082000", "085623.084000", "085703.036000", "085703.038000", "085703.041000", "085703.044000", "085703.046000", "085703.049000", "085703.052000", "085703.054000", "085703.057000", "085703.059000", "085703.062000", "085703.064000", "085703.067000", "085703.070000", "085703.072000", "085703.075000", "085703.078000", "085703.080000", "085703.083000", "085703.085000", "085743.036000", "085743.038000", "085743.041000", "085743.044000", "085743.046000", "085743.049000", "085743.051000", "085743.054000", "085743.057000", "085743.059000", "085743.062000", "085743.064000", "085743.067000", "085743.070000", "085743.072000", "085743.075000", "085743.078000", "085743.080000", "085743.083000", "085743.085000", "085823.034000", "085823.037000", "085823.040000", "085823.042000", "085823.045000", "085823.048000", "085823.050000", "085823.053000", "085823.056000", "085823.058000", "085823.061000", "085823.063000", "085823.066000", "085823.069000", "085823.071000", "085823.074000", "085823.076000", "085823.079000", "085823.082000", "085823.084000", "085903.035000", "085903.037000", "085903.040000", "085903.043000", "085903.046000", "085903.048000", "085903.051000", "085903.053000", "085903.056000", "085903.058000", "085903.061000", "085903.064000", "085903.066000", "085903.069000", "085903.071000", "085903.074000", "085903.077000", "085903.079000", "085903.082000", "085903.084000", "085943.036000", "085943.038000", "085943.041000", "085943.044000", "085943.046000", "085943.049000", "085943.052000", "085943.054000", "085943.057000", "085943.059000", "085943.062000", "085943.065000", "085943.067000", "085943.070000", "085943.072000", "085943.075000", "085943.078000", "085943.080000", "085943.083000", "085943.085000", "090005.848000", "090005.851000", "090005.854000", "090005.856000", "090005.859000", "090005.862000", "090005.865000", "090005.867000", "090005.870000", "090005.872000", "090005.875000", "090005.878000"],
      "InstanceNumber": [1, 2, 3, 4, 5, 6, 7, 8, 9, 10, 11, 12, 13, 14, 15, 16, 17, 18, 19, 20, 21, 22, 23, 24, 25, 26, 27, 28, 29, 30, 31, 32, 33, 34, 35, 36, 37, 38, 39, 40, 41, 42, 43, 44, 45, 46, 47, 48, 49, 50, 51, 52, 53, 54, 55, 56, 57, 58, 59, 60, 61, 62, 63, 64, 65, 66, 67, 68, 69, 70, 71, 72, 73, 74, 75, 76, 77, 78, 79, 80, 81, 82, 83, 84, 85, 86, 87, 88, 89, 90, 91, 92, 93, 94, 95, 96, 97, 98, 99, 100, 101, 102, 103, 104, 105, 106, 107, 108, 109, 110, 111, 112, 113, 114, 115, 116, 117, 118, 119, 120, 121, 122, 123, 124, 125, 126, 127, 128, 129, 130, 131, 132, 133, 134, 135, 136, 137, 138, 139, 140, 141, 142, 143, 144, 145, 146, 147, 148, 149, 150, 151, 152, 153, 154, 155, 156, 157, 158, 159, 160, 161, 162, 163, 164, 165, 166, 167, 168, 169, 170, 171, 172, 173, 174, 175, 176, 177, 178, 179, 180, 181, 182, 183, 184, 185, 186, 187, 188, 189, 190, 191, 192, 193, 194, 195, 196, 197, 198, 199, 200],
      "LargestImagePixelValue": [3621, 3625, 3623, 3619, 3622, 3619, 3621, 3621, 3619, 3622, 3621, 3620, 3620, 3621, 3621, 3622, 3618, 3619, 3621, 3625, 3615, 3619, 3620, 3620, 3620, 3619, 3615, 3621, 3618, 3618, 3621, 3619, 3619, 3620, 3621, 3618, 3621, 3618, 3621, 3624, 3616, 3623, 3621, 3618, 3623, 3622, 3619, 3618, 3615, 3617, 3619, 3617, 3618, 3619, 3620, 3619, 3617, 3618, 3617, 3618, 3618, 3616, 3616, 3614, 3617, 3618, 3619, 3614, 3617, 3624, 3616, 3616, 3616, 3617, 3615, 3617, 3619, 3616, 3619, 3614, 3615, 3618, 3614, 3615, 3615, 3616, 3617, 3616, 3613, 3615, 3615, 3614, 3611, 3613, 3614, 3613, 3612, 3614, 3614, 3617, 3615, 3616, 3613, 3613, 3615, 3611, 3613, 3613, 3612, 3616, 3615, 3614, 3617, 3612, 3615, 3615, 3614, 3612, 3617, 3613, 3610, 3615, 3616, 3612, 3613, 3614, 3614, 3614, 3615, 3611, 3610, 3608, 3610, 3610, 3610, 3609, 3612, 3612, 3612, 3611, 3613, 3611, 3611, 3612, 3611, 3611, 3610, 3609, 3612, 3610, 3611, 3608, 3609, 3610, 3611, 3609, 3608, 3613, 3612, 3611, 3609, 3608, 3613, 3610, 3609, 3609, 3611, 3611, 3613, 3608, 3610, 3609, 3611, 3610, 3609, 3608, 3610, 3604, 3609, 3610, 3608, 3611, 3606, 3606, 3609, 3610, 3608, 3606, 3609, 3611, 3609, 3610, 3608, 3604, 3608, 3610, 3609, 3610, 3610, 3610],
      "WindowCenter": [1335.0, 1334.0, 1333.0, 1334.0, 1334.0, 1333.0, 1333.0, 1333.0, 1333.0, 1334.0, 1333.0, 1333.0, 1333.0, 1333.0, 1333.0, 1333.0, 1333.0, 1333.0, 1333.0, 1333.0, 1333.0, 1333.0, 1333.0, 1333.0, 1333.0, 1333.0, 1333.0, 1333.0, 1333.0, 1333.0, 1333.0, 1333.0, 1333.0, 1333.0, 1333.0, 1333.0, 1333.0, 1333.0, 1333.0, 1333.0, 1332.0, 1332.0, 1332.0, 1332.0, 1332.0, 1333.0, 1333.0, 1332.0, 1332.0, 1333.0, 1332.0, 1332.0, 1332.0, 1332.0, 1332.0, 1332.0, 1332.0, 1332.0, 1332.0, 1332.0, 1332.0, 1332.0, 1332.0, 1332.0, 1332.0, 1332.0, 1332.0, 1332.0, 1332.0, 1331.0, 1331.0, 1331.0, 1332.0, 1332.0, 1332.0, 1332.0, 1331.0, 1332.0, 1331.0, 1332.0, 1332.0, 1332.0, 1331.0, 1331.0, 1331.0, 1331.0, 1331.0, 1331.0, 1331.0, 1331.0, 1331.0, 1332.0, 1332.0, 1331.0, 1331.0, 1331.0, 1331.0, 1331.0, 1331.0, 1331.0, 1331.0, 1330.0, 1331.0, 1331.0, 1331.0, 1330.0, 1331.0, 1331.0, 1330.0, 1331.0, 1331.0, 1331.0, 1331.0, 1330.0, 1331.0, 1331.0, 1331.0, 1330.0, 1330.0, 1330.0, 1330.0, 1330.0, 1330.0, 1330.0, 1330.0, 1330.0, 1331.0, 1331.0, 1331.0, 1330.0, 1331.0, 1330.0, 1330.0, 1330.0, 1329.0, 1330.0, 1330.0, 1330.0, 1330.0, 1330.0, 1330.0, 1330.0, 1330.0, 1330.0, 1330.0, 1330.0, 1330.0, 1330.0, 1330.0, 1330.0, 1329.0, 1330.0, 1329.0, 1330.0, 1329.0, 1329.0, 1329.0, 1330.0, 1329.0, 1330.0, 1329.0, 1330.0, 1329.0, 1330.0, 1330.0, 1330.0, 1330.0, 1330.0, 1329.0, 1329.0, 1330.0, 1329.0, 1329.0, 1330.0, 1329.0, 1329.0, 1329.0, 1329.0, 1329.0, 1329.0, 1329.0, 1329.0, 1329.0, 1329.0, 1329.0, 1329.0, 1329.0, 1329.0, 1329.0, 1330.0, 1329.0, 1329.0, 1329.0, 1329.0, 1329.0, 1329.0, 1329.0, 1329.0, 1329.0, 1329.0],
      "WindowWidth": [3209.0, 3209.0, 3209.0, 3208.0, 3208.0, 3208.0, 3208.0, 3208.0, 3208.0, 3208.0, 3208.0, 3208.0, 3208.0, 3208.0, 3208.0, 3208.0, 3208.0, 3207.0, 3207.0, 3207.0, 3208.0, 3208.0, 3208.0, 3208.0, 3208.0, 3208.0, 3207.0, 3208.0, 3208.0, 3207.0, 3207.0, 3207.0, 3207.0, 3207.0, 3207.0, 3207.0, 3207.0, 3207.0, 3207.0, 3207.0, 3207.0, 3207.0, 3207.0, 3207.0, 3207.0, 3207.0, 3207.0, 3207.0, 3207.0, 3207.0, 3207.0, 3207.0, 3207.0, 3207.0, 3207.0, 3207.0, 3206.0, 3206.0, 3206.0, 3206.0, 3206.0, 3206.0, 3206.0, 3206.0, 3206.0, 3206.0, 3207.0, 3206.0, 3206.0, 3206.0, 3206.0, 3206.0, 3206.0, 3206.0, 3206.0, 3206.0, 3206.0, 3206.0, 3206.0, 3206.0, 3206.0, 3206.0, 3206.0, 3206.0, 3206.0, 3206.0, 3206.0, 3205.0, 3205.0, 3206.0, 3205.0, 3205.0, 3205.0, 3205.0, 3205.0, 3205.0, 3205.0, 3205.0, 3205.0, 3205.0, 3205.0, 3205.0, 3205.0, 3205.0, 3205.0, 3205.0, 3205.0, 3205.0, 3205.0, 3205.0, 3205.0, 3205.0, 3205.0, 3205.0, 3205.0, 3205.0, 3205.0, 3205.0, 3205.0, 3205.0, 3204.0, 3205.0, 3204.0, 3204.0, 3204.0, 3204.0, 3204.0, 3204.0, 3204.0, 3204.0, 3204.0, 3204.0, 3204.0, 3204.0, 3204.0, 3204.0, 3204.0, 3204.0, 3204.0, 3204.0, 3204.0, 3204.0, 3204.0, 3204.0, 3204.0, 3204.0, 3204.0, 3204.0, 3204.0, 3204.0, 3204.0, 3203.0, 3204.0, 3203.0, 3204.0, 3204.0, 3204.0, 3203.0, 3203.0, 3203.0, 3204.0, 3203.0, 3203.0, 3203.0, 3203.0, 3203.0, 3203.0, 3203.0, 3203.0, 3203.0, 3203.0, 3203.0, 3203.0, 3203.0, 3203.0, 3203.0, 3203.0, 3203.0, 3203.0, 3203.0, 3203.0, 3203.0, 3203.0, 3203.0, 3203.0, 3203.0, 3203.0, 3203.0, 3203.0, 3202.0, 3202.0, 3203.0, 3202.0, 3203.0, 3203.0, 3202.0, 3202.0, 3202.0, 3202.0, 3202.0]
    },
    "slices": {}
  }
}