{
  "AcquisitionMatrixPE": 80,
  "AcquisitionNumber": 1,
  "AcquisitionTime": "08:46:35.200000",
  "BandwidthPerPixelPhaseEncode": 48.077,
  "BaseResolution": 80,
  "BodyPartExamined": "BRAIN",
  "CoilCombinationMethod": "Sum of Squares",
  "ConsistencyInfo": "N4_VE11C_LATEST_20160120",
  "ConversionSoftware": "dcm2niix",
  "ConversionSoftwareVersion": "v1.0.20220720",
  "DerivedVendorReportedEchoSpacing": 0.000519999,
  "DeviceSerialNumber": "66112",
  "DwellTime": 2.7e-06,
  "EchoTime": 0.035,
  "EchoTrainLength": 39,
  "EffectiveEchoSpacing": 0.00026,
  "FlipAngle": 90,
  "HeudiconvVersion": "0.13.1",
  "ImageOrientationPatientDICOM": [0.986818, 0.161679, 0.00704587, -0.155591, 0.935883, 0.316094],
  "ImageOrientationText": "Tra>Cor(18.3)>Sag(-2.6)",
  "ImageType": [
    "ORIGINAL",
    "PRIMARY",
    "M",
    "ND",
    "NORM",
    "MOSAIC"
],
  "ImagingFrequency": 123.252,
  "InPlanePhaseEncodingDirectionDICOM": "COL",
  "InstitutionAddress": "Maynard 3,Hanover,NH,US,03755",
  "InstitutionName": "Dartmouth College - PBS",
  "InstitutionalDepartmentName": "Department",
  "MRAcquisitionType": "2D",
  "MagneticFieldStrength": 3,
  "Manufacturer": "Siemens",
  "ManufacturersModelName": "Prisma",
  "MatrixCoilMode": "GRAPPA",
  "Modality": "MR",
  "NonlinearGradientCorrection": false,
  "ParallelReductionFactorInPlane": 2,
  "PartialFourier": 1,
  "PatientPosition": "HFS",
  "PercentPhaseFOV": 100,
  "PercentSampling": 100,
  "PhaseEncodingDirection": "j-",
  "PhaseEncodingSteps": 79,
  "PhaseResolution": 1,
  "PixelBandwidth": 2315,
  "ProcedureStepDescription": "dbic^QA",
  "ProtocolName": "func-bold_task-rest_acq-p2",
  "PulseSequenceDetails": "%SiemensSeq%\\ep2d_bold",
  "ReceiveCoilActiveElements": "HC1-7;NC1,2",
  "ReceiveCoilName": "HeadNeck_64",
  "ReconMatrixPE": 80,
  "RefLinesPE": 24,
  "RepetitionTime": 2,
  "SAR": 0.0411341,
  "ScanOptions": "FS",
  "ScanningSequence": "EP",
  "SequenceName": "*epfid2d1_80",
  "SequenceVariant": "SK",
  "SeriesDescription": "func-bold_task-rest_acq-p2",
  "SeriesNumber": 5,
  "ShimSetting": [4140, -7708, -7511, 137, -76, -231, -64, 83],
  "SliceThickness": 3.5,
  "SliceTiming": [0.99, 0, 1.0575, 0.0675, 1.1225, 0.1325, 1.1875, 0.1975, 1.255, 0.265, 1.32, 0.33, 1.3875, 0.3975, 1.4525, 0.4625, 1.5175, 0.5275, 1.585, 0.595, 1.65, 0.66, 1.7175, 0.7275, 1.7825, 0.7925, 1.8475, 0.8575, 1.915, 0.925],
  "SoftwareVersions": "syngo MR E11",
  "SpacingBetweenSlices": 3.99,
  "StationName": "AWP66112",
  "TaskName": "rest",
  "TotalReadoutTime": 0.02054,
  "TxRefAmp": 213.052,
  "dcmmeta_affine": [
    [-2.9604549407958984, -0.46677154302597046, -0.1776013821363449, 142.086181640625],
    [-0.4850365221500397, 2.807647466659546, 1.248964786529541, -94.82975769042969],
    [0.021137621253728867, -0.9482824206352234, 3.7853195667266846, -21.991220474243164],
    [0.0, 0.0, 0.0, 1.0]
],
  "dcmmeta_reorient_transform": [
    [0.0, -1.0, 0.0, 79.0],
    [1.0, 0.0, 0.0, 0.0],
    [0.0, 0.0, 1.0, 0.0],
    [0.0, 0.0, 0.0, 1.0]
],
  "dcmmeta_shape": [80, 80, 30, 200],
  "dcmmeta_slice_dim": 2,
  "dcmmeta_version": 0.6,
  "global": {
    "const": {
      "AccessionNumber": "qa64",
      "AcquisitionMatrix": [80, 0, 0, 80],
      "AngioFlag": "N",
      "BitsAllocated": 16,
      "BitsStored": 12,
      "BodyPartExamined": "BRAIN",
      "Columns": 480,
      "EchoNumbers": 1,
      "EchoTime": 35.0,
      "EchoTrainLength": 39,
      "FlipAngle": 90.0,
      "HighBit": 11,
      "ImageOrientationPatient": [0.98681827510793, 0.16167884085569, 0.00704587344319, -0.1555905111774, 0.93588251707252, 0.31609414273216],
      "ImagePositionPatient": [-603.9478815362, -785.51121128528, -290.78954242017],
      "ImageType": [
        "ORIGINAL",
        "PRIMARY",
        "M",
        "ND",
        "NORM",
        "MOSAIC"
],
      "ImagedNucleus": "1H",
      "ImagingFrequency": 123.252363,
      "InPlanePhaseEncodingDirection": "COL",
      "MRAcquisitionType": "2D",
      "MagneticFieldStrength": 3.0,
      "Manufacturer": "SIEMENS",
      "ManufacturerModelName": "Prisma",
      "Modality": "MR",
      "NumberOfAverages": 1.0,
      "NumberOfPhaseEncodingSteps": 79,
      "PercentPhaseFieldOfView": 100.0,
      "PercentSampling": 100.0,
      "PerformedProcedureStepStartTime": "084436.638000",
      "PhotometricInterpretation": "MONOCHROME2",
      "PixelBandwidth": 2315.0,
      "PixelRepresentation": 0,
      "PixelSpacing": [3.0, 3.0],
      "ProtocolName": "func-bold_task-rest_acq-p2",
      "RepetitionTime": 2000.0,
      "Rows": 480,
      "SAR": 0.04113413626329,
      "SamplesPerPixel": 1,
      "ScanOptions": "FS",
      "ScanningSequence": "EP",
      "SequenceName": "*epfid2d1_80",
      "SequenceVariant": "SK",
      "SeriesDescription": "func-bold_task-rest_acq-p2",
      "SeriesNumber": 5,
      "SeriesTime": "084722.965000",
      "SliceLocation": -56.871561228455,
      "SliceThickness": 3.5,
      "SmallestImagePixelValue": 0,
      "SoftwareVersions": "syngo MR E11",
      "SpacingBetweenSlices": 3.989999977465,
      "SpecificCharacterSet": "ISO_IR 100",
      "StudyID": "50",
      "StudyTime": "084436.575000",
      "TransmitCoilName": "Body",
      "VariableFlipAngleFlag": "N",
      "WindowCenterWidthExplanation": "Algo1",
      "dBdt": 0.0},
    "slices": {}
  },
  "time": {
    "samples": {
      "AcquisitionNumber": [1, 2, 3, 4, 5, 6, 7, 8, 9, 10, 11, 12, 13, 14, 15, 16, 17, 18, 19, 20, 21, 22, 23, 24, 25, 26, 27, 28, 29, 30, 31, 32, 33, 34, 35, 36, 37, 38, 39, 40, 41, 42, 43, 44, 45, 46, 47, 48, 49, 50, 51, 52, 53, 54, 55, 56, 57, 58, 59, 60, 61, 62, 63, 64, 65, 66, 67, 68, 69, 70, 71, 72, 73, 74, 75, 76, 77, 78, 79, 80, 81, 82, 83, 84, 85, 86, 87, 88, 89, 90, 91, 92, 93, 94, 95, 96, 97, 98, 99, 100, 101, 102, 103, 104, 105, 106, 107, 108, 109, 110, 111, 112, 113, 114, 115, 116, 117, 118, 119, 120, 121, 122, 123, 124, 125, 126, 127, 128, 129, 130, 131, 132, 133, 134, 135, 136, 137, 138, 139, 140, 141, 142, 143, 144, 145, 146, 147, 148, 149, 150, 151, 152, 153, 154, 155, 156, 157, 158, 159, 160, 161, 162, 163, 164, 165, 166, 167, 168, 169, 170, 171, 172, 173, 174, 175, 176, 177, 178, 179, 180, 181, 182, 183, 184, 185, 186, 187, 188, 189, 190, 191, 192, 193, 194, 195, 196, 197, 198, 199, 200],
      "AcquisitionTime": ["084635.200000", "084637.200000", "084639.200000", "084641.200000", "084643.200000", "084645.200000", "084647.200000", "084649.200000", "084651.200000", "084653.200000", "084655.200000", "084657.200000", "084659.200000", "084701.200000", "084703.200000", "084705.200000", "084707.200000", "084709.200000", "084711.200000", "084713.200000", "084715.200000", "084717.200000", "084719.200000", "084721.200000", "084723.200000", "084725.200000", "084727.200000", "084729.200000", "084731.200000", "084733.200000", "084735.200000", "084737.200000", "084739.200000", "084741.200000", "084743.200000", "084745.200000", "084747.200000", "084749.200000", "084751.200000", "084753.200000", "084755.200000", "084757.200000", "084759.200000", "084801.200000", "084803.200000", "084805.200000", "084807.200000", "084809.200000", "084811.200000", "084813.200000", "084815.200000", "084817.200000", "084819.200000", "084821.200000", "084823.200000", "084825.200000", "084827.200000", "084829.200000", "084831.200000", "084833.200000", "084835.200000", "084837.200000", "084839.200000", "084841.200000", "084843.200000", "084845.200000", "084847.200000", "084849.200000", "084851.200000", "084853.200000", "084855.200000", "084857.200000", "084859.200000", "084901.200000", "084903.200000", "084905.200000", "084907.200000", "084909.200000", "084911.200000", "084913.200000", "084915.200000", "084917.200000", "084919.200000", "084921.200000", "084923.200000", "084925.200000", "084927.200000", "084929.200000", "084931.200000", "084933.200000", "084935.200000", "084937.200000", "084939.200000", "084941.200000", "084943.200000", "084945.200000", "084947.200000", "084949.200000", "084951.200000", "084953.200000", "084955.200000", "084957.200000", "084959.200000", "085001.200000", "085003.200000", "085005.200000", "085007.200000", "085009.200000", "085011.200000", "085013.200000", "085015.200000", "085017.200000", "085019.200000", "085021.200000", "085023.200000", "085025.200000", "085027.200000", "085029.200000", "085031.200000", "085033.200000", "085035.200000", "085037.200000", "085039.200000", "085041.200000", "085043.200000", "085045.200000", "085047.200000", "085049.200000", "085051.200000", "085053.200000", "085055.200000", "085057.200000", "085059.200000", "085101.200000", "085103.200000", "085105.200000", "085107.200000", "085109.200000", "085111.200000", "085113.200000", "085115.200000", "085117.200000", "085119.200000", "085121.200000", "085123.200000", "085125.200000", "085127.200000", "085129.200000", "085131.200000", "085133.200000", "085135.200000", "085137.200000", "085139.200000", "085141.200000", "085143.200000", "085145.200000", "085147.200000", "085149.200000", "085151.200000", "085153.200000", "085155.200000", "085157.200000", "085159.200000", "085201.200000", "085203.200000", "085205.200000", "085207.200000", "085209.200000", "085211.200000", "085213.200000", "085215.200000", "085217.200000", "085219.200000", "085221.200000", "085223.200000", "085225.200000", "085227.200000", "085229.200000", "085231.200000", "085233.200000", "085235.200000", "085237.200000", "085239.200000", "085241.200000", "085243.200000", "085245.200000", "085247.200000", "085249.200000", "085251.200000", "085253.200000", "085255.200000", "085257.200000", "085259.200000", "085301.200000", "085303.200000", "085305.200000", "085307.200000", "085309.200000", "085311.200000", "085313.200000"],
      "ContentTime": ["084722.969000", "084722.972000", "084722.975000", "084722.977000", "084722.980000", "084722.983000", "084722.985000", "084722.988000", "084722.991000", "084722.993000", "084722.996000", "084722.998000", "084723.002000", "084723.005000", "084723.007000", "084723.017000", "084723.019000", "084723.022000", "084723.024000", "084723.027000", "084723.030000", "084723.032000", "084723.035000", "084802.965000", "084802.968000", "084802.970000", "084802.973000", "084802.975000", "084802.978000", "084802.981000", "084802.984000", "084802.986000", "084802.989000", "084802.992000", "084802.994000", "084802.997000", "084803.000000", "084803.003000", "084803.006000", "084803.008000", "084803.011000", "084803.014000", "084803.016000", "084842.964000", "084842.967000", "084842.969000", "084842.972000", "084842.974000", "084842.977000", "084842.980000", "084842.982000", "084842.985000", "084842.988000", "084842.990000", "084842.993000", "084842.995000", "084842.998000", "084843.002000", "084843.004000", "084843.007000", "084843.015000", "084843.018000", "084843.020000", "084922.963000", "084922.967000", "084922.969000", "084922.972000", "084922.974000", "084922.977000", "084922.980000", "084922.982000", "084922.985000", "084922.995000", "084922.997000", "084923.001000", "084923.004000", "084923.007000", "084923.009000", "084923.012000", "084923.014000", "084923.017000", "084923.020000", "084923.022000", "085002.964000", "085002.967000", "085002.970000", "085002.973000", "085002.975000", "085002.978000", "085002.981000", "085002.988000", "085002.990000", "085002.993000", "085002.996000", "085002.998000", "085003.002000", "085003.005000", "085003.007000", "085003.010000", "085003.012000", "085003.015000", "085003.018000", "085003.021000", "085042.965000", "085042.968000", "085042.970000", "085042.973000", "085042.976000", "085042.978000", "085042.981000", "085042.983000", "085042.986000", "085042.989000", "085042.991000", "085042.994000", "085042.997000", "085043.000000", "085043.003000", "085043.006000", "085043.008000", "085043.011000", "085043.014000", "085043.016000", "085122.964000", "085122.967000", "085122.969000", "085122.972000", "085122.974000", "085122.977000", "085122.980000", "085122.982000", "085122.985000", "085122.988000", "085122.991000", "085122.993000", "085122.996000", "085122.998000", "085123.002000", "085123.005000", "085123.007000", "085123.010000", "085123.020000", "085123.022000", "085202.963000", "085202.974000", "085202.977000", "085202.980000", "085202.982000", "085202.985000", "085202.988000", "085202.990000", "085202.993000", "085202.996000", "085202.998000", "085203.002000", "085203.005000", "085203.007000", "085203.010000", "085203.012000", "085203.015000", "085203.018000", "085203.020000", "085203.023000", "085242.965000", "085242.968000", "085242.970000", "085242.973000", "085242.975000", "085242.978000", "085242.981000", "085242.983000", "085242.986000", "085242.989000", "085242.991000", "085242.994000", "085242.997000", "085243.000000", "085243.003000", "085243.006000", "085243.008000", "085243.011000", "085243.014000", "085243.016000", "085315.076000", "085315.079000", "085315.082000", "085315.085000", "085315.087000", "085315.090000", "085315.093000", "085315.096000", "085315.098000", "085315.101000", "085315.104000", "085315.109000", "085315.112000", "085315.117000", "085315.121000", "085315.126000", "085315.130000"],
      "InstanceCreationTime": ["084722.969000", "084722.972000", "084722.975000", "084722.977000", "084722.980000", "084722.983000", "084722.985000", "084722.988000", "084722.991000", "084722.993000", "084722.996000", "084722.998000", "084723.002000", "084723.005000", "084723.007000", "084723.017000", "084723.019000", "084723.022000", "084723.024000", "084723.027000", "084723.030000", "084723.032000", "084723.035000", "084802.965000", "084802.968000", "084802.970000", "084802.973000", "084802.975000", "084802.978000", "084802.981000", "084802.984000", "084802.986000", "084802.989000", "084802.992000", "084802.994000", "084802.997000", "084803.000000", "084803.003000", "084803.006000", "084803.008000", "084803.011000", "084803.014000", "084803.016000", "084842.964000", "084842.967000", "084842.969000", "084842.972000", "084842.974000", "084842.977000", "084842.980000", "084842.982000", "084842.985000", "084842.988000", "084842.990000", "084842.993000", "084842.995000", "084842.998000", "084843.002000", "084843.004000", "084843.007000", "084843.015000", "084843.018000", "084843.020000", "084922.963000", "084922.967000", "084922.969000", "084922.972000", "084922.974000", "084922.977000", "084922.980000", "084922.982000", "084922.985000", "084922.995000", "084922.997000", "084923.001000", "084923.004000", "084923.007000", "084923.009000", "084923.012000", "084923.014000", "084923.017000", "084923.020000", "084923.022000", "085002.964000", "085002.967000", "085002.970000", "085002.973000", "085002.975000", "085002.978000", "085002.981000", "085002.988000", "085002.990000", "085002.993000", "085002.996000", "085002.998000", "085003.002000", "085003.005000", "085003.007000", "085003.010000", "085003.012000", "085003.015000", "085003.018000", "085003.021000", "085042.965000", "085042.968000", "085042.970000", "085042.973000", "085042.976000", "085042.978000", "085042.981000", "085042.983000", "085042.986000", "085042.989000", "085042.991000", "085042.994000", "085042.997000", "085043.000000", "085043.003000", "085043.006000", "085043.008000", "085043.011000", "085043.014000", "085043.016000", "085122.964000", "085122.967000", "085122.969000", "085122.972000", "085122.974000", "085122.977000", "085122.980000", "085122.982000", "085122.985000", "085122.988000", "085122.991000", "085122.993000", "085122.996000", "085122.998000", "085123.002000", "085123.005000", "085123.007000", "085123.010000", "085123.020000", "085123.022000", "085202.963000", "085202.974000", "085202.977000", "085202.980000", "085202.982000", "085202.985000", "085202.988000", "085202.990000", "085202.993000", "085202.996000", "085202.998000", "085203.002000", "085203.005000", "085203.007000", "085203.010000", "085203.012000", "085203.015000", "085203.018000", "085203.020000", "085203.023000", "085242.965000", "085242.968000", "085242.970000", "085242.973000", "085242.975000", "085242.978000", "085242.981000", "085242.983000", "085242.986000", "085242.989000", "085242.991000", "085242.994000", "085242.997000", "085243.000000", "085243.003000", "085243.006000", "085243.008000", "085243.011000", "085243.014000", "085243.016000", "085315.076000", "085315.079000", "085315.082000", "085315.085000", "085315.087000", "085315.090000", "085315.093000", "085315.096000", "085315.098000", "085315.101000", "085315.104000", "085315.109000", "085315.112000", "085315.117000", "085315.121000", "085315.126000", "085315.130000"],
      "InstanceNumber": [1, 2, 3, 4, 5, 6, 7, 8, 9, 10, 11, 12, 13, 14, 15, 16, 17, 18, 19, 20, 21, 22, 23, 24, 25, 26, 27, 28, 29, 30, 31, 32, 33, 34, 35, 36, 37, 38, 39, 40, 41, 42, 43, 44, 45, 46, 47, 48, 49, 50, 51, 52, 53, 54, 55, 56, 57, 58, 59, 60, 61, 62, 63, 64, 65, 66, 67, 68, 69, 70, 71, 72, 73, 74, 75, 76, 77, 78, 79, 80, 81, 82, 83, 84, 85, 86, 87, 88, 89, 90, 91, 92, 93, 94, 95, 96, 97, 98, 99, 100, 101, 102, 103, 104, 105, 106, 107, 108, 109, 110, 111, 112, 113, 114, 115, 116, 117, 118, 119, 120, 121, 122, 123, 124, 125, 126, 127, 128, 129, 130, 131, 132, 133, 134, 135, 136, 137, 138, 139, 140, 141, 142, 143, 144, 145, 146, 147, 148, 149, 150, 151, 152, 153, 154, 155, 156, 157, 158, 159, 160, 161, 162, 163, 164, 165, 166, 167, 168, 169, 170, 171, 172, 173, 174, 175, 176, 177, 178, 179, 180, 181, 182, 183, 184, 185, 186, 187, 188, 189, 190, 191, 192, 193, 194, 195, 196, 197, 198, 199, 200],
      "LargestImagePixelValue": [3710, 3724, 3722, 3702, 3700, 3709, 3705, 3705, 3710, 3720, 3722, 3704, 3690, 3700, 3710, 3703, 3708, 3697, 3707, 3708, 3713, 3704, 3689, 3709, 3702, 3703, 3703, 3714, 3683, 3699, 3705, 3686, 3703, 3698, 3708, 3689, 3705, 3700, 3705, 3706, 3701, 3694, 3702, 3687, 3686, 3691, 3694, 3688, 3699, 3708, 3705, 3699, 3688, 3693, 3698, 3690, 3696, 3700, 3688, 3695, 3696, 3688, 3695, 3695, 3705, 3692, 3694, 3703, 3700, 3697, 3696, 3689, 3691, 3697, 3689, 3687, 3685, 3696, 3696, 3700, 3694, 3685, 3692, 3697, 3694, 3698, 3684, 3707, 3692, 3704, 3690, 3683, 3703, 3695, 3706, 3695, 3688, 3689, 3695, 3682, 3694, 3699, 3697, 3696, 3693, 3693, 3695, 3703, 3701, 3686, 3694, 3688, 3689, 3693, 3705, 3671, 3690, 3683, 3689, 3691, 3690, 3697, 3694, 3704, 3691, 3692, 3696, 3681, 3690, 3691, 3688, 3683, 3685, 3699, 3693, 3688, 3684, 3683, 3693, 3683, 3686, 3692, 3702, 3691, 3698, 3687, 3699, 3685, 3667, 3676, 3683, 3688, 3687, 3679, 3687, 3690, 3695, 3680, 3680, 3687, 3673, 3679, 3690, 3673, 3685, 3676, 3679, 3681, 3680, 3680, 3689, 3690, 3690, 3691, 3684, 3668, 3681, 3683, 3694, 3695, 3678, 3689, 3683, 3680, 3680, 3681, 3681, 3686, 3684, 3691, 3685, 3673, 3687, 3682, 3694, 3677, 3684, 3672, 3684, 3696],
      "WindowCenter": [1403.0, 1403.0, 1402.0, 1402.0, 1403.0, 1403.0, 1402.0, 1402.0, 1402.0, 1402.0, 1402.0, 1403.0, 1402.0, 1402.0, 1402.0, 1402.0, 1401.0, 1402.0, 1401.0, 1401.0, 1401.0, 1402.0, 1402.0, 1402.0, 1402.0, 1401.0, 1402.0, 1401.0, 1401.0, 1401.0, 1401.0, 1401.0, 1402.0, 1401.0, 1401.0, 1402.0, 1401.0, 1401.0, 1401.0, 1400.0, 1401.0, 1401.0, 1401.0, 1401.0, 1401.0, 1401.0, 1400.0, 1401.0, 1400.0, 1400.0, 1401.0, 1401.0, 1401.0, 1400.0, 1400.0, 1400.0, 1399.0, 1400.0, 1400.0, 1400.0, 1400.0, 1400.0, 1400.0, 1400.0, 1400.0, 1400.0, 1400.0, 1401.0, 1400.0, 1400.0, 1400.0, 1400.0, 1400.0, 1400.0, 1400.0, 1400.0, 1400.0, 1400.0, 1399.0, 1400.0, 1401.0, 1400.0, 1400.0, 1399.0, 1399.0, 1399.0, 1400.0, 1400.0, 1400.0, 1400.0, 1400.0, 1400.0, 1400.0, 1400.0, 1400.0, 1400.0, 1400.0, 1399.0, 1400.0, 1399.0, 1399.0, 1399.0, 1399.0, 1399.0, 1400.0, 1400.0, 1399.0, 1399.0, 1399.0, 1399.0, 1399.0, 1399.0, 1399.0, 1399.0, 1400.0, 1400.0, 1400.0, 1400.0, 1400.0, 1400.0, 1400.0, 1400.0, 1399.0, 1400.0, 1400.0, 1400.0, 1400.0, 1400.0, 1399.0, 1399.0, 1399.0, 1399.0, 1399.0, 1399.0, 1399.0, 1398.0, 1400.0, 1400.0, 1400.0, 1399.0, 1400.0, 1400.0, 1399.0, 1399.0, 1399.0, 1399.0, 1399.0, 1400.0, 1399.0, 1399.0, 1399.0, 1400.0, 1400.0, 1399.0, 1399.0, 1399.0, 1399.0, 1399.0, 1398.0, 1399.0, 1399.0, 1399.0, 1399.0, 1399.0, 1399.0, 1398.0, 1398.0, 1399.0, 1399.0, 1399.0, 1399.0, 1399.0, 1399.0, 1398.0, 1399.0, 1398.0, 1399.0, 1399.0, 1399.0, 1399.0, 1399.0, 1399.0, 1398.0, 1398.0, 1398.0, 1398.0, 1398.0, 1399.0, 1398.0, 1398.0, 1399.0, 1398.0, 1398.0, 1399.0, 1399.0, 1399.0, 1398.0, 1398.0, 1399.0, 1398.0],
      "WindowWidth": [3259.0, 3258.0, 3258.0, 3258.0, 3257.0, 3257.0, 3258.0, 3257.0, 3257.0, 3257.0, 3257.0, 3257.0, 3257.0, 3257.0, 3257.0, 3257.0, 3257.0, 3257.0, 3257.0, 3257.0, 3257.0, 3256.0, 3256.0, 3256.0, 3256.0, 3257.0, 3256.0, 3257.0, 3256.0, 3256.0, 3256.0, 3256.0, 3256.0, 3256.0, 3256.0, 3256.0, 3256.0, 3256.0, 3256.0, 3256.0, 3256.0, 3256.0, 3255.0, 3255.0, 3255.0, 3255.0, 3256.0, 3255.0, 3256.0, 3256.0, 3255.0, 3255.0, 3255.0, 3255.0, 3256.0, 3256.0, 3256.0, 3255.0, 3255.0, 3255.0, 3255.0, 3255.0, 3255.0, 3255.0, 3255.0, 3255.0, 3255.0, 3255.0, 3255.0, 3255.0, 3255.0, 3255.0, 3255.0, 3255.0, 3255.0, 3255.0, 3255.0, 3255.0, 3255.0, 3255.0, 3255.0, 3255.0, 3254.0, 3255.0, 3255.0, 3255.0, 3254.0, 3254.0, 3254.0, 3254.0, 3254.0, 3254.0, 3255.0, 3255.0, 3255.0, 3255.0, 3255.0, 3255.0, 3254.0, 3254.0, 3254.0, 3254.0, 3254.0, 3254.0, 3254.0, 3254.0, 3254.0, 3254.0, 3254.0, 3254.0, 3254.0, 3254.0, 3254.0, 3254.0, 3254.0, 3254.0, 3254.0, 3254.0, 3254.0, 3254.0, 3254.0, 3254.0, 3255.0, 3254.0, 3254.0, 3254.0, 3254.0, 3254.0, 3254.0, 3254.0, 3254.0, 3254.0, 3255.0, 3254.0, 3254.0, 3255.0, 3254.0, 3254.0, 3254.0, 3254.0, 3254.0, 3254.0, 3254.0, 3254.0, 3254.0, 3254.0, 3254.0, 3254.0, 3254.0, 3254.0, 3254.0, 3254.0, 3254.0, 3254.0, 3254.0, 3254.0, 3254.0, 3254.0, 3254.0, 3254.0, 3254.0, 3254.0, 3254.0, 3254.0, 3254.0, 3254.0, 3254.0, 3254.0, 3254.0, 3254.0, 3254.0, 3254.0, 3254.0, 3253.0, 3253.0, 3253.0, 3253.0, 3253.0, 3254.0, 3253.0, 3253.0, 3253.0, 3253.0, 3253.0, 3253.0, 3253.0, 3253.0, 3253.0, 3253.0, 3253.0, 3253.0, 3253.0, 3253.0, 3253.0, 3253.0, 3253.0, 3253.0, 3253.0, 3253.0, 3253.0]
    },
    "slices": {}
  }
}