{
  "AcquisitionMatrixPE": 80,
  "AcquisitionNumber": 1,
  "AcquisitionTime": "09:59:7.470000",
  "BandwidthPerPixelPhaseEncode": 25,
  "BaseResolution": 80,
  "BodyPartExamined": "BRAIN",
  "CoilCombinationMethod": "Sum of Squares",
  "ConsistencyInfo": "N4_VE11E_LATEST_20181129",
  "ConversionSoftware": "dcm2niix",
  "ConversionSoftwareVersion": "v1.0.20220720",
  "DerivedVendorReportedEchoSpacing": 0.0005,
  "DeviceSerialNumber": "66112",
  "DwellTime": 2.7e-06,
  "EchoTime": 0.03,
  "EchoTrainLength": 80,
  "EffectiveEchoSpacing": 0.0005,
  "FlipAngle": 10,
  "HeudiconvVersion": "0.13.1",
  "ImageOrientationPatientDICOM": [0.989497, 0.144206, 0.00996554, -0.140298, 0.941505, 0.306406],
  "ImageOrientationText": "Tra>Cor(17.7)>Sag(-2.0)",
  "ImageType": [
    "ORIGINAL",
    "PRIMARY",
    "M",
    "ND",
    "NORM",
    "MOSAIC"
],
  "ImagingFrequency": 123.259,
  "InPlanePhaseEncodingDirectionDICOM": "COL",
  "InstitutionAddress": "Maynard 3,Hanover,NH,US,03755",
  "InstitutionName": "Dartmouth College - PBS",
  "InstitutionalDepartmentName": "Department",
  "MRAcquisitionType": "2D",
  "MagneticFieldStrength": 3,
  "Manufacturer": "Siemens",
  "ManufacturersModelName": "Prisma",
  "MatrixCoilMode": "SENSE",
  "Modality": "MR",
  "NonlinearGradientCorrection": false,
  "PartialFourier": 1,
  "PatientPosition": "HFS",
  "PercentPhaseFOV": 100,
  "PercentSampling": 100,
  "PhaseEncodingDirection": "j-",
  "PhaseEncodingSteps": 80,
  "PhaseResolution": 1,
  "PixelBandwidth": 2315,
  "ProcedureStepDescription": "dbic^QA",
  "ProtocolName": "func-bold_fa-10",
  "PulseSequenceDetails": "%SiemensSeq%\\ep2d_bold",
  "ReceiveCoilActiveElements": "HEA;HEP",
  "ReceiveCoilName": "Head_32",
  "ReconMatrixPE": 80,
  "RepetitionTime": 2,
  "SAR": 0.0171587,
  "ScanOptions": "FS",
  "ScanningSequence": "EP",
  "SequenceName": "*epfid2d1_80",
  "SequenceVariant": "SK",
  "SeriesDescription": "func-bold_fa-10",
  "SeriesNumber": 8,
  "ShimSetting": [4217, -7739, -7495, -27, -126, -99, -34, 69],
  "SliceThickness": 3.5,
  "SliceTiming": [0.99, 0, 1.0575, 0.0675, 1.1225, 0.1325, 1.19, 0.2, 1.255, 0.265, 1.32, 0.33, 1.3875, 0.3975, 1.4525, 0.4625, 1.52, 0.53, 1.585, 0.595, 1.65, 0.66, 1.7175, 0.7275, 1.7825, 0.7925, 1.85, 0.86, 1.915, 0.925],
  "SoftwareVersions": "syngo MR E11",
  "SpacingBetweenSlices": 3.99,
  "StationName": "AWP66112",
  "TotalReadoutTime": 0.0395,
  "TxRefAmp": 224.94,
  "dcmmeta_affine": [
    [-2.9684925079345703, -0.4208934009075165, -0.138864204287529, 138.3181915283203],
    [-0.4326184391975403, 2.8245151042938232, 1.2152996063232422, -108.8652114868164],
    [0.02989661507308483, -0.9192187786102295, 3.7978761196136475, -28.91998291015625],
    [0.0, 0.0, 0.0, 1.0]
],
  "dcmmeta_reorient_transform": [
    [0.0, -1.0, 0.0, 79.0],
    [1.0, 0.0, 0.0, 0.0],
    [0.0, 0.0, 1.0, 0.0],
    [0.0, 0.0, 0.0, 1.0]
],
  "dcmmeta_shape": [80, 80, 30, 200],
  "dcmmeta_slice_dim": 2,
  "dcmmeta_version": 0.6,
  "global": {
    "const": {
      "AccessionNumber": "qa",
      "AcquisitionMatrix": [80, 0, 0, 80],
      "AngioFlag": "N",
      "BitsAllocated": 16,
      "BitsStored": 12,
      "BodyPartExamined": "BRAIN",
      "Columns": 480,
      "EchoNumbers": 1,
      "EchoTime": 30.0,
      "EchoTrainLength": 80,
      "FlipAngle": 10.0,
      "HighBit": 11,
      "ImageOrientationPatient": [0.9894974862527, 0.14420614667687, 0.00996553863012, -0.1402977965672, 0.94150503866333, 0.30640625067049],
      "ImagePositionPatient": [-614.58743400038, -765.69819083508, -291.36133865655],
      "ImageType": [
        "ORIGINAL",
        "PRIMARY",
        "M",
        "ND",
        "NORM",
        "MOSAIC"
],
      "ImagedNucleus": "1H",
      "ImagingFrequency": 123.259166,
      "InPlanePhaseEncodingDirection": "COL",
      "MRAcquisitionType": "2D",
      "MagneticFieldStrength": 3.0,
      "Manufacturer": "SIEMENS",
      "ManufacturerModelName": "Prisma",
      "Modality": "MR",
      "NumberOfAverages": 1.0,
      "NumberOfPhaseEncodingSteps": 80,
      "PercentPhaseFieldOfView": 100.0,
      "PercentSampling": 100.0,
      "PerformedProcedureStepStartTime": "093549.537000",
      "PhotometricInterpretation": "MONOCHROME2",
      "PixelBandwidth": 2315.0,
      "PixelRepresentation": 0,
      "PixelSpacing": [3.0, 3.0],
      "ProtocolName": "func-bold_fa-10",
      "RepetitionTime": 2000.0,
      "Rows": 480,
      "SAR": 0.01715869615901,
      "SamplesPerPixel": 1,
      "ScanOptions": "FS",
      "ScanningSequence": "EP",
      "SequenceName": "*epfid2d1_80",
      "SequenceVariant": "SK",
      "SeriesDescription": "func-bold_fa-10",
      "SeriesNumber": 8,
      "SeriesTime": "095930.912000",
      "SliceLocation": -65.500203823891,
      "SliceThickness": 3.5,
      "SmallestImagePixelValue": 0,
      "SoftwareVersions": "syngo MR E11",
      "SpacingBetweenSlices": 3.9899999451798,
      "SpecificCharacterSet": "ISO_IR 100",
      "StudyID": "38",
      "StudyTime": "093549.485000",
      "TransmitCoilName": "Body",
      "VariableFlipAngleFlag": "N",
      "WindowCenterWidthExplanation": "Algo1"
    },
    "slices": {}
  },
  "time": {
    "samples": {
      "AcquisitionNumber": [1, 2, 3, 4, 5, 6, 7, 8, 9, 10, 11, 12, 13, 14, 15, 16, 17, 18, 19, 20, 21, 22, 23, 24, 25, 26, 27, 28, 29, 30, 31, 32, 33, 34, 35, 36, 37, 38, 39, 40, 41, 42, 43, 44, 45, 46, 47, 48, 49, 50, 51, 52, 53, 54, 55, 56, 57, 58, 59, 60, 61, 62, 63, 64, 65, 66, 67, 68, 69, 70, 71, 72, 73, 74, 75, 76, 77, 78, 79, 80, 81, 82, 83, 84, 85, 86, 87, 88, 89, 90, 91, 92, 93, 94, 95, 96, 97, 98, 99, 100, 101, 102, 103, 104, 105, 106, 107, 108, 109, 110, 111, 112, 113, 114, 115, 116, 117, 118, 119, 120, 121, 122, 123, 124, 125, 126, 127, 128, 129, 130, 131, 132, 133, 134, 135, 136, 137, 138, 139, 140, 141, 142, 143, 144, 145, 146, 147, 148, 149, 150, 151, 152, 153, 154, 155, 156, 157, 158, 159, 160, 161, 162, 163, 164, 165, 166, 167, 168, 169, 170, 171, 172, 173, 174, 175, 176, 177, 178, 179, 180, 181, 182, 183, 184, 185, 186, 187, 188, 189, 190, 191, 192, 193, 194, 195, 196, 197, 198, 199, 200],
      "AcquisitionTime": ["095907.470000", "095909.470000", "095911.470000", "095913.470000", "095915.470000", "095917.470000", "095919.470000", "095921.470000", "095923.470000", "095925.470000", "095927.470000", "095929.470000", "095931.470000", "095933.470000", "095935.470000", "095937.470000", "095939.470000", "095941.470000", "095943.470000", "095945.470000", "095947.470000", "095949.470000", "095951.470000", "095953.470000", "095955.470000", "095957.470000", "095959.470000", "100001.470000", "100003.470000", "100005.470000", "100007.470000", "100009.470000", "100011.470000", "100013.470000", "100015.470000", "100017.470000", "100019.470000", "100021.470000", "100023.470000", "100025.470000", "100027.470000", "100029.470000", "100031.470000", "100033.470000", "100035.470000", "100037.470000", "100039.470000", "100041.470000", "100043.470000", "100045.470000", "100047.470000", "100049.470000", "100051.470000", "100053.470000", "100055.470000", "100057.470000", "100059.470000", "100101.470000", "100103.470000", "100105.470000", "100107.470000", "100109.470000", "100111.470000", "100113.470000", "100115.470000", "100117.470000", "100119.470000", "100121.470000", "100123.470000", "100125.470000", "100127.470000", "100129.470000", "100131.470000", "100133.470000", "100135.470000", "100137.470000", "100139.470000", "100141.470000", "100143.470000", "100145.470000", "100147.470000", "100149.470000", "100151.470000", "100153.470000", "100155.470000", "100157.470000", "100159.470000", "100201.470000", "100203.470000", "100205.470000", "100207.470000", "100209.470000", "100211.470000", "100213.470000", "100215.470000", "100217.470000", "100219.470000", "100221.470000", "100223.470000", "100225.470000", "100227.470000", "100229.470000", "100231.470000", "100233.470000", "100235.470000", "100237.470000", "100239.470000", "100241.470000", "100243.470000", "100245.470000", "100247.470000", "100249.470000", "100251.470000", "100253.470000", "100255.470000", "100257.470000", "100259.470000", "100301.470000", "100303.470000", "100305.470000", "100307.470000", "100309.470000", "100311.470000", "100313.470000", "100315.470000", "100317.470000", "100319.470000", "100321.470000", "100323.470000", "100325.470000", "100327.470000", "100329.470000", "100331.470000", "100333.470000", "100335.470000", "100337.470000", "100339.470000", "100341.470000", "100343.470000", "100345.470000", "100347.470000", "100349.470000", "100351.470000", "100353.470000", "100355.470000", "100357.470000", "100359.470000", "100401.470000", "100403.470000", "100405.470000", "100407.470000", "100409.470000", "100411.470000", "100413.470000", "100415.470000", "100417.470000", "100419.470000", "100421.470000", "100423.470000", "100425.470000", "100427.470000", "100429.470000", "100431.470000", "100433.470000", "100435.470000", "100437.470000", "100439.470000", "100441.470000", "100443.470000", "100445.470000", "100447.470000", "100449.470000", "100451.470000", "100453.470000", "100455.470000", "100457.470000", "100459.470000", "100501.470000", "100503.470000", "100505.470000", "100507.470000", "100509.470000", "100511.470000", "100513.470000", "100515.470000", "100517.470000", "100519.470000", "100521.470000", "100523.470000", "100525.470000", "100527.470000", "100529.470000", "100531.470000", "100533.470000", "100535.470000", "100537.470000", "100539.470000", "100541.470000", "100543.470000", "100545.470000"],
      "ContentTime": ["095930.915000", "095930.921000", "095930.923000", "095930.926000", "095930.928000", "095930.930000", "095930.933000", "095930.941000", "095930.944000", "095930.946000", "095930.948000", "100010.910000", "100010.913000", "100010.915000", "100010.918000", "100010.920000", "100010.922000", "100010.925000", "100010.927000", "100010.929000", "100010.936000", "100010.938000", "100010.941000", "100010.943000", "100010.945000", "100010.948000", "100010.950000", "100010.953000", "100010.956000", "100010.958000", "100010.960000", "100050.910000", "100050.913000", "100050.915000", "100050.918000", "100050.920000", "100050.923000", "100050.932000", "100050.935000", "100050.937000", "100050.939000", "100050.942000", "100050.944000", "100050.947000", "100050.957000", "100050.959000", "100050.962000", "100050.964000", "100050.966000", "100050.969000", "100050.971000", "100130.911000", "100130.914000", "100130.916000", "100130.918000", "100130.921000", "100130.923000", "100130.925000", "100130.928000", "100130.930000", "100130.932000", "100130.935000", "100130.937000", "100130.939000", "100130.942000", "100130.944000", "100130.946000", "100130.949000", "100130.951000", "100130.954000", "100130.957000", "100210.910000", "100210.913000", "100210.915000", "100210.918000", "100210.920000", "100210.922000", "100210.924000", "100210.927000", "100210.929000", "100210.932000", "100210.934000", "100210.936000", "100210.939000", "100210.941000", "100210.943000", "100210.946000", "100210.948000", "100210.951000", "100210.954000", "100210.956000", "100250.910000", "100250.913000", "100250.915000", "100250.917000", "100250.920000", "100250.922000", "100250.924000", "100250.927000", "100250.929000", "100250.931000", "100250.934000", "100250.936000", "100250.939000", "100250.941000", "100250.943000", "100250.946000", "100250.948000", "100250.951000", "100250.954000", "100250.956000", "100330.910000", "100330.913000", "100330.915000", "100330.917000", "100330.920000", "100330.922000", "100330.924000", "100330.927000", "100330.929000", "100330.931000", "100330.934000", "100330.936000", "100330.938000", "100330.941000", "100330.943000", "100330.945000", "100330.957000", "100330.959000", "100330.961000", "100330.964000", "100410.912000", "100410.914000", "100410.916000", "100410.919000", "100410.921000", "100410.924000", "100410.926000", "100410.928000", "100410.931000", "100410.933000", "100410.935000", "100410.937000", "100410.940000", "100410.942000", "100410.944000", "100410.947000", "100410.949000", "100410.952000", "100410.955000", "100410.957000", "100450.910000", "100450.913000", "100450.915000", "100450.918000", "100450.920000", "100450.922000", "100450.925000", "100450.927000", "100450.929000", "100450.932000", "100450.934000", "100450.936000", "100450.939000", "100450.941000", "100450.943000", "100450.945000", "100450.948000", "100450.951000", "100450.954000", "100450.956000", "100530.910000", "100530.913000", "100530.915000", "100530.918000", "100530.920000", "100530.922000", "100530.924000", "100530.927000", "100530.929000", "100530.931000", "100530.934000", "100530.936000", "100530.938000", "100530.941000", "100530.943000", "100530.945000", "100530.948000", "100530.951000", "100530.954000", "100530.956000", "100547.154000", "100547.156000", "100547.159000", "100547.161000", "100547.164000", "100547.166000", "100547.168000", "100547.171000", "100547.173000"],
      "InstanceCreationTime": ["095930.915000", "095930.921000", "095930.923000", "095930.926000", "095930.928000", "095930.930000", "095930.933000", "095930.941000", "095930.944000", "095930.946000", "095930.948000", "100010.910000", "100010.913000", "100010.915000", "100010.918000", "100010.920000", "100010.922000", "100010.925000", "100010.927000", "100010.929000", "100010.936000", "100010.938000", "100010.941000", "100010.943000", "100010.945000", "100010.948000", "100010.950000", "100010.953000", "100010.956000", "100010.958000", "100010.960000", "100050.910000", "100050.913000", "100050.915000", "100050.918000", "100050.920000", "100050.923000", "100050.932000", "100050.935000", "100050.937000", "100050.939000", "100050.942000", "100050.944000", "100050.947000", "100050.957000", "100050.959000", "100050.962000", "100050.964000", "100050.966000", "100050.969000", "100050.971000", "100130.911000", "100130.914000", "100130.916000", "100130.918000", "100130.921000", "100130.923000", "100130.925000", "100130.928000", "100130.930000", "100130.932000", "100130.935000", "100130.937000", "100130.939000", "100130.942000", "100130.944000", "100130.946000", "100130.949000", "100130.951000", "100130.954000", "100130.957000", "100210.910000", "100210.913000", "100210.915000", "100210.918000", "100210.920000", "100210.922000", "100210.924000", "100210.927000", "100210.929000", "100210.932000", "100210.934000", "100210.936000", "100210.939000", "100210.941000", "100210.943000", "100210.946000", "100210.948000", "100210.951000", "100210.954000", "100210.956000", "100250.910000", "100250.913000", "100250.915000", "100250.917000", "100250.920000", "100250.922000", "100250.924000", "100250.927000", "100250.929000", "100250.931000", "100250.934000", "100250.936000", "100250.939000", "100250.941000", "100250.943000", "100250.946000", "100250.948000", "100250.951000", "100250.954000", "100250.956000", "100330.910000", "100330.913000", "100330.915000", "100330.917000", "100330.920000", "100330.922000", "100330.924000", "100330.927000", "100330.929000", "100330.931000", "100330.934000", "100330.936000", "100330.938000", "100330.941000", "100330.943000", "100330.945000", "100330.957000", "100330.959000", "100330.961000", "100330.964000", "100410.912000", "100410.914000", "100410.916000", "100410.919000", "100410.921000", "100410.924000", "100410.926000", "100410.928000", "100410.931000", "100410.933000", "100410.935000", "100410.937000", "100410.940000", "100410.942000", "100410.944000", "100410.947000", "100410.949000", "100410.952000", "100410.955000", "100410.957000", "100450.910000", "100450.913000", "100450.915000", "100450.918000", "100450.920000", "100450.922000", "100450.925000", "100450.927000", "100450.929000", "100450.932000", "100450.934000", "100450.936000", "100450.939000", "100450.941000", "100450.943000", "100450.945000", "100450.948000", "100450.951000", "100450.954000", "100450.956000", "100530.910000", "100530.913000", "100530.915000", "100530.918000", "100530.920000", "100530.922000", "100530.924000", "100530.927000", "100530.929000", "100530.931000", "100530.934000", "100530.936000", "100530.938000", "100530.941000", "100530.943000", "100530.945000", "100530.948000", "100530.951000", "100530.954000", "100530.956000", "100547.154000", "100547.156000", "100547.159000", "100547.161000", "100547.164000", "100547.166000", "100547.168000", "100547.171000", "100547.173000"],
      "InstanceNumber": [1, 2, 3, 4, 5, 6, 7, 8, 9, 10, 11, 12, 13, 14, 15, 16, 17, 18, 19, 20, 21, 22, 23, 24, 25, 26, 27, 28, 29, 30, 31, 32, 33, 34, 35, 36, 37, 38, 39, 40, 41, 42, 43, 44, 45, 46, 47, 48, 49, 50, 51, 52, 53, 54, 55, 56, 57, 58, 59, 60, 61, 62, 63, 64, 65, 66, 67, 68, 69, 70, 71, 72, 73, 74, 75, 76, 77, 78, 79, 80, 81, 82, 83, 84, 85, 86, 87, 88, 89, 90, 91, 92, 93, 94, 95, 96, 97, 98, 99, 100, 101, 102, 103, 104, 105, 106, 107, 108, 109, 110, 111, 112, 113, 114, 115, 116, 117, 118, 119, 120, 121, 122, 123, 124, 125, 126, 127, 128, 129, 130, 131, 132, 133, 134, 135, 136, 137, 138, 139, 140, 141, 142, 143, 144, 145, 146, 147, 148, 149, 150, 151, 152, 153, 154, 155, 156, 157, 158, 159, 160, 161, 162, 163, 164, 165, 166, 167, 168, 169, 170, 171, 172, 173, 174, 175, 176, 177, 178, 179, 180, 181, 182, 183, 184, 185, 186, 187, 188, 189, 190, 191, 192, 193, 194, 195, 196, 197, 198, 199, 200],
      "LargestImagePixelValue": [345, 345, 346, 347, 347, 345, 344, 346, 347, 346, 345, 345, 345, 346, 346, 346, 345, 346, 345, 346, 346, 345, 345, 348, 347, 345, 347, 345, 347, 345, 347, 343, 344, 346, 346, 345, 343, 347, 346, 346, 345, 345, 347, 347, 345, 345, 346, 346, 345, 346, 345, 345, 346, 347, 346, 345, 346, 345, 348, 345, 344, 347, 346, 347, 344, 345, 345, 345, 346, 346, 345, 345, 347, 345, 346, 347, 346, 345, 346, 345, 345, 346, 345, 346, 343, 346, 347, 346, 343, 344, 345, 346, 348, 347, 344, 344, 346, 347, 346, 344, 346, 347, 346, 345, 345, 346, 346, 344, 345, 346, 346, 346, 344, 346, 344, 346, 345, 346, 345, 345, 345, 347, 345, 344, 344, 345, 346, 344, 345, 344, 343, 346, 344, 343, 346, 345, 345, 343, 344, 344, 344, 344, 345, 344, 345, 348, 345, 345, 344, 345, 345, 345, 343, 345, 345, 344, 344, 344, 346, 347, 345, 345, 345, 344, 345, 345, 345, 345, 345, 346, 346, 344, 345, 344, 345, 345, 345, 344, 345, 344, 344, 344, 345, 345, 346, 345, 345, 344, 345, 345, 343, 343, 344, 345, 347, 345, 345, 343, 346, 345],
      "WindowCenter": [287.0, 287.0, 287.0, 287.0, 287.0, 287.0, 287.0, 287.0, 287.0, 287.0, 287.0, 287.0, 287.0, 287.0, 287.0, 287.0, 287.0, 287.0, 287.0, 287.0, 287.0, 287.0, 287.0, 287.0, 287.0, 287.0, 287.0, 287.0, 287.0, 287.0, 287.0, 287.0, 287.0, 287.0, 287.0, 287.0, 287.0, 287.0, 287.0, 287.0, 287.0, 287.0, 287.0, 287.0, 287.0, 287.0, 287.0, 287.0, 287.0, 287.0, 287.0, 287.0, 287.0, 287.0, 287.0, 287.0, 287.0, 287.0, 287.0, 287.0, 287.0, 287.0, 287.0, 287.0, 287.0, 287.0, 287.0, 287.0, 287.0, 287.0, 287.0, 287.0, 287.0, 287.0, 287.0, 287.0, 287.0, 287.0, 287.0, 287.0, 287.0, 287.0, 287.0, 287.0, 287.0, 287.0, 287.0, 287.0, 287.0, 287.0, 287.0, 287.0, 287.0, 287.0, 287.0, 287.0, 287.0, 287.0, 287.0, 286.0, 287.0, 287.0, 287.0, 287.0, 286.0, 287.0, 287.0, 287.0, 287.0, 287.0, 287.0, 287.0, 287.0, 286.0, 286.0, 287.0, 286.0, 287.0, 286.0, 287.0, 287.0, 287.0, 286.0, 286.0, 287.0, 287.0, 287.0, 286.0, 286.0, 287.0, 287.0, 287.0, 286.0, 286.0, 287.0, 287.0, 287.0, 286.0, 286.0, 286.0, 287.0, 286.0, 287.0, 286.0, 287.0, 287.0, 287.0, 286.0, 286.0, 287.0, 287.0, 286.0, 286.0, 286.0, 287.0, 287.0, 287.0, 286.0, 286.0, 286.0, 287.0, 286.0, 286.0, 286.0, 286.0, 287.0, 286.0, 286.0, 286.0, 287.0, 287.0, 286.0, 287.0, 286.0, 286.0, 286.0, 286.0, 286.0, 286.0, 287.0, 286.0, 286.0, 286.0, 286.0, 286.0, 286.0, 286.0, 286.0, 286.0, 287.0, 286.0, 286.0, 286.0, 286.0, 286.0, 287.0, 286.0, 286.0, 287.0, 286.0],
      "WindowWidth": [627.0, 626.0, 626.0, 626.0, 627.0, 627.0, 627.0, 627.0, 627.0, 627.0, 627.0, 627.0, 627.0, 627.0, 627.0, 627.0, 627.0, 627.0, 627.0, 627.0, 627.0, 627.0, 626.0, 627.0, 627.0, 627.0, 627.0, 626.0, 627.0, 627.0, 627.0, 626.0, 627.0, 627.0, 627.0, 627.0, 627.0, 626.0, 627.0, 626.0, 626.0, 627.0, 627.0, 627.0, 626.0, 626.0, 627.0, 627.0, 627.0, 626.0, 626.0, 627.0, 627.0, 627.0, 626.0, 626.0, 626.0, 627.0, 627.0, 626.0, 626.0, 627.0, 627.0, 627.0, 626.0, 626.0, 627.0, 627.0, 627.0, 626.0, 626.0, 626.0, 627.0, 626.0, 626.0, 626.0, 626.0, 627.0, 626.0, 626.0, 626.0, 627.0, 626.0, 626.0, 626.0, 626.0, 626.0, 627.0, 627.0, 626.0, 626.0, 626.0, 626.0, 626.0, 626.0, 626.0, 626.0, 626.0, 626.0, 625.0, 626.0, 627.0, 626.0, 626.0, 626.0, 626.0, 627.0, 626.0, 626.0, 626.0, 626.0, 626.0, 626.0, 625.0, 625.0, 626.0, 626.0, 626.0, 625.0, 626.0, 626.0, 626.0, 626.0, 625.0, 626.0, 626.0, 626.0, 625.0, 625.0, 626.0, 626.0, 626.0, 625.0, 625.0, 626.0, 626.0, 626.0, 625.0, 625.0, 625.0, 626.0, 625.0, 626.0, 625.0, 626.0, 626.0, 626.0, 625.0, 625.0, 626.0, 626.0, 625.0, 625.0, 625.0, 626.0, 626.0, 626.0, 625.0, 625.0, 625.0, 626.0, 625.0, 625.0, 625.0, 625.0, 626.0, 625.0, 625.0, 625.0, 626.0, 626.0, 625.0, 626.0, 625.0, 625.0, 625.0, 625.0, 625.0, 625.0, 626.0, 625.0, 625.0, 625.0, 625.0, 625.0, 625.0, 625.0, 625.0, 625.0, 626.0, 625.0, 625.0, 625.0, 625.0, 625.0, 626.0, 625.0, 625.0, 626.0, 625.0]
    },
    "slices": {}
  }
}