{
  "AcquisitionMatrixPE": 80,
  "AcquisitionNumber": 1,
  "AcquisitionTime": "09:45:32.095000",
  "BandwidthPerPixelPhaseEncode": 46.296,
  "BaseResolution": 80,
  "BodyPartExamined": "BRAIN",
  "CoilCombinationMethod": "Sum of Squares",
  "ConsistencyInfo": "N4_VE11E_LATEST_20181129",
  "ConversionSoftware": "dcm2niix",
  "ConversionSoftwareVersion": "v1.0.20220720",
  "DerivedVendorReportedEchoSpacing": 0.000540003,
  "DeviceSerialNumber": "66112",
  "DwellTime": 2.7e-06,
  "EchoTime": 0.035,
  "EchoTrainLength": 39,
  "EffectiveEchoSpacing": 0.000270002,
  "FlipAngle": 90,
  "HeudiconvVersion": "0.13.1",
  "ImageOrientationPatientDICOM": [0.989497, 0.144206, 0.00996554, -0.140298, 0.941505, 0.306406],
  "ImageOrientationText": "Tra>Cor(17.7)>Sag(-2.0)",
  "ImageType": [
    "ORIGINAL",
    "PRIMARY",
    "M",
    "ND",
    "NORM",
    "MOSAIC"
],
  "ImagingFrequency": 123.259,
  "InPlanePhaseEncodingDirectionDICOM": "COL",
  "InstitutionAddress": "Maynard 3,Hanover,NH,US,03755",
  "InstitutionName": "Dartmouth College - PBS",
  "InstitutionalDepartmentName": "Department",
  "MRAcquisitionType": "2D",
  "MagneticFieldStrength": 3,
  "Manufacturer": "Siemens",
  "ManufacturersModelName": "Prisma",
  "Modality": "MR",
  "MultibandAccelerationFactor": 4,
  "NonlinearGradientCorrection": false,
  "ParallelReductionFactorInPlane": 2,
  "PartialFourier": 1,
  "PatientPosition": "HFS",
  "PercentPhaseFOV": 100,
  "PercentSampling": 100,
  "PhaseEncodingDirection": "j-",
  "PhaseEncodingSteps": 79,
  "PhaseResolution": 1,
  "PixelBandwidth": 2315,
  "ProcedureStepDescription": "dbic^QA",
  "ProtocolName": "func-bold_task-rest_acq-p2-s4-3.5mm",
  "PulseSequenceDetails": "%SiemensSeq%\\ep2d_bold",
  "ReceiveCoilActiveElements": "HEA;HEP",
  "ReceiveCoilName": "Head_32",
  "ReconMatrixPE": 80,
  "RefLinesPE": 24,
  "RepetitionTime": 2,
  "SAR": 0.0306095,
  "ScanOptions": "FS",
  "ScanningSequence": "EP",
  "SequenceName": "*epfid2d1_80",
  "SequenceVariant": "SK",
  "SeriesDescription": "func-bold_task-rest_acq-p2-s4-3.5mm",
  "SeriesNumber": 6,
  "ShimSetting": [4217, -7739, -7495, -29, -127, -101, -34, 69],
  "SliceThickness": 3.5,
  "SliceTiming": [1.485, 0, 0.99, 0.2475, 1.2375, 0.7425, 1.7325, 0.495, 1.485, 0, 0.99, 0.2475, 1.2375, 0.7425, 1.7325, 0.495, 1.485, 0, 0.99, 0.2475, 1.2375, 0.7425, 1.7325, 0.495, 1.485, 0, 0.99, 0.2475, 1.2375, 0.7425, 1.7325, 0.495],
  "SoftwareVersions": "syngo MR E11",
  "SpacingBetweenSlices": 3.99,
  "StationName": "AWP66112",
  "TaskName": "rest",
  "TotalReadoutTime": 0.0213301,
  "TxRefAmp": 224.94,
  "dcmmeta_affine": [
    [-2.9684925079345703, -0.4208934009075165, -0.138864204287529, 138.61358642578125],
    [-0.4326184391975403, 2.8245151042938232, 1.2152996063232422, -111.2676010131836],
    [0.02989661507308483, -0.9192187786102295, 3.7978761196136475, -34.351993560791016],
    [0.0, 0.0, 0.0, 1.0]
],
  "dcmmeta_reorient_transform": [
    [0.0, -1.0, 0.0, 79.0],
    [1.0, 0.0, 0.0, 0.0],
    [0.0, 0.0, 1.0, 0.0],
    [0.0, 0.0, 0.0, 1.0]
],
  "dcmmeta_shape": [80, 80, 32, 200],
  "dcmmeta_slice_dim": 2,
  "dcmmeta_version": 0.6,
  "global": {
    "const": {
      "AccessionNumber": "qa",
      "AcquisitionMatrix": [80, 0, 0, 80],
      "AngioFlag": "N",
      "BitsAllocated": 16,
      "BitsStored": 12,
      "BodyPartExamined": "BRAIN",
      "Columns": 480,
      "EchoNumbers": 1,
      "EchoTime": 35.0,
      "EchoTrainLength": 39,
      "FlipAngle": 90.0,
      "HighBit": 11,
      "ImageOrientationPatient": [0.9894974862527, 0.14420614667687, 0.00996553863012, -0.1402977965672, 0.94150503866333, 0.30640625067049],
      "ImagePositionPatient": [-614.88282460631, -763.29580130871, -296.79334930718],
      "ImageType": [
        "ORIGINAL",
        "PRIMARY",
        "M",
        "ND",
        "NORM",
        "MOSAIC"
],
      "ImagedNucleus": "1H",
      "ImagingFrequency": 123.259166,
      "InPlanePhaseEncodingDirection": "COL",
      "MRAcquisitionType": "2D",
      "MagneticFieldStrength": 3.0,
      "Manufacturer": "SIEMENS",
      "ManufacturerModelName": "Prisma",
      "Modality": "MR",
      "NumberOfAverages": 1.0,
      "NumberOfPhaseEncodingSteps": 79,
      "PercentPhaseFieldOfView": 100.0,
      "PercentSampling": 100.0,
      "PerformedProcedureStepStartTime": "093549.537000",
      "PhotometricInterpretation": "MONOCHROME2",
      "PixelBandwidth": 2315.0,
      "PixelRepresentation": 0,
      "PixelSpacing": [3.0, 3.0],
      "ProtocolName": "func-bold_task-rest_acq-p2-s4-3.5mm",
      "RepetitionTime": 2000.0,
      "Rows": 480,
      "SAR": 0.03060946953776,
      "SamplesPerPixel": 1,
      "ScanOptions": "FS",
      "ScanningSequence": "EP",
      "SequenceName": "*epfid2d1_80",
      "SequenceVariant": "SK",
      "SeriesDescription": "func-bold_task-rest_acq-p2-s4-3.5mm",
      "SeriesNumber": 6,
      "SeriesTime": "094630.739000",
      "SliceLocation": -71.41267153022,
      "SliceThickness": 3.5,
      "SmallestImagePixelValue": 0,
      "SoftwareVersions": "syngo MR E11",
      "SpacingBetweenSlices": 3.9899999585707,
      "SpecificCharacterSet": "ISO_IR 100",
      "StudyID": "38",
      "StudyTime": "093549.485000",
      "TransmitCoilName": "Body",
      "VariableFlipAngleFlag": "N",
      "WindowCenterWidthExplanation": "Algo1"
    },
    "slices": {}
  },
  "time": {
    "samples": {
      "AcquisitionNumber": [1, 2, 3, 4, 5, 6, 7, 8, 9, 10, 11, 12, 13, 14, 15, 16, 17, 18, 19, 20, 21, 22, 23, 24, 25, 26, 27, 28, 29, 30, 31, 32, 33, 34, 35, 36, 37, 38, 39, 40, 41, 42, 43, 44, 45, 46, 47, 48, 49, 50, 51, 52, 53, 54, 55, 56, 57, 58, 59, 60, 61, 62, 63, 64, 65, 66, 67, 68, 69, 70, 71, 72, 73, 74, 75, 76, 77, 78, 79, 80, 81, 82, 83, 84, 85, 86, 87, 88, 89, 90, 91, 92, 93, 94, 95, 96, 97, 98, 99, 100, 101, 102, 103, 104, 105, 106, 107, 108, 109, 110, 111, 112, 113, 114, 115, 116, 117, 118, 119, 120, 121, 122, 123, 124, 125, 126, 127, 128, 129, 130, 131, 132, 133, 134, 135, 136, 137, 138, 139, 140, 141, 142, 143, 144, 145, 146, 147, 148, 149, 150, 151, 152, 153, 154, 155, 156, 157, 158, 159, 160, 161, 162, 163, 164, 165, 166, 167, 168, 169, 170, 171, 172, 173, 174, 175, 176, 177, 178, 179, 180, 181, 182, 183, 184, 185, 186, 187, 188, 189, 190, 191, 192, 193, 194, 195, 196, 197, 198, 199, 200],
      "AcquisitionTime": ["094532.095000", "094534.095000", "094536.095000", "094538.095000", "094540.095000", "094542.095000", "094544.095000", "094546.095000", "094548.095000", "094550.095000", "094552.095000", "094554.095000", "094556.095000", "094558.095000", "094600.095000", "094602.095000", "094604.095000", "094606.095000", "094608.095000", "094610.095000", "094612.095000", "094614.095000", "094616.095000", "094618.095000", "094620.095000", "094622.095000", "094624.095000", "094626.095000", "094628.095000", "094630.095000", "094632.095000", "094634.095000", "094636.095000", "094638.095000", "094640.095000", "094642.095000", "094644.095000", "094646.095000", "094648.095000", "094650.095000", "094652.095000", "094654.095000", "094656.095000", "094658.095000", "094700.095000", "094702.095000", "094704.095000", "094706.095000", "094708.095000", "094710.095000", "094712.095000", "094714.095000", "094716.095000", "094718.095000", "094720.095000", "094722.095000", "094724.095000", "094726.095000", "094728.095000", "094730.095000", "094732.095000", "094734.095000", "094736.095000", "094738.095000", "094740.095000", "094742.095000", "094744.095000", "094746.095000", "094748.095000", "094750.095000", "094752.095000", "094754.095000", "094756.095000", "094758.095000", "094800.095000", "094802.095000", "094804.095000", "094806.095000", "094808.095000", "094810.095000", "094812.095000", "094814.095000", "094816.095000", "094818.095000", "094820.095000", "094822.095000", "094824.095000", "094826.095000", "094828.095000", "094830.095000", "094832.095000", "094834.095000", "094836.095000", "094838.095000", "094840.095000", "094842.095000", "094844.095000", "094846.095000", "094848.095000", "094850.095000", "094852.095000", "094854.095000", "094856.095000", "094858.095000", "094900.095000", "094902.095000", "094904.095000", "094906.095000", "094908.095000", "094910.095000", "094912.095000", "094914.095000", "094916.095000", "094918.095000", "094920.095000", "094922.095000", "094924.095000", "094926.095000", "094928.095000", "094930.095000", "094932.095000", "094934.095000", "094936.095000", "094938.095000", "094940.095000", "094942.095000", "094944.095000", "094946.095000", "094948.095000", "094950.095000", "094952.095000", "094954.095000", "094956.095000", "094958.095000", "095000.095000", "095002.095000", "095004.095000", "095006.095000", "095008.095000", "095010.095000", "095012.095000", "095014.095000", "095016.095000", "095018.095000", "095020.095000", "095022.095000", "095024.095000", "095026.095000", "095028.095000", "095030.095000", "095032.095000", "095034.095000", "095036.095000", "095038.095000", "095040.095000", "095042.095000", "095044.095000", "095046.095000", "095048.095000", "095050.095000", "095052.095000", "095054.095000", "095056.095000", "095058.095000", "095100.095000", "095102.095000", "095104.095000", "095106.095000", "095108.095000", "095110.095000", "095112.095000", "095114.095000", "095116.095000", "095118.095000", "095120.095000", "095122.095000", "095124.095000", "095126.095000", "095128.095000", "095130.095000", "095132.095000", "095134.095000", "095136.095000", "095138.095000", "095140.095000", "095142.095000", "095144.095000", "095146.095000", "095148.095000", "095150.095000", "095152.095000", "095154.095000", "095156.095000", "095158.095000", "095200.095000", "095202.095000", "095204.095000", "095206.095000", "095208.095000", "095210.095000"],
      "ContentTime": ["094630.742000", "094630.746000", "094630.748000", "094630.750000", "094630.753000", "094630.755000", "094630.764000", "094630.773000", "094630.775000", "094630.777000", "094630.779000", "094630.782000", "094630.784000", "094630.787000", "094630.789000", "094630.792000", "094630.794000", "094630.802000", "094630.805000", "094630.807000", "094630.810000", "094630.841000", "094630.844000", "094630.846000", "094630.848000", "094630.851000", "094630.853000", "094630.856000", "094630.858000", "094710.737000", "094710.740000", "094710.742000", "094710.745000", "094710.747000", "094710.750000", "094710.752000", "094710.754000", "094710.757000", "094710.759000", "094710.761000", "094710.764000", "094710.766000", "094710.769000", "094710.771000", "094710.773000", "094710.776000", "094710.778000", "094710.780000", "094710.783000", "094750.738000", "094750.741000", "094750.743000", "094750.746000", "094750.748000", "094750.751000", "094750.753000", "094750.755000", "094750.758000", "094750.760000", "094750.762000", "094750.765000", "094750.767000", "094750.770000", "094750.772000", "094750.774000", "094750.777000", "094750.779000", "094750.781000", "094750.784000", "094830.737000", "094830.740000", "094830.742000", "094830.745000", "094830.747000", "094830.749000", "094830.752000", "094830.754000", "094830.756000", "094830.767000", "094830.770000", "094830.772000", "094830.774000", "094830.777000", "094830.779000", "094830.782000", "094830.784000", "094830.787000", "094830.789000", "094830.791000", "094910.737000", "094910.740000", "094910.742000", "094910.745000", "094910.747000", "094910.749000", "094910.752000", "094910.754000", "094910.756000", "094910.759000", "094910.761000", "094910.764000", "094910.766000", "094910.768000", "094910.771000", "094910.773000", "094910.775000", "094910.778000", "094910.780000", "094910.782000", "094950.738000", "094950.741000", "094950.743000", "094950.746000", "094950.748000", "094950.751000", "094950.753000", "094950.755000", "094950.758000", "094950.760000", "094950.762000", "094950.765000", "094950.767000", "094950.770000", "094950.772000", "094950.774000", "094950.777000", "094950.779000", "094950.782000", "094950.784000", "095030.737000", "095030.740000", "095030.742000", "095030.745000", "095030.747000", "095030.750000", "095030.752000", "095030.754000", "095030.757000", "095030.759000", "095030.761000", "095030.764000", "095030.766000", "095030.769000", "095030.771000", "095030.773000", "095030.776000", "095030.778000", "095030.780000", "095030.783000", "095110.737000", "095110.740000", "095110.742000", "095110.745000", "095110.747000", "095110.749000", "095110.752000", "095110.754000", "095110.756000", "095110.759000", "095110.761000", "095110.764000", "095110.766000", "095110.768000", "095110.771000", "095110.773000", "095110.775000", "095110.778000", "095110.780000", "095110.783000", "095150.737000", "095150.740000", "095150.742000", "095150.745000", "095150.747000", "095150.749000", "095150.752000", "095150.754000", "095150.756000", "095150.759000", "095150.761000", "095150.763000", "095150.766000", "095150.768000", "095150.771000", "095150.773000", "095150.776000", "095150.778000", "095150.780000", "095150.783000", "095211.093000", "095211.096000", "095211.099000", "095211.103000", "095211.106000", "095211.109000", "095211.112000", "095211.115000", "095211.117000", "095211.120000", "095211.122000"],
      "InstanceCreationTime": ["094630.742000", "094630.746000", "094630.748000", "094630.750000", "094630.753000", "094630.755000", "094630.764000", "094630.773000", "094630.775000", "094630.777000", "094630.779000", "094630.782000", "094630.784000", "094630.787000", "094630.789000", "094630.792000", "094630.794000", "094630.802000", "094630.805000", "094630.807000", "094630.810000", "094630.841000", "094630.844000", "094630.846000", "094630.848000", "094630.851000", "094630.853000", "094630.856000", "094630.858000", "094710.737000", "094710.740000", "094710.742000", "094710.745000", "094710.747000", "094710.750000", "094710.752000", "094710.754000", "094710.757000", "094710.759000", "094710.761000", "094710.764000", "094710.766000", "094710.769000", "094710.771000", "094710.773000", "094710.776000", "094710.778000", "094710.780000", "094710.783000", "094750.738000", "094750.741000", "094750.743000", "094750.746000", "094750.748000", "094750.751000", "094750.753000", "094750.755000", "094750.758000", "094750.760000", "094750.762000", "094750.765000", "094750.767000", "094750.770000", "094750.772000", "094750.774000", "094750.777000", "094750.779000", "094750.781000", "094750.784000", "094830.737000", "094830.740000", "094830.742000", "094830.745000", "094830.747000", "094830.749000", "094830.752000", "094830.754000", "094830.756000", "094830.767000", "094830.770000", "094830.772000", "094830.774000", "094830.777000", "094830.779000", "094830.782000", "094830.784000", "094830.787000", "094830.789000", "094830.791000", "094910.737000", "094910.740000", "094910.742000", "094910.745000", "094910.747000", "094910.749000", "094910.752000", "094910.754000", "094910.756000", "094910.759000", "094910.761000", "094910.764000", "094910.766000", "094910.768000", "094910.771000", "094910.773000", "094910.775000", "094910.778000", "094910.780000", "094910.782000", "094950.738000", "094950.741000", "094950.743000", "094950.746000", "094950.748000", "094950.751000", "094950.753000", "094950.755000", "094950.758000", "094950.760000", "094950.762000", "094950.765000", "094950.767000", "094950.770000", "094950.772000", "094950.774000", "094950.777000", "094950.779000", "094950.782000", "094950.784000", "095030.737000", "095030.740000", "095030.742000", "095030.745000", "095030.747000", "095030.750000", "095030.752000", "095030.754000", "095030.757000", "095030.759000", "095030.761000", "095030.764000", "095030.766000", "095030.769000", "095030.771000", "095030.773000", "095030.776000", "095030.778000", "095030.780000", "095030.783000", "095110.737000", "095110.740000", "095110.742000", "095110.745000", "095110.747000", "095110.749000", "095110.752000", "095110.754000", "095110.756000", "095110.759000", "095110.761000", "095110.764000", "095110.766000", "095110.768000", "095110.771000", "095110.773000", "095110.775000", "095110.778000", "095110.780000", "095110.783000", "095150.737000", "095150.740000", "095150.742000", "095150.745000", "095150.747000", "095150.749000", "095150.752000", "095150.754000", "095150.756000", "095150.759000", "095150.761000", "095150.763000", "095150.766000", "095150.768000", "095150.771000", "095150.773000", "095150.776000", "095150.778000", "095150.780000", "095150.783000", "095211.093000", "095211.096000", "095211.099000", "095211.103000", "095211.106000", "095211.109000", "095211.112000", "095211.115000", "095211.117000", "095211.120000", "095211.122000"],
      "InstanceNumber": [1, 2, 3, 4, 5, 6, 7, 8, 9, 10, 11, 12, 13, 14, 15, 16, 17, 18, 19, 20, 21, 22, 23, 24, 25, 26, 27, 28, 29, 30, 31, 32, 33, 34, 35, 36, 37, 38, 39, 40, 41, 42, 43, 44, 45, 46, 47, 48, 49, 50, 51, 52, 53, 54, 55, 56, 57, 58, 59, 60, 61, 62, 63, 64, 65, 66, 67, 68, 69, 70, 71, 72, 73, 74, 75, 76, 77, 78, 79, 80, 81, 82, 83, 84, 85, 86, 87, 88, 89, 90, 91, 92, 93, 94, 95, 96, 97, 98, 99, 100, 101, 102, 103, 104, 105, 106, 107, 108, 109, 110, 111, 112, 113, 114, 115, 116, 117, 118, 119, 120, 121, 122, 123, 124, 125, 126, 127, 128, 129, 130, 131, 132, 133, 134, 135, 136, 137, 138, 139, 140, 141, 142, 143, 144, 145, 146, 147, 148, 149, 150, 151, 152, 153, 154, 155, 156, 157, 158, 159, 160, 161, 162, 163, 164, 165, 166, 167, 168, 169, 170, 171, 172, 173, 174, 175, 176, 177, 178, 179, 180, 181, 182, 183, 184, 185, 186, 187, 188, 189, 190, 191, 192, 193, 194, 195, 196, 197, 198, 199, 200],
      "LargestImagePixelValue": [2145, 2148, 2146, 2144, 2150, 2146, 2148, 2150, 2147, 2147, 2151, 2152, 2144, 2145, 2151, 2149, 2142, 2146, 2148, 2144, 2152, 2142, 2145, 2147, 2147, 2147, 2148, 2144, 2147, 2144, 2150, 2146, 2146, 2151, 2149, 2146, 2151, 2149, 2150, 2152, 2146, 2150, 2145, 2151, 2154, 2145, 2153, 2150, 2146, 2152, 2147, 2148, 2152, 2149, 2150, 2151, 2147, 2150, 2148, 2145, 2146, 2148, 2149, 2147, 2149, 2152, 2147, 2155, 2150, 2145, 2149, 2149, 2154, 2156, 2147, 2150, 2152, 2150, 2153, 2150, 2147, 2152, 2149, 2149, 2150, 2150, 2152, 2151, 2153, 2158, 2149, 2155, 2148, 2149, 2153, 2149, 2155, 2147, 2151, 2152, 2149, 2147, 2155, 2151, 2155, 2149, 2154, 2151, 2149, 2153, 2151, 2149, 2149, 2151, 2148, 2155, 2152, 2154, 2150, 2152, 2154, 2155, 2153, 2150, 2147, 2148, 2153, 2147, 2152, 2149, 2150, 2148, 2150, 2153, 2152, 2155, 2150, 2154, 2154, 2151, 2151, 2155, 2155, 2150, 2158, 2151, 2155, 2158, 2152, 2155, 2150, 2151, 2153, 2150, 2154, 2149, 2150, 2152, 2150, 2153, 2149, 2144, 2153, 2153, 2150, 2154, 2152, 2155, 2155, 2150, 2152, 2151, 2145, 2152, 2150, 2152, 2155, 2149, 2153, 2149, 2149, 2155, 2152, 2153, 2152, 2153, 2150, 2148, 2151, 2150, 2149, 2153, 2152, 2150, 2153, 2149, 2149, 2152, 2147, 2157],
      "WindowCenter": [945.0, 945.0, 945.0, 945.0, 945.0, 945.0, 947.0, 945.0, 946.0, 945.0, 945.0, 945.0, 945.0, 945.0, 945.0, 946.0, 945.0, 945.0, 945.0, 945.0, 946.0, 945.0, 945.0, 946.0, 947.0, 945.0, 945.0, 945.0, 946.0, 945.0, 946.0, 946.0, 945.0, 945.0, 945.0, 945.0, 945.0, 945.0, 945.0, 945.0, 946.0, 945.0, 945.0, 946.0, 945.0, 945.0, 945.0, 945.0, 945.0, 946.0, 945.0, 945.0, 946.0, 946.0, 945.0, 944.0, 945.0, 945.0, 945.0, 946.0, 945.0, 945.0, 945.0, 945.0, 945.0, 945.0, 944.0, 946.0, 945.0, 945.0, 945.0, 945.0, 945.0, 945.0, 946.0, 947.0, 946.0, 946.0, 945.0, 945.0, 945.0, 945.0, 947.0, 945.0, 945.0, 945.0, 945.0, 945.0, 945.0, 944.0, 945.0, 946.0, 945.0, 945.0, 945.0, 945.0, 945.0, 945.0, 944.0, 945.0, 945.0, 945.0, 945.0, 945.0, 945.0, 945.0, 945.0, 945.0, 946.0, 947.0, 945.0, 946.0, 945.0, 945.0, 944.0, 944.0, 944.0, 944.0, 945.0, 945.0, 946.0, 944.0, 944.0, 945.0, 945.0, 945.0, 944.0, 945.0, 944.0, 944.0, 946.0, 945.0, 945.0, 946.0, 946.0, 944.0, 944.0, 945.0, 944.0, 945.0, 944.0, 945.0, 946.0, 945.0, 944.0, 945.0, 945.0, 945.0, 947.0, 945.0, 945.0, 944.0, 945.0, 945.0, 947.0, 945.0, 945.0, 945.0, 944.0, 944.0, 944.0, 944.0, 944.0, 946.0, 944.0, 944.0, 944.0, 945.0, 944.0, 944.0, 945.0, 945.0, 945.0, 944.0, 945.0, 944.0, 944.0, 947.0, 947.0, 944.0, 945.0, 946.0, 945.0, 944.0, 944.0, 945.0, 946.0, 944.0, 944.0, 945.0, 944.0, 945.0, 946.0, 944.0, 944.0, 945.0, 945.0, 944.0, 946.0, 945.0],
      "WindowWidth": [2201.0, 2201.0, 2201.0, 2202.0, 2202.0, 2200.0, 2203.0, 2201.0, 2202.0, 2202.0, 2202.0, 2201.0, 2202.0, 2201.0, 2202.0, 2203.0, 2202.0, 2202.0, 2201.0, 2202.0, 2202.0, 2202.0, 2201.0, 2202.0, 2203.0, 2202.0, 2201.0, 2201.0, 2203.0, 2202.0, 2203.0, 2203.0, 2201.0, 2201.0, 2201.0, 2201.0, 2201.0, 2202.0, 2202.0, 2201.0, 2202.0, 2201.0, 2202.0, 2202.0, 2201.0, 2201.0, 2202.0, 2202.0, 2202.0, 2202.0, 2201.0, 2202.0, 2202.0, 2202.0, 2202.0, 2201.0, 2201.0, 2201.0, 2202.0, 2203.0, 2201.0, 2201.0, 2201.0, 2201.0, 2201.0, 2201.0, 2201.0, 2203.0, 2201.0, 2202.0, 2201.0, 2201.0, 2202.0, 2202.0, 2202.0, 2203.0, 2202.0, 2202.0, 2201.0, 2202.0, 2202.0, 2201.0, 2203.0, 2201.0, 2202.0, 2202.0, 2201.0, 2202.0, 2201.0, 2201.0, 2201.0, 2202.0, 2201.0, 2201.0, 2201.0, 2201.0, 2202.0, 2201.0, 2201.0, 2202.0, 2202.0, 2201.0, 2201.0, 2201.0, 2202.0, 2200.0, 2201.0, 2202.0, 2202.0, 2203.0, 2201.0, 2202.0, 2201.0, 2200.0, 2201.0, 2201.0, 2201.0, 2200.0, 2201.0, 2201.0, 2202.0, 2201.0, 2201.0, 2201.0, 2201.0, 2201.0, 2201.0, 2201.0, 2201.0, 2201.0, 2202.0, 2201.0, 2201.0, 2202.0, 2202.0, 2200.0, 2201.0, 2201.0, 2200.0, 2201.0, 2200.0, 2201.0, 2202.0, 2200.0, 2201.0, 2201.0, 2202.0, 2201.0, 2202.0, 2200.0, 2201.0, 2200.0, 2201.0, 2201.0, 2202.0, 2201.0, 2201.0, 2201.0, 2200.0, 2200.0, 2200.0, 2200.0, 2200.0, 2201.0, 2200.0, 2200.0, 2200.0, 2201.0, 2200.0, 2200.0, 2201.0, 2201.0, 2201.0, 2200.0, 2201.0, 2200.0, 2200.0, 2202.0, 2202.0, 2200.0, 2201.0, 2202.0, 2201.0, 2200.0, 2200.0, 2201.0, 2202.0, 2200.0, 2200.0, 2201.0, 2200.0, 2201.0, 2202.0, 2200.0, 2200.0, 2200.0, 2201.0, 2200.0, 2201.0, 2201.0]
    },
    "slices": {}
  }
}