{
  "AcquisitionMatrixPE": 80,
  "AcquisitionNumber": 1,
  "AcquisitionTime": "09:38:37.800000",
  "BandwidthPerPixelPhaseEncode": 48.077,
  "BaseResolution": 80,
  "BodyPartExamined": "BRAIN",
  "CoilCombinationMethod": "Sum of Squares",
  "ConsistencyInfo": "N4_VE11E_LATEST_20181129",
  "ConversionSoftware": "dcm2niix",
  "ConversionSoftwareVersion": "v1.0.20220720",
  "DerivedVendorReportedEchoSpacing": 0.000519999,
  "DeviceSerialNumber": "66112",
  "DwellTime": 2.7e-06,
  "EchoTime": 0.035,
  "EchoTrainLength": 39,
  "EffectiveEchoSpacing": 0.00026,
  "FlipAngle": 90,
  "HeudiconvVersion": "0.13.1",
  "ImageOrientationPatientDICOM": [0.989497, 0.144206, 0.00996554, -0.140298, 0.941505, 0.306406],
  "ImageOrientationText": "Tra>Cor(17.7)>Sag(-2.0)",
  "ImageType": [
    "ORIGINAL",
    "PRIMARY",
    "M",
    "ND",
    "NORM",
    "MOSAIC"
],
  "ImagingFrequency": 123.259,
  "InPlanePhaseEncodingDirectionDICOM": "COL",
  "InstitutionAddress": "Maynard 3,Hanover,NH,US,03755",
  "InstitutionName": "Dartmouth College - PBS",
  "InstitutionalDepartmentName": "Department",
  "MRAcquisitionType": "2D",
  "MagneticFieldStrength": 3,
  "Manufacturer": "Siemens",
  "ManufacturersModelName": "Prisma",
  "MatrixCoilMode": "GRAPPA",
  "Modality": "MR",
  "NonlinearGradientCorrection": false,
  "ParallelReductionFactorInPlane": 2,
  "PartialFourier": 1,
  "PatientPosition": "HFS",
  "PercentPhaseFOV": 100,
  "PercentSampling": 100,
  "PhaseEncodingDirection": "j-",
  "PhaseEncodingSteps": 79,
  "PhaseResolution": 1,
  "PixelBandwidth": 2315,
  "ProcedureStepDescription": "dbic^QA",
  "ProtocolName": "func-bold_task-rest_acq-p2",
  "PulseSequenceDetails": "%SiemensSeq%\\ep2d_bold",
  "ReceiveCoilActiveElements": "HEA;HEP",
  "ReceiveCoilName": "Head_32",
  "ReconMatrixPE": 80,
  "RefLinesPE": 24,
  "RepetitionTime": 2,
  "SAR": 0.0813966,
  "ScanOptions": "FS",
  "ScanningSequence": "EP",
  "SequenceName": "*epfid2d1_80",
  "SequenceVariant": "SK",
  "SeriesDescription": "func-bold_task-rest_acq-p2",
  "SeriesNumber": 5,
  "ShimSetting": [4217, -7738, -7496, -26, -125, -103, -35, 69],
  "SliceThickness": 3.5,
  "SliceTiming": [0.99, 0, 1.0575, 0.0675, 1.1225, 0.1325, 1.1875, 0.1975, 1.255, 0.265, 1.32, 0.33, 1.3875, 0.3975, 1.4525, 0.4625, 1.5175, 0.5275, 1.585, 0.595, 1.65, 0.66, 1.7175, 0.7275, 1.7825, 0.7925, 1.8475, 0.8575, 1.915, 0.925],
  "SoftwareVersions": "syngo MR E11",
  "SpacingBetweenSlices": 3.99,
  "StationName": "AWP66112",
  "TaskName": "rest",
  "TotalReadoutTime": 0.02054,
  "TxRefAmp": 224.94,
  "dcmmeta_affine": [
    [-2.9684925079345703, -0.4208934009075165, -0.138864204287529, 138.4747314453125],
    [-0.4326184391975403, 2.8245151042938232, 1.2152996063232422, -110.05230712890625],
    [0.02989661507308483, -0.9192187786102295, 3.7978761196136475, -30.554119110107422],
    [0.0, 0.0, 0.0, 1.0]
],
  "dcmmeta_reorient_transform": [
    [0.0, -1.0, 0.0, 79.0],
    [1.0, 0.0, 0.0, 0.0],
    [0.0, 0.0, 1.0, 0.0],
    [0.0, 0.0, 0.0, 1.0]
],
  "dcmmeta_shape": [80, 80, 30, 200],
  "dcmmeta_slice_dim": 2,
  "dcmmeta_version": 0.6,
  "global": {
    "const": {
      "AccessionNumber": "qa",
      "AcquisitionMatrix": [80, 0, 0, 80],
      "AngioFlag": "N",
      "BitsAllocated": 16,
      "BitsStored": 12,
      "BodyPartExamined": "BRAIN",
      "Columns": 480,
      "EchoNumbers": 1,
      "EchoTime": 35.0,
      "EchoTrainLength": 39,
      "FlipAngle": 90.0,
      "HighBit": 11,
      "ImageOrientationPatient": [0.9894974862527, 0.14420614667687, 0.00996553863012, -0.1402977965672, 0.94150503866333, 0.30640625067049],
      "ImagePositionPatient": [-614.74396056593, -764.51110091504, -292.9954748565],
      "ImageType": [
        "ORIGINAL",
        "PRIMARY",
        "M",
        "ND",
        "NORM",
        "MOSAIC"
],
      "ImagedNucleus": "1H",
      "ImagingFrequency": 123.259167,
      "InPlanePhaseEncodingDirection": "COL",
      "MRAcquisitionType": "2D",
      "MagneticFieldStrength": 3.0,
      "Manufacturer": "SIEMENS",
      "ManufacturerModelName": "Prisma",
      "Modality": "MR",
      "NumberOfAverages": 1.0,
      "NumberOfPhaseEncodingSteps": 79,
      "PercentPhaseFieldOfView": 100.0,
      "PercentSampling": 100.0,
      "PerformedProcedureStepStartTime": "093549.537000",
      "PhotometricInterpretation": "MONOCHROME2",
      "PixelBandwidth": 2315.0,
      "PixelRepresentation": 0,
      "PixelSpacing": [3.0, 3.0],
      "ProtocolName": "func-bold_task-rest_acq-p2",
      "RepetitionTime": 2000.0,
      "Rows": 480,
      "SAR": 0.0813966189942,
      "SamplesPerPixel": 1,
      "ScanOptions": "FS",
      "ScanningSequence": "EP",
      "SequenceName": "*epfid2d1_80",
      "SequenceVariant": "SK",
      "SeriesDescription": "func-bold_task-rest_acq-p2",
      "SeriesNumber": 5,
      "SeriesTime": "093930.927000",
      "SliceLocation": -67.422673197138,
      "SliceThickness": 3.5,
      "SmallestImagePixelValue": 0,
      "SoftwareVersions": "syngo MR E11",
      "SpacingBetweenSlices": 3.9899999453229,
      "SpecificCharacterSet": "ISO_IR 100",
      "StudyID": "38",
      "StudyTime": "093549.485000",
      "TransmitCoilName": "Body",
      "VariableFlipAngleFlag": "N",
      "WindowCenterWidthExplanation": "Algo1"
    },
    "slices": {}
  },
  "time": {
    "samples": {
      "AcquisitionNumber": [1, 2, 3, 4, 5, 6, 7, 8, 9, 10, 11, 12, 13, 14, 15, 16, 17, 18, 19, 20, 21, 22, 23, 24, 25, 26, 27, 28, 29, 30, 31, 32, 33, 34, 35, 36, 37, 38, 39, 40, 41, 42, 43, 44, 45, 46, 47, 48, 49, 50, 51, 52, 53, 54, 55, 56, 57, 58, 59, 60, 61, 62, 63, 64, 65, 66, 67, 68, 69, 70, 71, 72, 73, 74, 75, 76, 77, 78, 79, 80, 81, 82, 83, 84, 85, 86, 87, 88, 89, 90, 91, 92, 93, 94, 95, 96, 97, 98, 99, 100, 101, 102, 103, 104, 105, 106, 107, 108, 109, 110, 111, 112, 113, 114, 115, 116, 117, 118, 119, 120, 121, 122, 123, 124, 125, 126, 127, 128, 129, 130, 131, 132, 133, 134, 135, 136, 137, 138, 139, 140, 141, 142, 143, 144, 145, 146, 147, 148, 149, 150, 151, 152, 153, 154, 155, 156, 157, 158, 159, 160, 161, 162, 163, 164, 165, 166, 167, 168, 169, 170, 171, 172, 173, 174, 175, 176, 177, 178, 179, 180, 181, 182, 183, 184, 185, 186, 187, 188, 189, 190, 191, 192, 193, 194, 195, 196, 197, 198, 199, 200],
      "AcquisitionTime": ["093837.800000", "093839.800000", "093841.800000", "093843.800000", "093845.800000", "093847.800000", "093849.800000", "093851.800000", "093853.800000", "093855.800000", "093857.800000", "093859.800000", "093901.800000", "093903.800000", "093905.800000", "093907.800000", "093909.800000", "093911.800000", "093913.800000", "093915.800000", "093917.800000", "093919.800000", "093921.800000", "093923.800000", "093925.800000", "093927.800000", "093929.800000", "093931.800000", "093933.800000", "093935.800000", "093937.800000", "093939.800000", "093941.800000", "093943.800000", "093945.800000", "093947.800000", "093949.800000", "093951.800000", "093953.800000", "093955.800000", "093957.800000", "093959.800000", "094001.800000", "094003.800000", "094005.800000", "094007.800000", "094009.800000", "094011.800000", "094013.800000", "094015.800000", "094017.800000", "094019.800000", "094021.800000", "094023.800000", "094025.800000", "094027.800000", "094029.800000", "094031.800000", "094033.800000", "094035.800000", "094037.800000", "094039.800000", "094041.800000", "094043.800000", "094045.800000", "094047.800000", "094049.800000", "094051.800000", "094053.800000", "094055.800000", "094057.800000", "094059.800000", "094101.800000", "094103.800000", "094105.800000", "094107.800000", "094109.800000", "094111.800000", "094113.800000", "094115.800000", "094117.800000", "094119.800000", "094121.800000", "094123.800000", "094125.800000", "094127.800000", "094129.800000", "094131.800000", "094133.800000", "094135.800000", "094137.800000", "094139.800000", "094141.800000", "094143.800000", "094145.800000", "094147.800000", "094149.800000", "094151.800000", "094153.800000", "094155.800000", "094157.800000", "094159.800000", "094201.800000", "094203.800000", "094205.800000", "094207.800000", "094209.800000", "094211.800000", "094213.800000", "094215.800000", "094217.800000", "094219.800000", "094221.800000", "094223.800000", "094225.800000", "094227.800000", "094229.800000", "094231.800000", "094233.800000", "094235.800000", "094237.800000", "094239.800000", "094241.800000", "094243.800000", "094245.800000", "094247.800000", "094249.800000", "094251.800000", "094253.800000", "094255.800000", "094257.800000", "094259.800000", "094301.800000", "094303.800000", "094305.800000", "094307.800000", "094309.800000", "094311.800000", "094313.800000", "094315.800000", "094317.800000", "094319.800000", "094321.800000", "094323.800000", "094325.800000", "094327.800000", "094329.800000", "094331.800000", "094333.800000", "094335.800000", "094337.800000", "094339.800000", "094341.800000", "094343.800000", "094345.800000", "094347.800000", "094349.800000", "094351.800000", "094353.800000", "094355.800000", "094357.800000", "094359.800000", "094401.800000", "094403.800000", "094405.800000", "094407.800000", "094409.800000", "094411.800000", "094413.800000", "094415.800000", "094417.800000", "094419.800000", "094421.800000", "094423.800000", "094425.800000", "094427.800000", "094429.800000", "094431.800000", "094433.800000", "094435.800000", "094437.800000", "094439.800000", "094441.800000", "094443.800000", "094445.800000", "094447.800000", "094449.800000", "094451.800000", "094453.800000", "094455.800000", "094457.800000", "094459.800000", "094501.800000", "094503.800000", "094505.800000", "094507.800000", "094509.800000", "094511.800000", "094513.800000", "094515.800000"],
      "ContentTime": ["093930.930000", "093930.933000", "093930.936000", "093930.945000", "093930.948000", "093930.954000", "093930.964000", "093930.966000", "093930.968000", "093930.971000", "093930.973000", "093930.976000", "093930.978000", "093930.980000", "093930.983000", "093930.985000", "093930.987000", "093930.990000", "093930.992000", "093930.994000", "093930.997000", "093931.000000", "093931.002000", "093931.005000", "093931.007000", "093931.009000", "094010.910000", "094010.913000", "094010.915000", "094010.917000", "094010.920000", "094010.922000", "094010.931000", "094010.933000", "094010.935000", "094010.938000", "094010.940000", "094010.942000", "094010.945000", "094010.947000", "094010.949000", "094010.952000", "094010.954000", "094010.957000", "094010.959000", "094010.961000", "094050.911000", "094050.914000", "094050.916000", "094050.918000", "094050.921000", "094050.923000", "094050.925000", "094050.928000", "094050.930000", "094050.932000", "094050.935000", "094050.937000", "094050.939000", "094050.942000", "094050.949000", "094050.952000", "094050.954000", "094050.957000", "094050.959000", "094050.961000", "094130.910000", "094130.913000", "094130.915000", "094130.917000", "094130.920000", "094130.922000", "094130.924000", "094130.927000", "094130.929000", "094130.932000", "094130.934000", "094130.936000", "094130.939000", "094130.941000", "094130.943000", "094130.946000", "094130.948000", "094130.951000", "094130.953000", "094130.955000", "094210.910000", "094210.913000", "094210.915000", "094210.917000", "094210.920000", "094210.922000", "094210.924000", "094210.927000", "094210.929000", "094210.932000", "094210.934000", "094210.936000", "094210.939000", "094210.941000", "094210.943000", "094210.945000", "094210.948000", "094210.950000", "094210.953000", "094210.955000", "094250.911000", "094250.914000", "094250.916000", "094250.918000", "094250.921000", "094250.923000", "094250.925000", "094250.928000", "094250.930000", "094250.933000", "094250.935000", "094250.937000", "094250.940000", "094250.942000", "094250.944000", "094250.947000", "094250.949000", "094250.951000", "094250.954000", "094250.956000", "094330.911000", "094330.918000", "094330.920000", "094330.922000", "094330.925000", "094330.927000", "094330.929000", "094330.932000", "094330.934000", "094330.937000", "094330.939000", "094330.941000", "094330.944000", "094330.946000", "094330.948000", "094330.951000", "094330.953000", "094330.955000", "094330.958000", "094330.960000", "094410.910000", "094410.913000", "094410.915000", "094410.917000", "094410.920000", "094410.922000", "094410.925000", "094410.927000", "094410.929000", "094410.932000", "094410.934000", "094410.936000", "094410.939000", "094410.941000", "094410.943000", "094410.946000", "094410.948000", "094410.951000", "094410.953000", "094410.956000", "094450.910000", "094450.913000", "094450.915000", "094450.917000", "094450.920000", "094450.922000", "094450.925000", "094450.927000", "094450.929000", "094450.932000", "094450.934000", "094450.936000", "094450.939000", "094450.941000", "094450.943000", "094450.946000", "094450.948000", "094450.951000", "094450.953000", "094450.955000", "094517.254000", "094517.256000", "094517.259000", "094517.261000", "094517.263000", "094517.266000", "094517.268000", "094517.270000", "094517.273000", "094517.275000", "094517.278000", "094517.281000", "094517.287000", "094517.290000"],
      "InstanceCreationTime": ["093930.930000", "093930.933000", "093930.936000", "093930.945000", "093930.948000", "093930.954000", "093930.964000", "093930.966000", "093930.968000", "093930.971000", "093930.973000", "093930.976000", "093930.978000", "093930.980000", "093930.983000", "093930.985000", "093930.987000", "093930.990000", "093930.992000", "093930.994000", "093930.997000", "093931.000000", "093931.002000", "093931.005000", "093931.007000", "093931.009000", "094010.910000", "094010.913000", "094010.915000", "094010.917000", "094010.920000", "094010.922000", "094010.931000", "094010.933000", "094010.935000", "094010.938000", "094010.940000", "094010.942000", "094010.945000", "094010.947000", "094010.949000", "094010.952000", "094010.954000", "094010.957000", "094010.959000", "094010.961000", "094050.911000", "094050.914000", "094050.916000", "094050.918000", "094050.921000", "094050.923000", "094050.925000", "094050.928000", "094050.930000", "094050.932000", "094050.935000", "094050.937000", "094050.939000", "094050.942000", "094050.949000", "094050.952000", "094050.954000", "094050.957000", "094050.959000", "094050.961000", "094130.910000", "094130.913000", "094130.915000", "094130.917000", "094130.920000", "094130.922000", "094130.924000", "094130.927000", "094130.929000", "094130.932000", "094130.934000", "094130.936000", "094130.939000", "094130.941000", "094130.943000", "094130.946000", "094130.948000", "094130.951000", "094130.953000", "094130.955000", "094210.910000", "094210.913000", "094210.915000", "094210.917000", "094210.920000", "094210.922000", "094210.924000", "094210.927000", "094210.929000", "094210.932000", "094210.934000", "094210.936000", "094210.939000", "094210.941000", "094210.943000", "094210.945000", "094210.948000", "094210.950000", "094210.953000", "094210.955000", "094250.911000", "094250.914000", "094250.916000", "094250.918000", "094250.921000", "094250.923000", "094250.925000", "094250.928000", "094250.930000", "094250.933000", "094250.935000", "094250.937000", "094250.940000", "094250.942000", "094250.944000", "094250.947000", "094250.949000", "094250.951000", "094250.954000", "094250.956000", "094330.911000", "094330.918000", "094330.920000", "094330.922000", "094330.925000", "094330.927000", "094330.929000", "094330.932000", "094330.934000", "094330.937000", "094330.939000", "094330.941000", "094330.944000", "094330.946000", "094330.948000", "094330.951000", "094330.953000", "094330.955000", "094330.958000", "094330.960000", "094410.910000", "094410.913000", "094410.915000", "094410.917000", "094410.920000", "094410.922000", "094410.925000", "094410.927000", "094410.929000", "094410.932000", "094410.934000", "094410.936000", "094410.939000", "094410.941000", "094410.943000", "094410.946000", "094410.948000", "094410.951000", "094410.953000", "094410.956000", "094450.910000", "094450.913000", "094450.915000", "094450.917000", "094450.920000", "094450.922000", "094450.925000", "094450.927000", "094450.929000", "094450.932000", "094450.934000", "094450.936000", "094450.939000", "094450.941000", "094450.943000", "094450.946000", "094450.948000", "094450.951000", "094450.953000", "094450.955000", "094517.254000", "094517.256000", "094517.259000", "094517.261000", "094517.263000", "094517.266000", "094517.268000", "094517.270000", "094517.273000", "094517.275000", "094517.278000", "094517.281000", "094517.287000", "094517.290000"],
      "InstanceNumber": [1, 2, 3, 4, 5, 6, 7, 8, 9, 10, 11, 12, 13, 14, 15, 16, 17, 18, 19, 20, 21, 22, 23, 24, 25, 26, 27, 28, 29, 30, 31, 32, 33, 34, 35, 36, 37, 38, 39, 40, 41, 42, 43, 44, 45, 46, 47, 48, 49, 50, 51, 52, 53, 54, 55, 56, 57, 58, 59, 60, 61, 62, 63, 64, 65, 66, 67, 68, 69, 70, 71, 72, 73, 74, 75, 76, 77, 78, 79, 80, 81, 82, 83, 84, 85, 86, 87, 88, 89, 90, 91, 92, 93, 94, 95, 96, 97, 98, 99, 100, 101, 102, 103, 104, 105, 106, 107, 108, 109, 110, 111, 112, 113, 114, 115, 116, 117, 118, 119, 120, 121, 122, 123, 124, 125, 126, 127, 128, 129, 130, 131, 132, 133, 134, 135, 136, 137, 138, 139, 140, 141, 142, 143, 144, 145, 146, 147, 148, 149, 150, 151, 152, 153, 154, 155, 156, 157, 158, 159, 160, 161, 162, 163, 164, 165, 166, 167, 168, 169, 170, 171, 172, 173, 174, 175, 176, 177, 178, 179, 180, 181, 182, 183, 184, 185, 186, 187, 188, 189, 190, 191, 192, 193, 194, 195, 196, 197, 198, 199, 200],
      "LargestImagePixelValue": [2117, 2103, 2120, 2118, 2117, 2113, 2107, 2115, 2106, 2108, 2108, 2110, 2105, 2112, 2114, 2112, 2109, 2115, 2120, 2109, 2109, 2118, 2107, 2102, 2111, 2108, 2115, 2107, 2104, 2112, 2108, 2114, 2098, 2108, 2102, 2109, 2110, 2109, 2111, 2115, 2106, 2109, 2109, 2113, 2105, 2103, 2110, 2107, 2104, 2109, 2106, 2104, 2108, 2112, 2105, 2114, 2105, 2107, 2113, 2111, 2111, 2111, 2107, 2106, 2103, 2098, 2113, 2108, 2112, 2106, 2105, 2114, 2114, 2101, 2111, 2111, 2114, 2113, 2100, 2104, 2108, 2100, 2115, 2098, 2101, 2107, 2107, 2113, 2104, 2102, 2102, 2107, 2101, 2090, 2108, 2101, 2100, 2100, 2110, 2098, 2112, 2106, 2101, 2103, 2099, 2103, 2117, 2113, 2103, 2102, 2101, 2100, 2099, 2101, 2108, 2104, 2102, 2094, 2106, 2103, 2096, 2101, 2109, 2101, 2107, 2096, 2106, 2103, 2098, 2092, 2102, 2093, 2101, 2101, 2099, 2105, 2106, 2113, 2106, 2102, 2093, 2100, 2091, 2109, 2101, 2097, 2099, 2104, 2098, 2101, 2115, 2107, 2104, 2108, 2096, 2104, 2097, 2091, 2103, 2104, 2097, 2097, 2098, 2102, 2101, 2103, 2109, 2092, 2098, 2105, 2105, 2096, 2100, 2102, 2096, 2093, 2098, 2096, 2101, 2098, 2091, 2101, 2108, 2110, 2104, 2099, 2097, 2093, 2095, 2093, 2106, 2095, 2097, 2101, 2102, 2106, 2111, 2099, 2103, 2098],
      "WindowCenter": [1009.0, 1009.0, 1009.0, 1008.0, 1010.0, 1009.0, 1010.0, 1009.0, 1010.0, 1009.0, 1008.0, 1008.0, 1009.0, 1008.0, 1009.0, 1009.0, 1008.0, 1009.0, 1008.0, 1008.0, 1008.0, 1009.0, 1008.0, 1008.0, 1008.0, 1008.0, 1008.0, 1009.0, 1008.0, 1008.0, 1008.0, 1008.0, 1008.0, 1008.0, 1008.0, 1009.0, 1009.0, 1009.0, 1009.0, 1008.0, 1009.0, 1008.0, 1009.0, 1008.0, 1008.0, 1008.0, 1008.0, 1008.0, 1008.0, 1008.0, 1009.0, 1008.0, 1008.0, 1009.0, 1008.0, 1009.0, 1009.0, 1008.0, 1008.0, 1008.0, 1008.0, 1008.0, 1007.0, 1008.0, 1008.0, 1007.0, 1008.0, 1007.0, 1008.0, 1008.0, 1007.0, 1007.0, 1007.0, 1008.0, 1007.0, 1007.0, 1007.0, 1008.0, 1007.0, 1007.0, 1007.0, 1007.0, 1007.0, 1007.0, 1007.0, 1008.0, 1008.0, 1007.0, 1007.0, 1008.0, 1008.0, 1007.0, 1007.0, 1008.0, 1008.0, 1008.0, 1007.0, 1008.0, 1007.0, 1009.0, 1008.0, 1007.0, 1008.0, 1007.0, 1007.0, 1007.0, 1007.0, 1007.0, 1007.0, 1008.0, 1007.0, 1007.0, 1007.0, 1008.0, 1007.0, 1008.0, 1007.0, 1008.0, 1008.0, 1008.0, 1007.0, 1008.0, 1007.0, 1007.0, 1007.0, 1007.0, 1007.0, 1007.0, 1007.0, 1007.0, 1007.0, 1008.0, 1007.0, 1008.0, 1007.0, 1007.0, 1007.0, 1007.0, 1007.0, 1007.0, 1007.0, 1008.0, 1007.0, 1007.0, 1007.0, 1007.0, 1008.0, 1007.0, 1007.0, 1007.0, 1007.0, 1007.0, 1007.0, 1006.0, 1007.0, 1007.0, 1007.0, 1007.0, 1007.0, 1007.0, 1007.0, 1007.0, 1007.0, 1007.0, 1007.0, 1007.0, 1007.0, 1006.0, 1007.0, 1007.0, 1006.0, 1007.0, 1006.0, 1007.0, 1007.0, 1007.0, 1006.0, 1007.0, 1006.0, 1006.0, 1006.0, 1007.0, 1006.0, 1006.0, 1006.0, 1006.0, 1006.0, 1006.0, 1006.0, 1007.0, 1007.0, 1006.0, 1006.0, 1007.0, 1006.0, 1006.0, 1006.0, 1007.0, 1006.0, 1006.0],
      "WindowWidth": [2234.0, 2232.0, 2233.0, 2232.0, 2233.0, 2233.0, 2233.0, 2232.0, 2233.0, 2233.0, 2232.0, 2232.0, 2233.0, 2232.0, 2232.0, 2232.0, 2232.0, 2232.0, 2232.0, 2232.0, 2231.0, 2232.0, 2231.0, 2231.0, 2231.0, 2231.0, 2231.0, 2231.0, 2231.0, 2231.0, 2231.0, 2231.0, 2231.0, 2231.0, 2231.0, 2231.0, 2231.0, 2231.0, 2231.0, 2230.0, 2231.0, 2230.0, 2231.0, 2230.0, 2230.0, 2230.0, 2230.0, 2230.0, 2230.0, 2230.0, 2230.0, 2230.0, 2230.0, 2230.0, 2229.0, 2230.0, 2230.0, 2229.0, 2230.0, 2229.0, 2229.0, 2230.0, 2229.0, 2230.0, 2229.0, 2229.0, 2229.0, 2229.0, 2229.0, 2229.0, 2229.0, 2229.0, 2229.0, 2229.0, 2229.0, 2229.0, 2228.0, 2229.0, 2228.0, 2228.0, 2228.0, 2228.0, 2228.0, 2228.0, 2228.0, 2229.0, 2229.0, 2228.0, 2228.0, 2228.0, 2229.0, 2228.0, 2228.0, 2228.0, 2228.0, 2228.0, 2228.0, 2228.0, 2228.0, 2229.0, 2228.0, 2228.0, 2228.0, 2227.0, 2227.0, 2227.0, 2227.0, 2227.0, 2227.0, 2228.0, 2227.0, 2227.0, 2227.0, 2228.0, 2227.0, 2228.0, 2227.0, 2227.0, 2227.0, 2228.0, 2227.0, 2228.0, 2227.0, 2227.0, 2227.0, 2227.0, 2227.0, 2227.0, 2227.0, 2227.0, 2227.0, 2227.0, 2226.0, 2227.0, 2227.0, 2227.0, 2227.0, 2226.0, 2226.0, 2226.0, 2226.0, 2227.0, 2226.0, 2226.0, 2227.0, 2227.0, 2227.0, 2226.0, 2226.0, 2226.0, 2226.0, 2226.0, 2226.0, 2226.0, 2226.0, 2226.0, 2226.0, 2226.0, 2226.0, 2226.0, 2226.0, 2226.0, 2226.0, 2226.0, 2226.0, 2226.0, 2226.0, 2225.0, 2226.0, 2226.0, 2226.0, 2226.0, 2226.0, 2226.0, 2226.0, 2226.0, 2226.0, 2226.0, 2225.0, 2226.0, 2225.0, 2226.0, 2225.0, 2225.0, 2225.0, 2225.0, 2225.0, 2226.0, 2225.0, 2226.0, 2226.0, 2225.0, 2225.0, 2226.0, 2225.0, 2225.0, 2225.0, 2226.0, 2225.0, 2225.0]
    },
    "slices": {}
  }
}