{
  "AcquisitionMatrixPE": 80,
  "AcquisitionNumber": 1,
  "AcquisitionTime": "09:52:21.430000",
  "BandwidthPerPixelPhaseEncode": 25,
  "BaseResolution": 80,
  "BodyPartExamined": "BRAIN",
  "CoilCombinationMethod": "Sum of Squares",
  "ConsistencyInfo": "N4_VE11E_LATEST_20181129",
  "ConversionSoftware": "dcm2niix",
  "ConversionSoftwareVersion": "v1.0.20220720",
  "DerivedVendorReportedEchoSpacing": 0.0005,
  "DeviceSerialNumber": "66112",
  "DwellTime": 2.7e-06,
  "EchoTime": 0.03,
  "EchoTrainLength": 80,
  "EffectiveEchoSpacing": 0.0005,
  "FlipAngle": 77,
  "HeudiconvVersion": "0.13.1",
  "ImageOrientationPatientDICOM": [0.989497, 0.144206, 0.00996554, -0.140298, 0.941505, 0.306406],
  "ImageOrientationText": "Tra>Cor(17.7)>Sag(-2.0)",
  "ImageType": [
    "ORIGINAL",
    "PRIMARY",
    "M",
    "ND",
    "NORM",
    "MOSAIC"
],
  "ImagingFrequency": 123.259,
  "InPlanePhaseEncodingDirectionDICOM": "COL",
  "InstitutionAddress": "Maynard 3,Hanover,NH,US,03755",
  "InstitutionName": "Dartmouth College - PBS",
  "InstitutionalDepartmentName": "Department",
  "MRAcquisitionType": "2D",
  "MagneticFieldStrength": 3,
  "Manufacturer": "Siemens",
  "ManufacturersModelName": "Prisma",
  "MatrixCoilMode": "SENSE",
  "Modality": "MR",
  "NonlinearGradientCorrection": false,
  "PartialFourier": 1,
  "PatientPosition": "HFS",
  "PercentPhaseFOV": 100,
  "PercentSampling": 100,
  "PhaseEncodingDirection": "j-",
  "PhaseEncodingSteps": 80,
  "PhaseResolution": 1,
  "PixelBandwidth": 2315,
  "ProcedureStepDescription": "dbic^QA",
  "ProtocolName": "func-bold_fa-77",
  "PulseSequenceDetails": "%SiemensSeq%\\ep2d_bold",
  "ReceiveCoilActiveElements": "HEA;HEP",
  "ReceiveCoilName": "Head_32",
  "ReconMatrixPE": 80,
  "RepetitionTime": 2,
  "SAR": 0.0639655,
  "ScanOptions": "FS",
  "ScanningSequence": "EP",
  "SequenceName": "*epfid2d1_80",
  "SequenceVariant": "SK",
  "SeriesDescription": "func-bold_fa-77",
  "SeriesNumber": 7,
  "ShimSetting": [4217, -7739, -7495, -27, -126, -99, -34, 69],
  "SliceThickness": 3.5,
  "SliceTiming": [0.99, 0, 1.055, 0.065, 1.1225, 0.1325, 1.1875, 0.1975, 1.2525, 0.2625, 1.32, 0.33, 1.385, 0.395, 1.4525, 0.4625, 1.5175, 0.5275, 1.5825, 0.5925, 1.65, 0.66, 1.715, 0.725, 1.78, 0.7925, 1.8475, 0.8575, 1.9125, 0.9225],
  "SoftwareVersions": "syngo MR E11",
  "SpacingBetweenSlices": 3.99,
  "StationName": "AWP66112",
  "TotalReadoutTime": 0.0395,
  "TxRefAmp": 224.94,
  "dcmmeta_affine": [
    [-2.9684925079345703, -0.4208934009075165, -0.138864204287529, 138.3181915283203],
    [-0.4326184391975403, 2.8245151042938232, 1.2152996063232422, -108.8652114868164],
    [0.02989661507308483, -0.9192187786102295, 3.7978761196136475, -28.91998291015625],
    [0.0, 0.0, 0.0, 1.0]
],
  "dcmmeta_reorient_transform": [
    [0.0, -1.0, 0.0, 79.0],
    [1.0, 0.0, 0.0, 0.0],
    [0.0, 0.0, 1.0, 0.0],
    [0.0, 0.0, 0.0, 1.0]
],
  "dcmmeta_shape": [80, 80, 30, 200],
  "dcmmeta_slice_dim": 2,
  "dcmmeta_version": 0.6,
  "global": {
    "const": {
      "AccessionNumber": "qa",
      "AcquisitionMatrix": [80, 0, 0, 80],
      "AngioFlag": "N",
      "BitsAllocated": 16,
      "BitsStored": 12,
      "BodyPartExamined": "BRAIN",
      "Columns": 480,
      "EchoNumbers": 1,
      "EchoTime": 30.0,
      "EchoTrainLength": 80,
      "FlipAngle": 77.0,
      "HighBit": 11,
      "ImageOrientationPatient": [0.9894974862527, 0.14420614667687, 0.00996553863012, -0.1402977965672, 0.94150503866333, 0.30640625067049],
      "ImagePositionPatient": [-614.58743400038, -765.69819083508, -291.36133865655],
      "ImageType": [
        "ORIGINAL",
        "PRIMARY",
        "M",
        "ND",
        "NORM",
        "MOSAIC"
],
      "ImagedNucleus": "1H",
      "ImagingFrequency": 123.259164,
      "InPlanePhaseEncodingDirection": "COL",
      "MRAcquisitionType": "2D",
      "MagneticFieldStrength": 3.0,
      "Manufacturer": "SIEMENS",
      "ManufacturerModelName": "Prisma",
      "Modality": "MR",
      "NumberOfAverages": 1.0,
      "NumberOfPhaseEncodingSteps": 80,
      "PercentPhaseFieldOfView": 100.0,
      "PercentSampling": 100.0,
      "PerformedProcedureStepStartTime": "093549.537000",
      "PhotometricInterpretation": "MONOCHROME2",
      "PixelBandwidth": 2315.0,
      "PixelRepresentation": 0,
      "PixelSpacing": [3.0, 3.0],
      "ProtocolName": "func-bold_fa-77",
      "RepetitionTime": 2000.0,
      "Rows": 480,
      "SAR": 0.0639655293887,
      "SamplesPerPixel": 1,
      "ScanOptions": "FS",
      "ScanningSequence": "EP",
      "SequenceName": "*epfid2d1_80",
      "SequenceVariant": "SK",
      "SeriesDescription": "func-bold_fa-77",
      "SeriesNumber": 7,
      "SeriesTime": "095310.825000",
      "SliceLocation": -65.500203823891,
      "SliceThickness": 3.5,
      "SmallestImagePixelValue": 0,
      "SoftwareVersions": "syngo MR E11",
      "SpacingBetweenSlices": 3.9899999451798,
      "SpecificCharacterSet": "ISO_IR 100",
      "StudyID": "38",
      "StudyTime": "093549.485000",
      "TransmitCoilName": "Body",
      "VariableFlipAngleFlag": "N",
      "WindowCenterWidthExplanation": "Algo1"
    },
    "slices": {}
  },
  "time": {
    "samples": {
      "AcquisitionNumber": [1, 2, 3, 4, 5, 6, 7, 8, 9, 10, 11, 12, 13, 14, 15, 16, 17, 18, 19, 20, 21, 22, 23, 24, 25, 26, 27, 28, 29, 30, 31, 32, 33, 34, 35, 36, 37, 38, 39, 40, 41, 42, 43, 44, 45, 46, 47, 48, 49, 50, 51, 52, 53, 54, 55, 56, 57, 58, 59, 60, 61, 62, 63, 64, 65, 66, 67, 68, 69, 70, 71, 72, 73, 74, 75, 76, 77, 78, 79, 80, 81, 82, 83, 84, 85, 86, 87, 88, 89, 90, 91, 92, 93, 94, 95, 96, 97, 98, 99, 100, 101, 102, 103, 104, 105, 106, 107, 108, 109, 110, 111, 112, 113, 114, 115, 116, 117, 118, 119, 120, 121, 122, 123, 124, 125, 126, 127, 128, 129, 130, 131, 132, 133, 134, 135, 136, 137, 138, 139, 140, 141, 142, 143, 144, 145, 146, 147, 148, 149, 150, 151, 152, 153, 154, 155, 156, 157, 158, 159, 160, 161, 162, 163, 164, 165, 166, 167, 168, 169, 170, 171, 172, 173, 174, 175, 176, 177, 178, 179, 180, 181, 182, 183, 184, 185, 186, 187, 188, 189, 190, 191, 192, 193, 194, 195, 196, 197, 198, 199, 200],
      "AcquisitionTime": ["095221.430000", "095223.430000", "095225.430000", "095227.430000", "095229.430000", "095231.430000", "095233.430000", "095235.430000", "095237.430000", "095239.430000", "095241.430000", "095243.430000", "095245.430000", "095247.430000", "095249.430000", "095251.430000", "095253.430000", "095255.430000", "095257.430000", "095259.430000", "095301.430000", "095303.430000", "095305.430000", "095307.430000", "095309.430000", "095311.430000", "095313.430000", "095315.430000", "095317.430000", "095319.430000", "095321.430000", "095323.430000", "095325.430000", "095327.430000", "095329.430000", "095331.430000", "095333.430000", "095335.430000", "095337.430000", "095339.430000", "095341.430000", "095343.430000", "095345.430000", "095347.430000", "095349.430000", "095351.430000", "095353.430000", "095355.430000", "095357.430000", "095359.430000", "095401.430000", "095403.430000", "095405.430000", "095407.430000", "095409.430000", "095411.430000", "095413.430000", "095415.430000", "095417.430000", "095419.430000", "095421.430000", "095423.430000", "095425.430000", "095427.430000", "095429.430000", "095431.430000", "095433.430000", "095435.430000", "095437.430000", "095439.430000", "095441.430000", "095443.430000", "095445.430000", "095447.430000", "095449.430000", "095451.430000", "095453.430000", "095455.430000", "095457.430000", "095459.430000", "095501.430000", "095503.430000", "095505.430000", "095507.430000", "095509.430000", "095511.430000", "095513.430000", "095515.430000", "095517.430000", "095519.430000", "095521.430000", "095523.430000", "095525.430000", "095527.430000", "095529.430000", "095531.430000", "095533.430000", "095535.430000", "095537.430000", "095539.430000", "095541.430000", "095543.430000", "095545.430000", "095547.430000", "095549.430000", "095551.430000", "095553.430000", "095555.430000", "095557.430000", "095559.430000", "095601.430000", "095603.430000", "095605.430000", "095607.430000", "095609.430000", "095611.430000", "095613.430000", "095615.430000", "095617.430000", "095619.430000", "095621.430000", "095623.430000", "095625.430000", "095627.430000", "095629.430000", "095631.430000", "095633.430000", "095635.430000", "095637.430000", "095639.430000", "095641.430000", "095643.430000", "095645.430000", "095647.430000", "095649.430000", "095651.430000", "095653.430000", "095655.430000", "095657.430000", "095659.430000", "095701.430000", "095703.430000", "095705.430000", "095707.430000", "095709.430000", "095711.430000", "095713.430000", "095715.430000", "095717.430000", "095719.430000", "095721.430000", "095723.430000", "095725.430000", "095727.430000", "095729.430000", "095731.430000", "095733.430000", "095735.430000", "095737.430000", "095739.430000", "095741.430000", "095743.430000", "095745.430000", "095747.430000", "095749.430000", "095751.430000", "095753.430000", "095755.430000", "095757.430000", "095759.430000", "095801.430000", "095803.430000", "095805.430000", "095807.430000", "095809.430000", "095811.430000", "095813.430000", "095815.430000", "095817.430000", "095819.430000", "095821.430000", "095823.430000", "095825.430000", "095827.430000", "095829.430000", "095831.430000", "095833.430000", "095835.430000", "095837.430000", "095839.430000", "095841.430000", "095843.430000", "095845.430000", "095847.430000", "095849.430000", "095851.430000", "095853.430000", "095855.430000", "095857.430000", "095859.430000"],
      "ContentTime": ["095310.828000", "095310.831000", "095310.834000", "095310.836000", "095310.846000", "095310.853000", "095310.855000", "095310.858000", "095310.860000", "095310.862000", "095310.865000", "095310.867000", "095310.869000", "095310.871000", "095310.874000", "095310.876000", "095310.878000", "095310.881000", "095310.893000", "095310.896000", "095310.898000", "095310.917000", "095310.919000", "095310.921000", "095310.923000", "095350.823000", "095350.826000", "095350.828000", "095350.831000", "095350.833000", "095350.835000", "095350.837000", "095350.840000", "095350.842000", "095350.844000", "095350.847000", "095350.849000", "095350.852000", "095350.854000", "095350.856000", "095350.859000", "095350.861000", "095350.863000", "095350.866000", "095350.868000", "095430.824000", "095430.827000", "095430.829000", "095430.832000", "095430.834000", "095430.836000", "095430.839000", "095430.841000", "095430.843000", "095430.846000", "095430.848000", "095430.850000", "095430.853000", "095430.855000", "095430.857000", "095430.859000", "095430.862000", "095430.864000", "095430.866000", "095430.869000", "095510.823000", "095510.826000", "095510.828000", "095510.831000", "095510.833000", "095510.835000", "095510.838000", "095510.840000", "095510.842000", "095510.845000", "095510.847000", "095510.849000", "095510.852000", "095510.854000", "095510.856000", "095510.859000", "095510.861000", "095510.863000", "095510.865000", "095510.868000", "095550.823000", "095550.826000", "095550.828000", "095550.830000", "095550.833000", "095550.835000", "095550.837000", "095550.839000", "095550.842000", "095550.844000", "095550.846000", "095550.849000", "095550.851000", "095550.853000", "095550.856000", "095550.858000", "095550.860000", "095550.863000", "095550.865000", "095550.867000", "095630.823000", "095630.826000", "095630.828000", "095630.830000", "095630.833000", "095630.835000", "095630.837000", "095630.840000", "095630.842000", "095630.844000", "095630.847000", "095630.849000", "095630.851000", "095630.854000", "095630.856000", "095630.858000", "095630.861000", "095630.863000", "095630.865000", "095630.868000", "095710.824000", "095710.827000", "095710.829000", "095710.832000", "095710.834000", "095710.836000", "095710.839000", "095710.841000", "095710.844000", "095710.846000", "095710.848000", "095710.851000", "095710.853000", "095710.855000", "095710.858000", "095710.860000", "095710.862000", "095710.865000", "095710.867000", "095710.869000", "095750.823000", "095750.826000", "095750.828000", "095750.830000", "095750.833000", "095750.835000", "095750.837000", "095750.840000", "095750.842000", "095750.844000", "095750.847000", "095750.849000", "095750.851000", "095750.854000", "095750.856000", "095750.859000", "095750.861000", "095750.863000", "095750.865000", "095750.868000", "095830.823000", "095830.826000", "095830.828000", "095830.830000", "095830.833000", "095830.835000", "095830.837000", "095830.840000", "095830.842000", "095830.844000", "095830.847000", "095830.849000", "095830.851000", "095830.858000", "095830.860000", "095830.863000", "095830.865000", "095830.867000", "095830.870000", "095830.872000", "095900.585000", "095900.588000", "095900.590000", "095900.593000", "095900.595000", "095900.598000", "095900.600000", "095900.603000", "095900.605000", "095900.607000", "095900.610000", "095900.612000", "095900.615000", "095900.622000", "095900.625000"],
      "InstanceCreationTime": ["095310.828000", "095310.831000", "095310.834000", "095310.836000", "095310.846000", "095310.853000", "095310.855000", "095310.858000", "095310.860000", "095310.862000", "095310.865000", "095310.867000", "095310.869000", "095310.871000", "095310.874000", "095310.876000", "095310.878000", "095310.881000", "095310.893000", "095310.896000", "095310.898000", "095310.917000", "095310.919000", "095310.921000", "095310.923000", "095350.823000", "095350.826000", "095350.828000", "095350.831000", "095350.833000", "095350.835000", "095350.837000", "095350.840000", "095350.842000", "095350.844000", "095350.847000", "095350.849000", "095350.852000", "095350.854000", "095350.856000", "095350.859000", "095350.861000", "095350.863000", "095350.866000", "095350.868000", "095430.824000", "095430.827000", "095430.829000", "095430.832000", "095430.834000", "095430.836000", "095430.839000", "095430.841000", "095430.843000", "095430.846000", "095430.848000", "095430.850000", "095430.853000", "095430.855000", "095430.857000", "095430.859000", "095430.862000", "095430.864000", "095430.866000", "095430.869000", "095510.823000", "095510.826000", "095510.828000", "095510.831000", "095510.833000", "095510.835000", "095510.838000", "095510.840000", "095510.842000", "095510.845000", "095510.847000", "095510.849000", "095510.852000", "095510.854000", "095510.856000", "095510.859000", "095510.861000", "095510.863000", "095510.865000", "095510.868000", "095550.823000", "095550.826000", "095550.828000", "095550.830000", "095550.833000", "095550.835000", "095550.837000", "095550.839000", "095550.842000", "095550.844000", "095550.846000", "095550.849000", "095550.851000", "095550.853000", "095550.856000", "095550.858000", "095550.860000", "095550.863000", "095550.865000", "095550.867000", "095630.823000", "095630.826000", "095630.828000", "095630.830000", "095630.833000", "095630.835000", "095630.837000", "095630.840000", "095630.842000", "095630.844000", "095630.847000", "095630.849000", "095630.851000", "095630.854000", "095630.856000", "095630.858000", "095630.861000", "095630.863000", "095630.865000", "095630.868000", "095710.824000", "095710.827000", "095710.829000", "095710.832000", "095710.834000", "095710.836000", "095710.839000", "095710.841000", "095710.844000", "095710.846000", "095710.848000", "095710.851000", "095710.853000", "095710.855000", "095710.858000", "095710.860000", "095710.862000", "095710.865000", "095710.867000", "095710.869000", "095750.823000", "095750.826000", "095750.828000", "095750.830000", "095750.833000", "095750.835000", "095750.837000", "095750.840000", "095750.842000", "095750.844000", "095750.847000", "095750.849000", "095750.851000", "095750.854000", "095750.856000", "095750.859000", "095750.861000", "095750.863000", "095750.865000", "095750.868000", "095830.823000", "095830.826000", "095830.828000", "095830.830000", "095830.833000", "095830.835000", "095830.837000", "095830.840000", "095830.842000", "095830.844000", "095830.847000", "095830.849000", "095830.851000", "095830.858000", "095830.860000", "095830.863000", "095830.865000", "095830.867000", "095830.870000", "095830.872000", "095900.585000", "095900.588000", "095900.590000", "095900.593000", "095900.595000", "095900.598000", "095900.600000", "095900.603000", "095900.605000", "095900.607000", "095900.610000", "095900.612000", "095900.615000", "095900.622000", "095900.625000"],
      "InstanceNumber": [1, 2, 3, 4, 5, 6, 7, 8, 9, 10, 11, 12, 13, 14, 15, 16, 17, 18, 19, 20, 21, 22, 23, 24, 25, 26, 27, 28, 29, 30, 31, 32, 33, 34, 35, 36, 37, 38, 39, 40, 41, 42, 43, 44, 45, 46, 47, 48, 49, 50, 51, 52, 53, 54, 55, 56, 57, 58, 59, 60, 61, 62, 63, 64, 65, 66, 67, 68, 69, 70, 71, 72, 73, 74, 75, 76, 77, 78, 79, 80, 81, 82, 83, 84, 85, 86, 87, 88, 89, 90, 91, 92, 93, 94, 95, 96, 97, 98, 99, 100, 101, 102, 103, 104, 105, 106, 107, 108, 109, 110, 111, 112, 113, 114, 115, 116, 117, 118, 119, 120, 121, 122, 123, 124, 125, 126, 127, 128, 129, 130, 131, 132, 133, 134, 135, 136, 137, 138, 139, 140, 141, 142, 143, 144, 145, 146, 147, 148, 149, 150, 151, 152, 153, 154, 155, 156, 157, 158, 159, 160, 161, 162, 163, 164, 165, 166, 167, 168, 169, 170, 171, 172, 173, 174, 175, 176, 177, 178, 179, 180, 181, 182, 183, 184, 185, 186, 187, 188, 189, 190, 191, 192, 193, 194, 195, 196, 197, 198, 199, 200],
      "LargestImagePixelValue": [2043, 2042, 2043, 2042, 2042, 2040, 2041, 2041, 2041, 2040, 2041, 2040, 2043, 2042, 2041, 2042, 2043, 2041, 2042, 2041, 2042, 2042, 2042, 2041, 2041, 2041, 2043, 2041, 2042, 2042, 2042, 2042, 2042, 2044, 2041, 2041, 2043, 2042, 2043, 2042, 2044, 2043, 2043, 2044, 2043, 2043, 2042, 2041, 2042, 2041, 2040, 2041, 2041, 2042, 2041, 2042, 2042, 2043, 2043, 2042, 2043, 2041, 2041, 2040, 2042, 2041, 2042, 2040, 2041, 2040, 2043, 2041, 2040, 2039, 2042, 2041, 2042, 2040, 2041, 2042, 2040, 2040, 2040, 2041, 2041, 2041, 2040, 2041, 2043, 2040, 2040, 2039, 2039, 2041, 2041, 2039, 2039, 2041, 2040, 2039, 2041, 2041, 2041, 2041, 2041, 2040, 2039, 2041, 2041, 2040, 2041, 2041, 2040, 2038, 2038, 2040, 2040, 2038, 2040, 2042, 2040, 2041, 2039, 2040, 2040, 2041, 2042, 2041, 2041, 2039, 2039, 2040, 2039, 2040, 2038, 2040, 2040, 2040, 2040, 2038, 2039, 2040, 2038, 2038, 2038, 2040, 2039, 2038, 2038, 2038, 2038, 2039, 2038, 2041, 2039, 2038, 2039, 2039, 2039, 2040, 2040, 2039, 2040, 2039, 2040, 2039, 2039, 2040, 2041, 2040, 2038, 2040, 2039, 2039, 2037, 2037, 2037, 2037, 2037, 2038, 2038, 2037, 2037, 2039, 2037, 2038, 2037, 2034, 2039, 2038, 2038, 2037, 2038, 2036, 2038, 2037, 2038, 2036, 2037, 2037],
      "WindowCenter": [994.0, 995.0, 994.0, 994.0, 995.0, 994.0, 993.0, 995.0, 992.0, 994.0, 993.0, 992.0, 993.0, 995.0, 994.0, 994.0, 993.0, 994.0, 995.0, 994.0, 993.0, 993.0, 993.0, 993.0, 994.0, 994.0, 994.0, 994.0, 993.0, 994.0, 993.0, 993.0, 993.0, 993.0, 993.0, 993.0, 993.0, 994.0, 993.0, 993.0, 994.0, 992.0, 993.0, 992.0, 994.0, 992.0, 993.0, 993.0, 993.0, 993.0, 993.0, 992.0, 993.0, 993.0, 993.0, 993.0, 993.0, 992.0, 993.0, 993.0, 992.0, 993.0, 993.0, 994.0, 992.0, 993.0, 993.0, 993.0, 993.0, 993.0, 993.0, 993.0, 992.0, 993.0, 992.0, 992.0, 993.0, 993.0, 993.0, 994.0, 991.0, 992.0, 993.0, 992.0, 992.0, 994.0, 994.0, 992.0, 993.0, 992.0, 993.0, 994.0, 992.0, 993.0, 993.0, 992.0, 992.0, 992.0, 993.0, 994.0, 993.0, 993.0, 992.0, 992.0, 993.0, 992.0, 993.0, 992.0, 993.0, 993.0, 993.0, 993.0, 992.0, 992.0, 992.0, 992.0, 993.0, 992.0, 992.0, 993.0, 992.0, 993.0, 992.0, 993.0, 992.0, 992.0, 992.0, 992.0, 993.0, 992.0, 992.0, 993.0, 991.0, 991.0, 991.0, 992.0, 992.0, 992.0, 992.0, 992.0, 992.0, 992.0, 992.0, 991.0, 991.0, 992.0, 992.0, 991.0, 993.0, 992.0, 992.0, 992.0, 992.0, 992.0, 992.0, 991.0, 992.0, 993.0, 992.0, 991.0, 992.0, 992.0, 993.0, 991.0, 992.0, 992.0, 992.0, 991.0, 992.0, 991.0, 991.0, 992.0, 993.0, 992.0, 992.0, 992.0, 992.0, 992.0, 992.0, 991.0, 991.0, 992.0, 992.0, 993.0, 992.0, 992.0, 991.0, 992.0, 992.0, 992.0, 991.0, 992.0, 991.0, 992.0, 991.0, 991.0, 992.0, 991.0, 992.0, 991.0],
      "WindowWidth": [2201.0, 2202.0, 2201.0, 2201.0, 2201.0, 2200.0, 2200.0, 2201.0, 2199.0, 2200.0, 2200.0, 2199.0, 2200.0, 2201.0, 2200.0, 2200.0, 2200.0, 2200.0, 2201.0, 2200.0, 2200.0, 2199.0, 2199.0, 2199.0, 2201.0, 2200.0, 2201.0, 2200.0, 2199.0, 2201.0, 2200.0, 2200.0, 2200.0, 2200.0, 2200.0, 2199.0, 2199.0, 2201.0, 2200.0, 2200.0, 2201.0, 2199.0, 2200.0, 2199.0, 2201.0, 2199.0, 2200.0, 2200.0, 2200.0, 2200.0, 2200.0, 2199.0, 2200.0, 2200.0, 2200.0, 2199.0, 2199.0, 2199.0, 2200.0, 2200.0, 2198.0, 2200.0, 2200.0, 2200.0, 2199.0, 2200.0, 2200.0, 2200.0, 2199.0, 2199.0, 2199.0, 2199.0, 2198.0, 2199.0, 2198.0, 2198.0, 2199.0, 2199.0, 2199.0, 2200.0, 2197.0, 2198.0, 2199.0, 2198.0, 2198.0, 2199.0, 2200.0, 2198.0, 2199.0, 2198.0, 2199.0, 2199.0, 2198.0, 2199.0, 2199.0, 2198.0, 2198.0, 2198.0, 2199.0, 2199.0, 2199.0, 2199.0, 2198.0, 2198.0, 2199.0, 2198.0, 2199.0, 2198.0, 2199.0, 2199.0, 2198.0, 2198.0, 2198.0, 2198.0, 2198.0, 2198.0, 2198.0, 2198.0, 2198.0, 2198.0, 2198.0, 2198.0, 2198.0, 2198.0, 2198.0, 2198.0, 2198.0, 2197.0, 2199.0, 2198.0, 2198.0, 2198.0, 2197.0, 2197.0, 2197.0, 2198.0, 2197.0, 2198.0, 2197.0, 2198.0, 2198.0, 2198.0, 2198.0, 2197.0, 2197.0, 2198.0, 2198.0, 2197.0, 2198.0, 2197.0, 2197.0, 2197.0, 2197.0, 2197.0, 2197.0, 2197.0, 2197.0, 2198.0, 2197.0, 2197.0, 2197.0, 2197.0, 2198.0, 2197.0, 2197.0, 2197.0, 2197.0, 2197.0, 2197.0, 2197.0, 2197.0, 2197.0, 2198.0, 2197.0, 2197.0, 2197.0, 2197.0, 2197.0, 2197.0, 2196.0, 2196.0, 2197.0, 2197.0, 2198.0, 2197.0, 2197.0, 2196.0, 2197.0, 2197.0, 2197.0, 2196.0, 2197.0, 2196.0, 2197.0, 2196.0, 2196.0, 2197.0, 2196.0, 2197.0, 2196.0]
    },
    "slices": {}
  }
}