{
  "AcquisitionMatrixPE": 80,
  "AcquisitionNumber": 1,
  "AcquisitionTime": "10:01:43.190000",
  "BandwidthPerPixelPhaseEncode": 44.643,
  "BaseResolution": 80,
  "BodyPartExamined": "BRAIN",
  "CoilCombinationMethod": "Sum of Squares",
  "ConsistencyInfo": "N4_VE11C_LATEST_20160120",
  "ConversionSoftware": "dcm2niix",
  "ConversionSoftwareVersion": "v1.0.20220720",
  "DerivedVendorReportedEchoSpacing": 0.000559998,
  "DeviceSerialNumber": "66112",
  "DwellTime": 2.7e-06,
  "EchoTime": 0.035,
  "EchoTrainLength": 39,
  "EffectiveEchoSpacing": 0.000279999,
  "FlipAngle": 90,
  "HeudiconvVersion": "0.13.1",
  "ImageOrientationPatientDICOM": [0.979307, 0.20194, 0.0133704, -0.196574, 0.933406, 0.300187],
  "ImageOrientationText": "Tra>Cor(17.3)>Sag(-2.8)",
  "ImageType": [
    "ORIGINAL",
    "PRIMARY",
    "M",
    "ND",
    "NORM",
    "MOSAIC"
],
  "ImagingFrequency": 123.252,
  "InPlanePhaseEncodingDirectionDICOM": "COL",
  "InstitutionAddress": "Maynard 3,Hanover,NH,US,03755",
  "InstitutionName": "Dartmouth College - PBS",
  "InstitutionalDepartmentName": "Department",
  "MRAcquisitionType": "2D",
  "MagneticFieldStrength": 3,
  "Manufacturer": "Siemens",
  "ManufacturersModelName": "Prisma",
  "Modality": "MR",
  "MultibandAccelerationFactor": 4,
  "NonlinearGradientCorrection": false,
  "ParallelReductionFactorInPlane": 2,
  "PartialFourier": 1,
  "PatientPosition": "HFS",
  "PercentPhaseFOV": 100,
  "PercentSampling": 100,
  "PhaseEncodingDirection": "j-",
  "PhaseEncodingSteps": 79,
  "PhaseResolution": 1,
  "PixelBandwidth": 2315,
  "ProcedureStepDescription": "dbic^QA",
  "ProtocolName": "func-bold_task-rest_acq-p2-s4-3.5mm",
  "PulseSequenceDetails": "%SiemensSeq%\\ep2d_bold",
  "ReceiveCoilActiveElements": "HEA;HEP",
  "ReceiveCoilName": "Head_32",
  "ReconMatrixPE": 80,
  "RefLinesPE": 24,
  "RepetitionTime": 2,
  "SAR": 0.0208687,
  "ScanOptions": "FS",
  "ScanningSequence": "EP",
  "SequenceName": "*epfid2d1_80",
  "SequenceVariant": "SK",
  "SeriesDescription": "func-bold_task-rest_acq-p2-s4-3.5mm",
  "SeriesNumber": 7,
  "ShimSetting": [4147, -7698, -7509, 272, -53, -67, -45, 49],
  "SliceThickness": 3.5,
  "SliceTiming": [1.485, 0, 0.99, 0.2475, 1.2375, 0.7425, 1.7325, 0.495, 1.485, 0, 0.99, 0.2475, 1.2375, 0.7425, 1.7325, 0.495, 1.485, 0, 0.99, 0.2475, 1.2375, 0.7425, 1.7325, 0.495, 1.485, 0, 0.99, 0.2475, 1.2375, 0.7425, 1.7325, 0.495],
  "SoftwareVersions": "syngo MR E11",
  "SpacingBetweenSlices": 3.99,
  "StationName": "AWP66112",
  "TaskName": "rest",
  "TotalReadoutTime": 0.0221199,
  "TxRefAmp": 232.227,
  "dcmmeta_affine": [
    [-2.9379196166992188, -0.5897210836410522, -0.1920781284570694, 147.994873046875],
    [-0.6058210134506226, 2.800217628479004, 1.183447241783142, -99.20098876953125],
    [0.040111079812049866, -0.9005608558654785, 3.8056087493896484, -15.862607955932617],
    [0.0, 0.0, 0.0, 1.0]
],
  "dcmmeta_reorient_transform": [
    [0.0, -1.0, 0.0, 79.0],
    [1.0, 0.0, 0.0, 0.0],
    [0.0, 0.0, 1.0, 0.0],
    [0.0, 0.0, 0.0, 1.0]
],
  "dcmmeta_shape": [80, 80, 32, 200],
  "dcmmeta_slice_dim": 2,
  "dcmmeta_version": 0.6,
  "global": {
    "const": {
      "AccessionNumber": "qa",
      "AcquisitionMatrix": [80, 0, 0, 80],
      "AngioFlag": "N",
      "BitsAllocated": 16,
      "BitsStored": 12,
      "BodyPartExamined": "BRAIN",
      "Columns": 480,
      "EchoNumbers": 1,
      "EchoTime": 35.0,
      "EchoTrainLength": 39,
      "FlipAngle": 90.0,
      "HighBit": 11,
      "ImageOrientationPatient": [0.97930655784103, 0.20194033584602, 0.01337036005331, -0.1965736947267, 0.93340589835911, 0.30018696082599],
      "ImagePositionPatient": [-571.04661814172, -803.22395255286, -275.14131024819],
      "ImageType": [
        "ORIGINAL",
        "PRIMARY",
        "M",
        "ND",
        "NORM",
        "MOSAIC"
],
      "ImagedNucleus": "1H",
      "ImagingFrequency": 123.252371,
      "InPlanePhaseEncodingDirection": "COL",
      "MRAcquisitionType": "2D",
      "MagneticFieldStrength": 3.0,
      "Manufacturer": "SIEMENS",
      "ManufacturerModelName": "Prisma",
      "Modality": "MR",
      "NumberOfAverages": 1.0,
      "NumberOfPhaseEncodingSteps": 79,
      "PercentPhaseFieldOfView": 100.0,
      "PercentSampling": 100.0,
      "PerformedProcedureStepStartTime": "094547.171000",
      "PhotometricInterpretation": "MONOCHROME2",
      "PixelBandwidth": 2315.0,
      "PixelRepresentation": 0,
      "PixelSpacing": [3.0, 3.0],
      "ProtocolName": "func-bold_task-rest_acq-p2-s4-3.5mm",
      "RepetitionTime": 2000.0,
      "Rows": 480,
      "SAR": 0.02086868871197,
      "SamplesPerPixel": 1,
      "ScanOptions": "FS",
      "ScanningSequence": "EP",
      "SequenceName": "*epfid2d1_80",
      "SequenceVariant": "SK",
      "SeriesDescription": "func-bold_task-rest_acq-p2-s4-3.5mm",
      "SeriesNumber": 7,
      "SeriesTime": "100228.549000",
      "SliceLocation": -51.677341442297,
      "SliceThickness": 3.5,
      "SmallestImagePixelValue": 0,
      "SoftwareVersions": "syngo MR E11",
      "SpacingBetweenSlices": 3.9899999776781,
      "SpecificCharacterSet": "ISO_IR 100",
      "StudyID": "52",
      "StudyTime": "094547.129000",
      "TransmitCoilName": "Body",
      "VariableFlipAngleFlag": "N",
      "WindowCenter": 928.0,
      "WindowCenterWidthExplanation": "Algo1",
      "dBdt": 0.0},
    "slices": {}
  },
  "time": {
    "samples": {
      "AcquisitionNumber": [1, 2, 3, 4, 5, 6, 7, 8, 9, 10, 11, 12, 13, 14, 15, 16, 17, 18, 19, 20, 21, 22, 23, 24, 25, 26, 27, 28, 29, 30, 31, 32, 33, 34, 35, 36, 37, 38, 39, 40, 41, 42, 43, 44, 45, 46, 47, 48, 49, 50, 51, 52, 53, 54, 55, 56, 57, 58, 59, 60, 61, 62, 63, 64, 65, 66, 67, 68, 69, 70, 71, 72, 73, 74, 75, 76, 77, 78, 79, 80, 81, 82, 83, 84, 85, 86, 87, 88, 89, 90, 91, 92, 93, 94, 95, 96, 97, 98, 99, 100, 101, 102, 103, 104, 105, 106, 107, 108, 109, 110, 111, 112, 113, 114, 115, 116, 117, 118, 119, 120, 121, 122, 123, 124, 125, 126, 127, 128, 129, 130, 131, 132, 133, 134, 135, 136, 137, 138, 139, 140, 141, 142, 143, 144, 145, 146, 147, 148, 149, 150, 151, 152, 153, 154, 155, 156, 157, 158, 159, 160, 161, 162, 163, 164, 165, 166, 167, 168, 169, 170, 171, 172, 173, 174, 175, 176, 177, 178, 179, 180, 181, 182, 183, 184, 185, 186, 187, 188, 189, 190, 191, 192, 193, 194, 195, 196, 197, 198, 199, 200],
      "AcquisitionTime": ["100143.190000", "100145.190000", "100147.190000", "100149.190000", "100151.190000", "100153.190000", "100155.190000", "100157.190000", "100159.190000", "100201.190000", "100203.190000", "100205.190000", "100207.190000", "100209.190000", "100211.190000", "100213.190000", "100215.190000", "100217.190000", "100219.190000", "100221.190000", "100223.190000", "100225.190000", "100227.190000", "100229.190000", "100231.190000", "100233.190000", "100235.190000", "100237.190000", "100239.190000", "100241.190000", "100243.190000", "100245.190000", "100247.190000", "100249.190000", "100251.190000", "100253.190000", "100255.190000", "100257.190000", "100259.190000", "100301.190000", "100303.190000", "100305.190000", "100307.190000", "100309.190000", "100311.190000", "100313.190000", "100315.190000", "100317.190000", "100319.190000", "100321.190000", "100323.190000", "100325.190000", "100327.190000", "100329.190000", "100331.190000", "100333.190000", "100335.190000", "100337.190000", "100339.190000", "100341.190000", "100343.190000", "100345.190000", "100347.190000", "100349.190000", "100351.190000", "100353.190000", "100355.190000", "100357.190000", "100359.190000", "100401.190000", "100403.190000", "100405.190000", "100407.190000", "100409.190000", "100411.190000", "100413.190000", "100415.190000", "100417.190000", "100419.190000", "100421.190000", "100423.190000", "100425.190000", "100427.190000", "100429.190000", "100431.190000", "100433.190000", "100435.190000", "100437.190000", "100439.190000", "100441.190000", "100443.190000", "100445.190000", "100447.190000", "100449.190000", "100451.190000", "100453.190000", "100455.190000", "100457.190000", "100459.190000", "100501.190000", "100503.190000", "100505.190000", "100507.190000", "100509.190000", "100511.190000", "100513.190000", "100515.190000", "100517.190000", "100519.190000", "100521.190000", "100523.190000", "100525.190000", "100527.190000", "100529.190000", "100531.190000", "100533.190000", "100535.190000", "100537.190000", "100539.190000", "100541.190000", "100543.190000", "100545.190000", "100547.190000", "100549.190000", "100551.190000", "100553.190000", "100555.190000", "100557.190000", "100559.190000", "100601.190000", "100603.190000", "100605.190000", "100607.190000", "100609.190000", "100611.190000", "100613.190000", "100615.190000", "100617.190000", "100619.190000", "100621.190000", "100623.190000", "100625.190000", "100627.190000", "100629.190000", "100631.190000", "100633.190000", "100635.190000", "100637.190000", "100639.190000", "100641.190000", "100643.190000", "100645.190000", "100647.190000", "100649.190000", "100651.190000", "100653.190000", "100655.190000", "100657.190000", "100659.190000", "100701.190000", "100703.190000", "100705.190000", "100707.190000", "100709.190000", "100711.190000", "100713.190000", "100715.190000", "100717.190000", "100719.190000", "100721.190000", "100723.190000", "100725.190000", "100727.190000", "100729.190000", "100731.190000", "100733.190000", "100735.190000", "100737.190000", "100739.190000", "100741.190000", "100743.190000", "100745.190000", "100747.190000", "100749.190000", "100751.190000", "100753.190000", "100755.190000", "100757.190000", "100759.190000", "100801.190000", "100803.190000", "100805.190000", "100807.190000", "100809.190000", "100811.190000", "100813.190000", "100815.190000", "100817.190000", "100819.190000", "100821.190000"],
      "ContentTime": ["100228.552000", "100228.556000", "100228.558000", "100228.561000", "100228.564000", "100228.575000", "100228.577000", "100228.580000", "100228.583000", "100228.585000", "100228.588000", "100228.591000", "100228.593000", "100228.596000", "100228.601000", "100228.604000", "100228.606000", "100228.615000", "100228.617000", "100228.620000", "100228.623000", "100228.625000", "100228.628000", "100308.548000", "100308.550000", "100308.553000", "100308.556000", "100308.558000", "100308.561000", "100308.564000", "100308.566000", "100308.569000", "100308.572000", "100308.574000", "100308.577000", "100308.579000", "100308.582000", "100308.585000", "100308.587000", "100308.590000", "100308.593000", "100308.595000", "100308.598000", "100328.547000", "100328.549000", "100328.552000", "100328.555000", "100328.557000", "100328.560000", "100328.569000", "100328.572000", "100328.575000", "100328.577000", "100408.547000", "100408.550000", "100408.552000", "100408.555000", "100408.557000", "100408.560000", "100408.563000", "100408.565000", "100408.568000", "100408.570000", "100408.573000", "100408.576000", "100408.579000", "100408.581000", "100408.584000", "100408.601000", "100408.604000", "100408.606000", "100408.609000", "100408.612000", "100448.548000", "100448.551000", "100448.553000", "100448.556000", "100448.559000", "100448.561000", "100448.564000", "100448.580000", "100448.582000", "100448.585000", "100448.587000", "100448.590000", "100448.593000", "100448.595000", "100448.598000", "100448.601000", "100448.603000", "100448.606000", "100448.608000", "100448.611000", "100528.547000", "100528.550000", "100528.553000", "100528.556000", "100528.559000", "100528.561000", "100528.564000", "100528.567000", "100528.569000", "100528.572000", "100528.575000", "100528.577000", "100528.580000", "100528.583000", "100528.585000", "100528.588000", "100528.591000", "100528.593000", "100528.596000", "100528.599000", "100608.547000", "100608.549000", "100608.552000", "100608.555000", "100608.557000", "100608.560000", "100608.563000", "100608.565000", "100608.568000", "100608.570000", "100608.573000", "100608.576000", "100608.578000", "100608.581000", "100608.584000", "100608.586000", "100608.589000", "100608.592000", "100608.594000", "100608.597000", "100648.548000", "100648.550000", "100648.553000", "100648.556000", "100648.558000", "100648.561000", "100648.564000", "100648.566000", "100648.569000", "100648.571000", "100648.574000", "100648.577000", "100648.579000", "100648.582000", "100648.584000", "100648.587000", "100648.590000", "100648.592000", "100648.595000", "100648.598000", "100728.547000", "100728.550000", "100728.553000", "100728.556000", "100728.558000", "100728.561000", "100728.564000", "100728.566000", "100728.569000", "100728.572000", "100728.574000", "100728.577000", "100728.579000", "100728.582000", "100728.585000", "100728.587000", "100728.590000", "100728.593000", "100728.595000", "100728.598000", "100808.547000", "100808.549000", "100808.552000", "100808.555000", "100808.557000", "100808.560000", "100808.563000", "100808.565000", "100808.568000", "100808.571000", "100808.573000", "100808.576000", "100808.579000", "100808.581000", "100808.584000", "100808.586000", "100808.589000", "100808.592000", "100808.594000", "100808.597000", "100822.176000", "100822.179000", "100822.181000", "100822.184000", "100822.187000", "100822.189000", "100822.192000"],
      "InstanceCreationTime": ["100228.552000", "100228.556000", "100228.558000", "100228.561000", "100228.564000", "100228.575000", "100228.577000", "100228.580000", "100228.583000", "100228.585000", "100228.588000", "100228.591000", "100228.593000", "100228.596000", "100228.601000", "100228.604000", "100228.606000", "100228.615000", "100228.617000", "100228.620000", "100228.623000", "100228.625000", "100228.628000", "100308.548000", "100308.550000", "100308.553000", "100308.556000", "100308.558000", "100308.561000", "100308.564000", "100308.566000", "100308.569000", "100308.572000", "100308.574000", "100308.577000", "100308.579000", "100308.582000", "100308.585000", "100308.587000", "100308.590000", "100308.593000", "100308.595000", "100308.598000", "100328.547000", "100328.549000", "100328.552000", "100328.555000", "100328.557000", "100328.560000", "100328.569000", "100328.572000", "100328.575000", "100328.577000", "100408.547000", "100408.550000", "100408.552000", "100408.555000", "100408.557000", "100408.560000", "100408.563000", "100408.565000", "100408.568000", "100408.570000", "100408.573000", "100408.576000", "100408.579000", "100408.581000", "100408.584000", "100408.601000", "100408.604000", "100408.606000", "100408.609000", "100408.612000", "100448.548000", "100448.551000", "100448.553000", "100448.556000", "100448.559000", "100448.561000", "100448.564000", "100448.580000", "100448.582000", "100448.585000", "100448.587000", "100448.590000", "100448.593000", "100448.595000", "100448.598000", "100448.601000", "100448.603000", "100448.606000", "100448.608000", "100448.611000", "100528.547000", "100528.550000", "100528.553000", "100528.556000", "100528.559000", "100528.561000", "100528.564000", "100528.567000", "100528.569000", "100528.572000", "100528.575000", "100528.577000", "100528.580000", "100528.583000", "100528.585000", "100528.588000", "100528.591000", "100528.593000", "100528.596000", "100528.599000", "100608.547000", "100608.549000", "100608.552000", "100608.555000", "100608.557000", "100608.560000", "100608.563000", "100608.565000", "100608.568000", "100608.570000", "100608.573000", "100608.576000", "100608.578000", "100608.581000", "100608.584000", "100608.586000", "100608.589000", "100608.592000", "100608.594000", "100608.597000", "100648.548000", "100648.550000", "100648.553000", "100648.556000", "100648.558000", "100648.561000", "100648.564000", "100648.566000", "100648.569000", "100648.571000", "100648.574000", "100648.577000", "100648.579000", "100648.582000", "100648.584000", "100648.587000", "100648.590000", "100648.592000", "100648.595000", "100648.598000", "100728.547000", "100728.550000", "100728.553000", "100728.556000", "100728.558000", "100728.561000", "100728.564000", "100728.566000", "100728.569000", "100728.572000", "100728.574000", "100728.577000", "100728.579000", "100728.582000", "100728.585000", "100728.587000", "100728.590000", "100728.593000", "100728.595000", "100728.598000", "100808.547000", "100808.549000", "100808.552000", "100808.555000", "100808.557000", "100808.560000", "100808.563000", "100808.565000", "100808.568000", "100808.571000", "100808.573000", "100808.576000", "100808.579000", "100808.581000", "100808.584000", "100808.586000", "100808.589000", "100808.592000", "100808.594000", "100808.597000", "100822.176000", "100822.179000", "100822.181000", "100822.184000", "100822.187000", "100822.189000", "100822.192000"],
      "InstanceNumber": [1, 2, 3, 4, 5, 6, 7, 8, 9, 10, 11, 12, 13, 14, 15, 16, 17, 18, 19, 20, 21, 22, 23, 24, 25, 26, 27, 28, 29, 30, 31, 32, 33, 34, 35, 36, 37, 38, 39, 40, 41, 42, 43, 44, 45, 46, 47, 48, 49, 50, 51, 52, 53, 54, 55, 56, 57, 58, 59, 60, 61, 62, 63, 64, 65, 66, 67, 68, 69, 70, 71, 72, 73, 74, 75, 76, 77, 78, 79, 80, 81, 82, 83, 84, 85, 86, 87, 88, 89, 90, 91, 92, 93, 94, 95, 96, 97, 98, 99, 100, 101, 102, 103, 104, 105, 106, 107, 108, 109, 110, 111, 112, 113, 114, 115, 116, 117, 118, 119, 120, 121, 122, 123, 124, 125, 126, 127, 128, 129, 130, 131, 132, 133, 134, 135, 136, 137, 138, 139, 140, 141, 142, 143, 144, 145, 146, 147, 148, 149, 150, 151, 152, 153, 154, 155, 156, 157, 158, 159, 160, 161, 162, 163, 164, 165, 166, 167, 168, 169, 170, 171, 172, 173, 174, 175, 176, 177, 178, 179, 180, 181, 182, 183, 184, 185, 186, 187, 188, 189, 190, 191, 192, 193, 194, 195, 196, 197, 198, 199, 200],
      "LargestImagePixelValue": [2143, 2141, 2138, 2142, 2143, 2146, 2144, 2142, 2142, 2144, 2138, 2146, 2144, 2149, 2141, 2139, 2146, 2146, 2147, 2148, 2144, 2140, 2149, 2145, 2143, 2143, 2144, 2140, 2146, 2142, 2142, 2143, 2140, 2139, 2141, 2144, 2138, 2145, 2141, 2143, 2141, 2144, 2144, 2141, 2141, 2138, 2143, 2143, 2145, 2143, 2144, 2137, 2147, 2142, 2148, 2145, 2142, 2140, 2147, 2139, 2144, 2140, 2140, 2143, 2136, 2134, 2143, 2139, 2144, 2138, 2145, 2139, 2144, 2142, 2140, 2139, 2141, 2146, 2141, 2142, 2141, 2145, 2141, 2144, 2145, 2141, 2142, 2141, 2136, 2141, 2145, 2140, 2143, 2143, 2136, 2141, 2138, 2143, 2138, 2136, 2141, 2138, 2141, 2137, 2142, 2142, 2144, 2139, 2140, 2138, 2138, 2139, 2142, 2143, 2142, 2143, 2143, 2142, 2137, 2138, 2137, 2141, 2143, 2141, 2139, 2146, 2137, 2142, 2141, 2140, 2140, 2140, 2141, 2138, 2139, 2137, 2140, 2143, 2141, 2142, 2141, 2144, 2141, 2142, 2137, 2137, 2144, 2141, 2142, 2141, 2142, 2139, 2138, 2140, 2142, 2142, 2143, 2140, 2142, 2139, 2143, 2136, 2140, 2134, 2141, 2142, 2141, 2145, 2138, 2139, 2139, 2139, 2139, 2142, 2143, 2143, 2140, 2141, 2138, 2142, 2136, 2139, 2140, 2142, 2138, 2143, 2139, 2144, 2140, 2140, 2142, 2138, 2139, 2143, 2142, 2138, 2138, 2141, 2140, 2141],
      "WindowWidth": [2120.0, 2121.0, 2121.0, 2121.0, 2121.0, 2121.0, 2121.0, 2121.0, 2121.0, 2121.0, 2121.0, 2121.0, 2121.0, 2121.0, 2121.0, 2121.0, 2121.0, 2121.0, 2121.0, 2121.0, 2121.0, 2121.0, 2121.0, 2121.0, 2121.0, 2121.0, 2121.0, 2121.0, 2121.0, 2121.0, 2121.0, 2121.0, 2121.0, 2121.0, 2121.0, 2121.0, 2121.0, 2121.0, 2121.0, 2121.0, 2121.0, 2122.0, 2121.0, 2121.0, 2121.0, 2122.0, 2121.0, 2121.0, 2121.0, 2121.0, 2121.0, 2121.0, 2121.0, 2121.0, 2122.0, 2121.0, 2122.0, 2121.0, 2121.0, 2122.0, 2122.0, 2122.0, 2121.0, 2122.0, 2121.0, 2122.0, 2122.0, 2122.0, 2121.0, 2122.0, 2122.0, 2122.0, 2122.0, 2122.0, 2122.0, 2122.0, 2122.0, 2121.0, 2122.0, 2122.0, 2122.0, 2122.0, 2122.0, 2121.0, 2122.0, 2122.0, 2122.0, 2122.0, 2122.0, 2122.0, 2121.0, 2122.0, 2122.0, 2122.0, 2122.0, 2122.0, 2122.0, 2122.0, 2122.0, 2122.0, 2122.0, 2122.0, 2122.0, 2122.0, 2122.0, 2122.0, 2122.0, 2122.0, 2122.0, 2122.0, 2122.0, 2122.0, 2122.0, 2122.0, 2122.0, 2122.0, 2122.0, 2122.0, 2122.0, 2122.0, 2122.0, 2122.0, 2122.0, 2122.0, 2122.0, 2122.0, 2122.0, 2122.0, 2122.0, 2122.0, 2122.0, 2122.0, 2122.0, 2122.0, 2122.0, 2122.0, 2122.0, 2122.0, 2122.0, 2122.0, 2122.0, 2122.0, 2122.0, 2122.0, 2122.0, 2122.0, 2122.0, 2122.0, 2122.0, 2122.0, 2122.0, 2122.0, 2122.0, 2122.0, 2122.0, 2122.0, 2122.0, 2122.0, 2122.0, 2122.0, 2122.0, 2122.0, 2122.0, 2122.0, 2122.0, 2122.0, 2122.0, 2122.0, 2122.0, 2122.0, 2122.0, 2122.0, 2122.0, 2122.0, 2122.0, 2122.0, 2122.0, 2122.0, 2122.0, 2122.0, 2122.0, 2122.0, 2122.0, 2122.0, 2122.0, 2122.0, 2122.0, 2122.0, 2122.0, 2122.0, 2122.0, 2122.0, 2122.0, 2122.0, 2122.0, 2122.0, 2122.0, 2122.0, 2122.0, 2122.0]
    },
    "slices": {}
  }
}