{
  "AcquisitionMatrixPE": 80,
  "AcquisitionNumber": 1,
  "AcquisitionTime": "09:54:48.467500",
  "BandwidthPerPixelPhaseEncode": 48.077,
  "BaseResolution": 80,
  "BodyPartExamined": "BRAIN",
  "CoilCombinationMethod": "Sum of Squares",
  "ConsistencyInfo": "N4_VE11C_LATEST_20160120",
  "ConversionSoftware": "dcm2niix",
  "ConversionSoftwareVersion": "v1.0.20220720",
  "DerivedVendorReportedEchoSpacing": 0.000519999,
  "DeviceSerialNumber": "66112",
  "DwellTime": 2.7e-06,
  "EchoTime": 0.035,
  "EchoTrainLength": 39,
  "EffectiveEchoSpacing": 0.00026,
  "FlipAngle": 90,
  "HeudiconvVersion": "0.13.1",
  "ImageOrientationPatientDICOM": [0.979307, 0.20194, 0.0133704, -0.196574, 0.933406, 0.300187],
  "ImageOrientationText": "Tra>Cor(17.3)>Sag(-2.8)",
  "ImageType": [
    "ORIGINAL",
    "PRIMARY",
    "M",
    "ND",
    "NORM",
    "MOSAIC"
],
  "ImagingFrequency": 123.252,
  "InPlanePhaseEncodingDirectionDICOM": "COL",
  "InstitutionAddress": "Maynard 3,Hanover,NH,US,03755",
  "InstitutionName": "Dartmouth College - PBS",
  "InstitutionalDepartmentName": "Department",
  "MRAcquisitionType": "2D",
  "MagneticFieldStrength": 3,
  "Manufacturer": "Siemens",
  "ManufacturersModelName": "Prisma",
  "MatrixCoilMode": "GRAPPA",
  "Modality": "MR",
  "NonlinearGradientCorrection": false,
  "ParallelReductionFactorInPlane": 2,
  "PartialFourier": 1,
  "PatientPosition": "HFS",
  "PercentPhaseFOV": 100,
  "PercentSampling": 100,
  "PhaseEncodingDirection": "j-",
  "PhaseEncodingSteps": 79,
  "PhaseResolution": 1,
  "PixelBandwidth": 2315,
  "ProcedureStepDescription": "dbic^QA",
  "ProtocolName": "func-bold_task-rest_acq-p2",
  "PulseSequenceDetails": "%SiemensSeq%\\ep2d_bold",
  "ReceiveCoilActiveElements": "HEA;HEP",
  "ReceiveCoilName": "Head_32",
  "ReconMatrixPE": 80,
  "RefLinesPE": 24,
  "RepetitionTime": 2,
  "SAR": 0.0554975,
  "ScanOptions": "FS",
  "ScanningSequence": "EP",
  "SequenceName": "*epfid2d1_80",
  "SequenceVariant": "SK",
  "SeriesDescription": "func-bold_task-rest_acq-p2",
  "SeriesNumber": 5,
  "ShimSetting": [4147, -7698, -7510, 272, -53, -63, -45, 49],
  "SliceThickness": 3.5,
  "SliceTiming": [0.99, 0, 1.0575, 0.0675, 1.1225, 0.1325, 1.1875, 0.1975, 1.255, 0.265, 1.32, 0.33, 1.3875, 0.3975, 1.4525, 0.4625, 1.5175, 0.5275, 1.585, 0.595, 1.65, 0.66, 1.7175, 0.7275, 1.7825, 0.7925, 1.8475, 0.8575, 1.915, 0.925],
  "SoftwareVersions": "syngo MR E11",
  "SpacingBetweenSlices": 3.99,
  "StationName": "AWP66112",
  "TaskName": "rest",
  "TotalReadoutTime": 0.02054,
  "TxRefAmp": 232.227,
  "dcmmeta_affine": [
    [-2.9379196166992188, -0.5897210836410522, -0.1920781284570694, 147.80279541015625],
    [-0.6058210134506226, 2.800217628479004, 1.183447241783142, -98.01753997802734],
    [0.040111079812049866, -0.9005608558654785, 3.8056087493896484, -12.057001113891602],
    [0.0, 0.0, 0.0, 1.0]
],
  "dcmmeta_reorient_transform": [
    [0.0, -1.0, 0.0, 79.0],
    [1.0, 0.0, 0.0, 0.0],
    [0.0, 0.0, 1.0, 0.0],
    [0.0, 0.0, 0.0, 1.0]
],
  "dcmmeta_shape": [80, 80, 30, 200],
  "dcmmeta_slice_dim": 2,
  "dcmmeta_version": 0.6,
  "global": {
    "const": {
      "AccessionNumber": "qa",
      "AcquisitionMatrix": [80, 0, 0, 80],
      "AngioFlag": "N",
      "BitsAllocated": 16,
      "BitsStored": 12,
      "BodyPartExamined": "BRAIN",
      "Columns": 480,
      "EchoNumbers": 1,
      "EchoTime": 35.0,
      "EchoTrainLength": 39,
      "FlipAngle": 90.0,
      "HighBit": 11,
      "ImageOrientationPatient": [0.97930655784103, 0.20194033584602, 0.01337036005331, -0.1965736947267, 0.93340589835911, 0.30018696082599],
      "ImagePositionPatient": [-570.85454002817, -804.40739943702, -271.33570340614],
      "ImageType": [
        "ORIGINAL",
        "PRIMARY",
        "M",
        "ND",
        "NORM",
        "MOSAIC"
],
      "ImagedNucleus": "1H",
      "ImagingFrequency": 123.25237,
      "InPlanePhaseEncodingDirection": "COL",
      "MRAcquisitionType": "2D",
      "MagneticFieldStrength": 3.0,
      "Manufacturer": "SIEMENS",
      "ManufacturerModelName": "Prisma",
      "Modality": "MR",
      "NumberOfAverages": 1.0,
      "NumberOfPhaseEncodingSteps": 79,
      "PercentPhaseFieldOfView": 100.0,
      "PercentSampling": 100.0,
      "PerformedProcedureStepStartTime": "094547.171000",
      "PhotometricInterpretation": "MONOCHROME2",
      "PixelBandwidth": 2315.0,
      "PixelRepresentation": 0,
      "PixelSpacing": [3.0, 3.0],
      "ProtocolName": "func-bold_task-rest_acq-p2",
      "RepetitionTime": 2000.0,
      "Rows": 480,
      "SAR": 0.05549753255937,
      "SamplesPerPixel": 1,
      "ScanOptions": "FS",
      "ScanningSequence": "EP",
      "SequenceName": "*epfid2d1_80",
      "SequenceVariant": "SK",
      "SeriesDescription": "func-bold_task-rest_acq-p2",
      "SeriesNumber": 5,
      "SeriesTime": "095528.688000",
      "SliceLocation": -47.687343451632,
      "SliceThickness": 3.5,
      "SmallestImagePixelValue": 0,
      "SoftwareVersions": "syngo MR E11",
      "SpacingBetweenSlices": 3.9899999892512,
      "SpecificCharacterSet": "ISO_IR 100",
      "StudyID": "52",
      "StudyTime": "094547.129000",
      "TransmitCoilName": "Body",
      "VariableFlipAngleFlag": "N",
      "WindowCenterWidthExplanation": "Algo1",
      "dBdt": 0.0},
    "slices": {}
  },
  "time": {
    "samples": {
      "AcquisitionNumber": [1, 2, 3, 4, 5, 6, 7, 8, 9, 10, 11, 12, 13, 14, 15, 16, 17, 18, 19, 20, 21, 22, 23, 24, 25, 26, 27, 28, 29, 30, 31, 32, 33, 34, 35, 36, 37, 38, 39, 40, 41, 42, 43, 44, 45, 46, 47, 48, 49, 50, 51, 52, 53, 54, 55, 56, 57, 58, 59, 60, 61, 62, 63, 64, 65, 66, 67, 68, 69, 70, 71, 72, 73, 74, 75, 76, 77, 78, 79, 80, 81, 82, 83, 84, 85, 86, 87, 88, 89, 90, 91, 92, 93, 94, 95, 96, 97, 98, 99, 100, 101, 102, 103, 104, 105, 106, 107, 108, 109, 110, 111, 112, 113, 114, 115, 116, 117, 118, 119, 120, 121, 122, 123, 124, 125, 126, 127, 128, 129, 130, 131, 132, 133, 134, 135, 136, 137, 138, 139, 140, 141, 142, 143, 144, 145, 146, 147, 148, 149, 150, 151, 152, 153, 154, 155, 156, 157, 158, 159, 160, 161, 162, 163, 164, 165, 166, 167, 168, 169, 170, 171, 172, 173, 174, 175, 176, 177, 178, 179, 180, 181, 182, 183, 184, 185, 186, 187, 188, 189, 190, 191, 192, 193, 194, 195, 196, 197, 198, 199, 200],
      "AcquisitionTime": ["095448.467500", "095450.467500", "095452.467500", "095454.467500", "095456.467500", "095458.467500", "095500.467500", "095502.467500", "095504.467500", "095506.467500", "095508.467500", "095510.467500", "095512.467500", "095514.467500", "095516.467500", "095518.467500", "095520.467500", "095522.467500", "095524.467500", "095526.467500", "095528.467500", "095530.467500", "095532.467500", "095534.467500", "095536.467500", "095538.467500", "095540.467500", "095542.467500", "095544.467500", "095546.467500", "095548.467500", "095550.467500", "095552.467500", "095554.467500", "095556.467500", "095558.467500", "095600.467500", "095602.467500", "095604.467500", "095606.467500", "095608.467500", "095610.467500", "095612.467500", "095614.467500", "095616.467500", "095618.467500", "095620.467500", "095622.467500", "095624.467500", "095626.467500", "095628.467500", "095630.467500", "095632.467500", "095634.467500", "095636.467500", "095638.467500", "095640.467500", "095642.467500", "095644.467500", "095646.467500", "095648.467500", "095650.467500", "095652.467500", "095654.467500", "095656.467500", "095658.467500", "095700.467500", "095702.467500", "095704.467500", "095706.467500", "095708.467500", "095710.467500", "095712.467500", "095714.467500", "095716.467500", "095718.467500", "095720.467500", "095722.467500", "095724.467500", "095726.467500", "095728.467500", "095730.467500", "095732.467500", "095734.467500", "095736.467500", "095738.467500", "095740.467500", "095742.467500", "095744.467500", "095746.467500", "095748.467500", "095750.467500", "095752.467500", "095754.467500", "095756.467500", "095758.467500", "095800.467500", "095802.467500", "095804.467500", "095806.467500", "095808.467500", "095810.467500", "095812.467500", "095814.467500", "095816.467500", "095818.467500", "095820.467500", "095822.467500", "095824.467500", "095826.467500", "095828.467500", "095830.467500", "095832.467500", "095834.467500", "095836.467500", "095838.467500", "095840.467500", "095842.467500", "095844.467500", "095846.467500", "095848.467500", "095850.467500", "095852.467500", "095854.467500", "095856.467500", "095858.467500", "095900.467500", "095902.467500", "095904.467500", "095906.467500", "095908.467500", "095910.467500", "095912.467500", "095914.467500", "095916.467500", "095918.467500", "095920.467500", "095922.467500", "095924.467500", "095926.467500", "095928.467500", "095930.467500", "095932.467500", "095934.467500", "095936.467500", "095938.467500", "095940.467500", "095942.467500", "095944.467500", "095946.467500", "095948.467500", "095950.467500", "095952.467500", "095954.467500", "095956.467500", "095958.467500", "100000.467500", "100002.467500", "100004.467500", "100006.467500", "100008.467500", "100010.467500", "100012.467500", "100014.467500", "100016.467500", "100018.467500", "100020.467500", "100022.467500", "100024.467500", "100026.467500", "100028.467500", "100030.467500", "100032.467500", "100034.467500", "100036.467500", "100038.467500", "100040.467500", "100042.467500", "100044.467500", "100046.467500", "100048.467500", "100050.467500", "100052.467500", "100054.467500", "100056.467500", "100058.467500", "100100.467500", "100102.467500", "100104.467500", "100106.467500", "100108.467500", "100110.467500", "100112.467500", "100114.467500", "100116.467500", "100118.467500", "100120.467500", "100122.467500", "100124.467500", "100126.467500"],
      "ContentTime": ["095528.691000", "095528.695000", "095528.702000", "095528.705000", "095528.707000", "095528.710000", "095528.713000", "095528.715000", "095528.718000", "095528.720000", "095528.723000", "095528.725000", "095528.728000", "095528.731000", "095528.733000", "095528.736000", "095528.739000", "095528.741000", "095528.744000", "095528.746000", "095608.686000", "095608.689000", "095608.692000", "095608.695000", "095608.697000", "095608.700000", "095608.703000", "095608.705000", "095608.708000", "095608.710000", "095608.713000", "095608.715000", "095608.718000", "095608.721000", "095608.723000", "095608.726000", "095608.729000", "095608.731000", "095608.734000", "095608.736000", "095648.685000", "095648.688000", "095648.691000", "095648.694000", "095648.696000", "095648.699000", "095648.701000", "095648.704000", "095648.707000", "095648.709000", "095648.712000", "095648.715000", "095648.717000", "095648.720000", "095648.722000", "095648.725000", "095648.727000", "095648.730000", "095648.733000", "095648.735000", "095728.687000", "095728.689000", "095728.692000", "095728.695000", "095728.697000", "095728.700000", "095728.703000", "095728.705000", "095728.708000", "095728.711000", "095728.713000", "095728.716000", "095728.719000", "095728.721000", "095728.724000", "095728.726000", "095728.729000", "095728.732000", "095728.734000", "095728.737000", "095808.687000", "095808.689000", "095808.692000", "095808.695000", "095808.697000", "095808.700000", "095808.702000", "095808.705000", "095808.708000", "095808.710000", "095808.713000", "095808.715000", "095808.718000", "095808.721000", "095808.723000", "095808.726000", "095808.728000", "095808.731000", "095808.734000", "095808.736000", "095848.686000", "095848.688000", "095848.691000", "095848.694000", "095848.696000", "095848.699000", "095848.702000", "095848.704000", "095848.707000", "095848.709000", "095848.712000", "095848.715000", "095848.717000", "095848.720000", "095848.723000", "095848.725000", "095848.728000", "095848.730000", "095848.733000", "095848.736000", "095928.685000", "095928.688000", "095928.691000", "095928.694000", "095928.696000", "095928.699000", "095928.702000", "095928.704000", "095928.707000", "095928.709000", "095928.712000", "095928.715000", "095928.717000", "095928.720000", "095928.723000", "095928.725000", "095928.728000", "095928.730000", "095928.733000", "095928.736000", "100008.687000", "100008.689000", "100008.692000", "100008.695000", "100008.697000", "100008.700000", "100008.702000", "100008.705000", "100008.708000", "100008.710000", "100008.713000", "100008.716000", "100008.718000", "100008.721000", "100008.723000", "100008.726000", "100008.729000", "100008.731000", "100008.734000", "100008.736000", "100048.687000", "100048.689000", "100048.692000", "100048.695000", "100048.697000", "100048.700000", "100048.703000", "100048.705000", "100048.708000", "100048.710000", "100048.713000", "100048.716000", "100048.718000", "100048.721000", "100048.724000", "100048.726000", "100048.729000", "100048.732000", "100048.734000", "100048.737000", "100128.185000", "100128.188000", "100128.191000", "100128.193000", "100128.196000", "100128.199000", "100128.202000", "100128.204000", "100128.207000", "100128.209000", "100128.212000", "100128.218000", "100128.223000", "100128.226000", "100128.233000", "100128.236000", "100128.243000", "100128.247000", "100128.249000", "100128.252000"],
      "InstanceCreationTime": ["095528.691000", "095528.695000", "095528.702000", "095528.705000", "095528.707000", "095528.710000", "095528.713000", "095528.715000", "095528.718000", "095528.720000", "095528.723000", "095528.725000", "095528.728000", "095528.731000", "095528.733000", "095528.736000", "095528.739000", "095528.741000", "095528.744000", "095528.746000", "095608.686000", "095608.689000", "095608.692000", "095608.695000", "095608.697000", "095608.700000", "095608.703000", "095608.705000", "095608.708000", "095608.710000", "095608.713000", "095608.715000", "095608.718000", "095608.721000", "095608.723000", "095608.726000", "095608.729000", "095608.731000", "095608.734000", "095608.736000", "095648.685000", "095648.688000", "095648.691000", "095648.694000", "095648.696000", "095648.699000", "095648.701000", "095648.704000", "095648.707000", "095648.709000", "095648.712000", "095648.715000", "095648.717000", "095648.720000", "095648.722000", "095648.725000", "095648.727000", "095648.730000", "095648.733000", "095648.735000", "095728.687000", "095728.689000", "095728.692000", "095728.695000", "095728.697000", "095728.700000", "095728.703000", "095728.705000", "095728.708000", "095728.711000", "095728.713000", "095728.716000", "095728.719000", "095728.721000", "095728.724000", "095728.726000", "095728.729000", "095728.732000", "095728.734000", "095728.737000", "095808.687000", "095808.689000", "095808.692000", "095808.695000", "095808.697000", "095808.700000", "095808.702000", "095808.705000", "095808.708000", "095808.710000", "095808.713000", "095808.715000", "095808.718000", "095808.721000", "095808.723000", "095808.726000", "095808.728000", "095808.731000", "095808.734000", "095808.736000", "095848.686000", "095848.688000", "095848.691000", "095848.694000", "095848.696000", "095848.699000", "095848.702000", "095848.704000", "095848.707000", "095848.709000", "095848.712000", "095848.715000", "095848.717000", "095848.720000", "095848.723000", "095848.725000", "095848.728000", "095848.730000", "095848.733000", "095848.736000", "095928.685000", "095928.688000", "095928.691000", "095928.694000", "095928.696000", "095928.699000", "095928.702000", "095928.704000", "095928.707000", "095928.709000", "095928.712000", "095928.715000", "095928.717000", "095928.720000", "095928.723000", "095928.725000", "095928.728000", "095928.730000", "095928.733000", "095928.736000", "100008.687000", "100008.689000", "100008.692000", "100008.695000", "100008.697000", "100008.700000", "100008.702000", "100008.705000", "100008.708000", "100008.710000", "100008.713000", "100008.716000", "100008.718000", "100008.721000", "100008.723000", "100008.726000", "100008.729000", "100008.731000", "100008.734000", "100008.736000", "100048.687000", "100048.689000", "100048.692000", "100048.695000", "100048.697000", "100048.700000", "100048.703000", "100048.705000", "100048.708000", "100048.710000", "100048.713000", "100048.716000", "100048.718000", "100048.721000", "100048.724000", "100048.726000", "100048.729000", "100048.732000", "100048.734000", "100048.737000", "100128.185000", "100128.188000", "100128.191000", "100128.193000", "100128.196000", "100128.199000", "100128.202000", "100128.204000", "100128.207000", "100128.209000", "100128.212000", "100128.218000", "100128.223000", "100128.226000", "100128.233000", "100128.236000", "100128.243000", "100128.247000", "100128.249000", "100128.252000"],
      "InstanceNumber": [1, 2, 3, 4, 5, 6, 7, 8, 9, 10, 11, 12, 13, 14, 15, 16, 17, 18, 19, 20, 21, 22, 23, 24, 25, 26, 27, 28, 29, 30, 31, 32, 33, 34, 35, 36, 37, 38, 39, 40, 41, 42, 43, 44, 45, 46, 47, 48, 49, 50, 51, 52, 53, 54, 55, 56, 57, 58, 59, 60, 61, 62, 63, 64, 65, 66, 67, 68, 69, 70, 71, 72, 73, 74, 75, 76, 77, 78, 79, 80, 81, 82, 83, 84, 85, 86, 87, 88, 89, 90, 91, 92, 93, 94, 95, 96, 97, 98, 99, 100, 101, 102, 103, 104, 105, 106, 107, 108, 109, 110, 111, 112, 113, 114, 115, 116, 117, 118, 119, 120, 121, 122, 123, 124, 125, 126, 127, 128, 129, 130, 131, 132, 133, 134, 135, 136, 137, 138, 139, 140, 141, 142, 143, 144, 145, 146, 147, 148, 149, 150, 151, 152, 153, 154, 155, 156, 157, 158, 159, 160, 161, 162, 163, 164, 165, 166, 167, 168, 169, 170, 171, 172, 173, 174, 175, 176, 177, 178, 179, 180, 181, 182, 183, 184, 185, 186, 187, 188, 189, 190, 191, 192, 193, 194, 195, 196, 197, 198, 199, 200],
      "LargestImagePixelValue": [2114, 2112, 2118, 2121, 2118, 2119, 2119, 2121, 2117, 2118, 2123, 2116, 2118, 2122, 2122, 2118, 2113, 2124, 2122, 2121, 2132, 2124, 2128, 2127, 2114, 2114, 2118, 2121, 2121, 2116, 2120, 2118, 2126, 2115, 2116, 2115, 2131, 2109, 2117, 2114, 2125, 2125, 2118, 2115, 2114, 2118, 2122, 2117, 2125, 2113, 2119, 2129, 2120, 2122, 2117, 2118, 2115, 2114, 2128, 2119, 2123, 2118, 2112, 2116, 2117, 2116, 2122, 2122, 2119, 2120, 2113, 2118, 2120, 2114, 2122, 2114, 2121, 2117, 2114, 2114, 2123, 2118, 2120, 2115, 2120, 2117, 2126, 2119, 2121, 2123, 2120, 2115, 2123, 2123, 2115, 2115, 2115, 2125, 2119, 2115, 2116, 2118, 2119, 2112, 2120, 2124, 2117, 2127, 2114, 2121, 2112, 2109, 2116, 2122, 2122, 2125, 2111, 2120, 2119, 2116, 2114, 2117, 2113, 2113, 2118, 2123, 2117, 2119, 2110, 2123, 2121, 2127, 2117, 2123, 2121, 2116, 2122, 2107, 2116, 2115, 2120, 2126, 2116, 2116, 2113, 2118, 2120, 2118, 2121, 2120, 2117, 2112, 2117, 2121, 2123, 2115, 2122, 2122, 2110, 2117, 2124, 2116, 2121, 2114, 2116, 2121, 2120, 2119, 2117, 2119, 2117, 2117, 2126, 2124, 2121, 2115, 2113, 2116, 2112, 2120, 2117, 2120, 2122, 2116, 2122, 2110, 2115, 2119, 2115, 2119, 2117, 2122, 2119, 2115, 2115, 2117, 2121, 2118, 2120, 2111],
      "WindowCenter": [997.0, 997.0, 996.0, 996.0, 996.0, 996.0, 997.0, 996.0, 996.0, 996.0, 996.0, 996.0, 996.0, 996.0, 996.0, 996.0, 996.0, 996.0, 997.0, 996.0, 997.0, 996.0, 996.0, 996.0, 996.0, 996.0, 996.0, 996.0, 996.0, 996.0, 996.0, 996.0, 996.0, 997.0, 996.0, 996.0, 997.0, 997.0, 996.0, 996.0, 996.0, 996.0, 996.0, 996.0, 996.0, 996.0, 996.0, 996.0, 996.0, 997.0, 996.0, 996.0, 996.0, 996.0, 997.0, 996.0, 996.0, 996.0, 996.0, 996.0, 996.0, 996.0, 996.0, 996.0, 996.0, 997.0, 996.0, 996.0, 996.0, 996.0, 996.0, 996.0, 996.0, 996.0, 996.0, 996.0, 996.0, 997.0, 996.0, 996.0, 996.0, 996.0, 996.0, 997.0, 996.0, 997.0, 996.0, 996.0, 996.0, 996.0, 996.0, 996.0, 997.0, 996.0, 996.0, 996.0, 997.0, 996.0, 996.0, 996.0, 996.0, 996.0, 996.0, 997.0, 996.0, 996.0, 996.0, 996.0, 997.0, 997.0, 996.0, 996.0, 997.0, 997.0, 996.0, 996.0, 996.0, 996.0, 996.0, 996.0, 996.0, 996.0, 996.0, 996.0, 996.0, 996.0, 997.0, 996.0, 996.0, 996.0, 996.0, 996.0, 997.0, 996.0, 996.0, 997.0, 996.0, 996.0, 997.0, 996.0, 996.0, 996.0, 996.0, 996.0, 996.0, 996.0, 996.0, 996.0, 996.0, 996.0, 996.0, 997.0, 997.0, 996.0, 996.0, 996.0, 996.0, 996.0, 996.0, 996.0, 997.0, 996.0, 996.0, 996.0, 996.0, 996.0, 996.0, 996.0, 996.0, 996.0, 996.0, 996.0, 996.0, 996.0, 996.0, 996.0, 996.0, 996.0, 996.0, 996.0, 996.0, 996.0, 996.0, 996.0, 996.0, 996.0, 996.0, 996.0, 996.0, 996.0, 996.0, 996.0, 996.0, 996.0, 996.0, 996.0, 996.0, 996.0, 996.0, 996.0],
      "WindowWidth": [2188.0, 2187.0, 2187.0, 2187.0, 2187.0, 2187.0, 2187.0, 2187.0, 2187.0, 2187.0, 2187.0, 2187.0, 2187.0, 2187.0, 2187.0, 2187.0, 2187.0, 2187.0, 2188.0, 2187.0, 2188.0, 2187.0, 2187.0, 2187.0, 2187.0, 2187.0, 2187.0, 2187.0, 2187.0, 2187.0, 2187.0, 2187.0, 2187.0, 2188.0, 2187.0, 2187.0, 2187.0, 2187.0, 2187.0, 2186.0, 2186.0, 2186.0, 2186.0, 2186.0, 2186.0, 2186.0, 2187.0, 2186.0, 2186.0, 2187.0, 2186.0, 2186.0, 2186.0, 2186.0, 2187.0, 2186.0, 2186.0, 2186.0, 2186.0, 2186.0, 2186.0, 2186.0, 2186.0, 2186.0, 2186.0, 2187.0, 2186.0, 2186.0, 2186.0, 2186.0, 2186.0, 2186.0, 2186.0, 2186.0, 2186.0, 2186.0, 2186.0, 2187.0, 2186.0, 2186.0, 2186.0, 2186.0, 2186.0, 2187.0, 2186.0, 2186.0, 2186.0, 2186.0, 2186.0, 2186.0, 2186.0, 2186.0, 2187.0, 2186.0, 2186.0, 2186.0, 2186.0, 2186.0, 2185.0, 2186.0, 2186.0, 2186.0, 2186.0, 2186.0, 2186.0, 2186.0, 2186.0, 2186.0, 2186.0, 2186.0, 2186.0, 2185.0, 2186.0, 2186.0, 2185.0, 2186.0, 2185.0, 2185.0, 2186.0, 2185.0, 2185.0, 2185.0, 2185.0, 2185.0, 2185.0, 2186.0, 2186.0, 2186.0, 2186.0, 2186.0, 2185.0, 2185.0, 2186.0, 2185.0, 2185.0, 2186.0, 2186.0, 2185.0, 2186.0, 2185.0, 2185.0, 2185.0, 2185.0, 2185.0, 2185.0, 2185.0, 2185.0, 2185.0, 2185.0, 2185.0, 2185.0, 2186.0, 2186.0, 2185.0, 2186.0, 2185.0, 2185.0, 2185.0, 2185.0, 2185.0, 2186.0, 2185.0, 2185.0, 2185.0, 2186.0, 2186.0, 2185.0, 2185.0, 2186.0, 2186.0, 2185.0, 2185.0, 2185.0, 2185.0, 2185.0, 2185.0, 2185.0, 2185.0, 2185.0, 2185.0, 2185.0, 2185.0, 2185.0, 2185.0, 2185.0, 2185.0, 2185.0, 2185.0, 2185.0, 2185.0, 2185.0, 2185.0, 2185.0, 2185.0, 2185.0, 2186.0, 2185.0, 2186.0, 2185.0, 2185.0]
    },
    "slices": {}
  }
}