{
  "AcquisitionMatrixPE": 80,
  "AcquisitionNumber": 1,
  "AcquisitionTime": "10:08:32.482500",
  "BandwidthPerPixelPhaseEncode": 25,
  "BaseResolution": 80,
  "BodyPartExamined": "BRAIN",
  "CoilCombinationMethod": "Sum of Squares",
  "ConsistencyInfo": "N4_VE11C_LATEST_20160120",
  "ConversionSoftware": "dcm2niix",
  "ConversionSoftwareVersion": "v1.0.20220720",
  "DerivedVendorReportedEchoSpacing": 0.0005,
  "DeviceSerialNumber": "66112",
  "DwellTime": 2.7e-06,
  "EchoTime": 0.03,
  "EchoTrainLength": 80,
  "EffectiveEchoSpacing": 0.0005,
  "FlipAngle": 77,
  "HeudiconvVersion": "0.13.1",
  "ImageOrientationPatientDICOM": [0.979307, 0.20194, 0.0133704, -0.196574, 0.933406, 0.300187],
  "ImageOrientationText": "Tra>Cor(17.3)>Sag(-2.8)",
  "ImageType": [
    "ORIGINAL",
    "PRIMARY",
    "M",
    "ND",
    "NORM",
    "MOSAIC"
],
  "ImagingFrequency": 123.252,
  "InPlanePhaseEncodingDirectionDICOM": "COL",
  "InstitutionAddress": "Maynard 3,Hanover,NH,US,03755",
  "InstitutionName": "Dartmouth College - PBS",
  "InstitutionalDepartmentName": "Department",
  "MRAcquisitionType": "2D",
  "MagneticFieldStrength": 3,
  "Manufacturer": "Siemens",
  "ManufacturersModelName": "Prisma",
  "MatrixCoilMode": "SENSE",
  "Modality": "MR",
  "NonlinearGradientCorrection": false,
  "PartialFourier": 1,
  "PatientPosition": "HFS",
  "PercentPhaseFOV": 100,
  "PercentSampling": 100,
  "PhaseEncodingDirection": "j-",
  "PhaseEncodingSteps": 80,
  "PhaseResolution": 1,
  "PixelBandwidth": 2315,
  "ProcedureStepDescription": "dbic^QA",
  "ProtocolName": "func-bold_fa-77",
  "PulseSequenceDetails": "%SiemensSeq%\\ep2d_bold",
  "ReceiveCoilActiveElements": "HEA;HEP",
  "ReceiveCoilName": "Head_32",
  "ReconMatrixPE": 80,
  "RepetitionTime": 2,
  "SAR": 0.0436127,
  "ScanOptions": "FS",
  "ScanningSequence": "EP",
  "SequenceName": "*epfid2d1_80",
  "SequenceVariant": "SK",
  "SeriesDescription": "func-bold_fa-77",
  "SeriesNumber": 8,
  "ShimSetting": [4146, -7698, -7510, 273, -52, -66, -46, 49],
  "SliceThickness": 3.5,
  "SliceTiming": [0.99, 0, 1.055, 0.065, 1.1225, 0.1325, 1.1875, 0.1975, 1.2525, 0.2625, 1.32, 0.33, 1.385, 0.395, 1.4525, 0.4625, 1.5175, 0.5275, 1.5825, 0.5925, 1.65, 0.66, 1.715, 0.725, 1.7825, 0.7925, 1.8475, 0.8575, 1.9125, 0.9225],
  "SoftwareVersions": "syngo MR E11",
  "SpacingBetweenSlices": 3.99,
  "StationName": "AWP66112",
  "TotalReadoutTime": 0.0395,
  "TxRefAmp": 232.227,
  "dcmmeta_affine": [
    [-2.9379196166992188, -0.5897210836410522, -0.1920781284570694, 147.76934814453125],
    [-0.6058210134506226, 2.800217628479004, 1.183447241783142, -97.98934936523438],
    [0.040111079812049866, -0.9005608558654785, 3.8056087493896484, -14.083005905151367],
    [0.0, 0.0, 0.0, 1.0]
],
  "dcmmeta_reorient_transform": [
    [0.0, -1.0, 0.0, 79.0],
    [1.0, 0.0, 0.0, 0.0],
    [0.0, 0.0, 1.0, 0.0],
    [0.0, 0.0, 0.0, 1.0]
],
  "dcmmeta_shape": [80, 80, 30, 200],
  "dcmmeta_slice_dim": 2,
  "dcmmeta_version": 0.6,
  "global": {
    "const": {
      "AccessionNumber": "qa",
      "AcquisitionMatrix": [80, 0, 0, 80],
      "AngioFlag": "N",
      "BitsAllocated": 16,
      "BitsStored": 12,
      "BodyPartExamined": "BRAIN",
      "Columns": 480,
      "EchoNumbers": 1,
      "EchoTime": 30.0,
      "EchoTrainLength": 80,
      "FlipAngle": 77.0,
      "HighBit": 11,
      "ImageOrientationPatient": [0.97930655784103, 0.20194033584602, 0.01337036005331, -0.1965736947267, 0.93340589835911, 0.30018696082599],
      "ImagePositionPatient": [-570.82110134561, -804.43559195716, -273.3617081974],
      "ImageType": [
        "ORIGINAL",
        "PRIMARY",
        "M",
        "ND",
        "NORM",
        "MOSAIC"
],
      "ImagedNucleus": "1H",
      "ImagingFrequency": 123.252371,
      "InPlanePhaseEncodingDirection": "COL",
      "MRAcquisitionType": "2D",
      "MagneticFieldStrength": 3.0,
      "Manufacturer": "SIEMENS",
      "ManufacturerModelName": "Prisma",
      "Modality": "MR",
      "NumberOfAverages": 1.0,
      "NumberOfPhaseEncodingSteps": 80,
      "PercentPhaseFieldOfView": 100.0,
      "PercentSampling": 100.0,
      "PerformedProcedureStepStartTime": "094547.171000",
      "PhotometricInterpretation": "MONOCHROME2",
      "PixelBandwidth": 2315.0,
      "PixelRepresentation": 0,
      "PixelSpacing": [3.0, 3.0],
      "ProtocolName": "func-bold_fa-77",
      "RepetitionTime": 2000.0,
      "Rows": 480,
      "SAR": 0.04361273294449,
      "SamplesPerPixel": 1,
      "ScanOptions": "FS",
      "ScanningSequence": "EP",
      "SequenceName": "*epfid2d1_80",
      "SequenceVariant": "SK",
      "SeriesDescription": "func-bold_fa-77",
      "SeriesNumber": 8,
      "SeriesTime": "100928.618000",
      "SliceLocation": -49.609748096332,
      "SliceThickness": 3.5,
      "SmallestImagePixelValue": 0,
      "SoftwareVersions": "syngo MR E11",
      "SpacingBetweenSlices": 3.9899999894491,
      "SpecificCharacterSet": "ISO_IR 100",
      "StudyID": "52",
      "StudyTime": "094547.129000",
      "TransmitCoilName": "Body",
      "VariableFlipAngleFlag": "N",
      "WindowCenterWidthExplanation": "Algo1",
      "dBdt": 0.0},
    "slices": {}
  },
  "time": {
    "samples": {
      "AcquisitionNumber": [1, 2, 3, 4, 5, 6, 7, 8, 9, 10, 11, 12, 13, 14, 15, 16, 17, 18, 19, 20, 21, 22, 23, 24, 25, 26, 27, 28, 29, 30, 31, 32, 33, 34, 35, 36, 37, 38, 39, 40, 41, 42, 43, 44, 45, 46, 47, 48, 49, 50, 51, 52, 53, 54, 55, 56, 57, 58, 59, 60, 61, 62, 63, 64, 65, 66, 67, 68, 69, 70, 71, 72, 73, 74, 75, 76, 77, 78, 79, 80, 81, 82, 83, 84, 85, 86, 87, 88, 89, 90, 91, 92, 93, 94, 95, 96, 97, 98, 99, 100, 101, 102, 103, 104, 105, 106, 107, 108, 109, 110, 111, 112, 113, 114, 115, 116, 117, 118, 119, 120, 121, 122, 123, 124, 125, 126, 127, 128, 129, 130, 131, 132, 133, 134, 135, 136, 137, 138, 139, 140, 141, 142, 143, 144, 145, 146, 147, 148, 149, 150, 151, 152, 153, 154, 155, 156, 157, 158, 159, 160, 161, 162, 163, 164, 165, 166, 167, 168, 169, 170, 171, 172, 173, 174, 175, 176, 177, 178, 179, 180, 181, 182, 183, 184, 185, 186, 187, 188, 189, 190, 191, 192, 193, 194, 195, 196, 197, 198, 199, 200],
      "AcquisitionTime": ["100832.482500", "100834.482500", "100836.482500", "100838.482500", "100840.482500", "100842.482500", "100844.482500", "100846.482500", "100848.482500", "100850.482500", "100852.482500", "100854.482500", "100856.482500", "100858.482500", "100900.482500", "100902.482500", "100904.482500", "100906.482500", "100908.482500", "100910.482500", "100912.482500", "100914.482500", "100916.482500", "100918.482500", "100920.482500", "100922.482500", "100924.482500", "100926.482500", "100928.482500", "100930.482500", "100932.482500", "100934.482500", "100936.482500", "100938.482500", "100940.482500", "100942.482500", "100944.482500", "100946.482500", "100948.482500", "100950.482500", "100952.482500", "100954.482500", "100956.482500", "100958.482500", "101000.482500", "101002.482500", "101004.482500", "101006.482500", "101008.482500", "101010.482500", "101012.482500", "101014.482500", "101016.482500", "101018.482500", "101020.482500", "101022.482500", "101024.482500", "101026.482500", "101028.482500", "101030.482500", "101032.482500", "101034.482500", "101036.482500", "101038.482500", "101040.482500", "101042.482500", "101044.482500", "101046.482500", "101048.482500", "101050.482500", "101052.482500", "101054.482500", "101056.482500", "101058.482500", "101100.482500", "101102.482500", "101104.482500", "101106.482500", "101108.482500", "101110.482500", "101112.482500", "101114.482500", "101116.482500", "101118.482500", "101120.482500", "101122.482500", "101124.482500", "101126.482500", "101128.482500", "101130.482500", "101132.482500", "101134.482500", "101136.482500", "101138.482500", "101140.482500", "101142.482500", "101144.482500", "101146.482500", "101148.482500", "101150.482500", "101152.482500", "101154.482500", "101156.482500", "101158.482500", "101200.482500", "101202.482500", "101204.482500", "101206.482500", "101208.482500", "101210.482500", "101212.482500", "101214.482500", "101216.482500", "101218.482500", "101220.482500", "101222.482500", "101224.482500", "101226.482500", "101228.482500", "101230.482500", "101232.482500", "101234.482500", "101236.482500", "101238.482500", "101240.482500", "101242.482500", "101244.482500", "101246.482500", "101248.482500", "101250.482500", "101252.482500", "101254.482500", "101256.482500", "101258.482500", "101300.482500", "101302.482500", "101304.482500", "101306.482500", "101308.482500", "101310.482500", "101312.482500", "101314.482500", "101316.482500", "101318.482500", "101320.482500", "101322.482500", "101324.482500", "101326.482500", "101328.482500", "101330.482500", "101332.482500", "101334.482500", "101336.482500", "101338.482500", "101340.482500", "101342.482500", "101344.482500", "101346.482500", "101348.482500", "101350.482500", "101352.482500", "101354.482500", "101356.482500", "101358.482500", "101400.482500", "101402.482500", "101404.482500", "101406.482500", "101408.482500", "101410.482500", "101412.482500", "101414.482500", "101416.482500", "101418.482500", "101420.482500", "101422.482500", "101424.482500", "101426.482500", "101428.482500", "101430.482500", "101432.482500", "101434.482500", "101436.482500", "101438.482500", "101440.482500", "101442.482500", "101444.482500", "101446.482500", "101448.482500", "101450.482500", "101452.482500", "101454.482500", "101456.482500", "101458.482500", "101500.482500", "101502.482500", "101504.482500", "101506.482500", "101508.482500", "101510.482500"],
      "ContentTime": ["100928.621000", "100928.625000", "100928.628000", "100928.630000", "100928.633000", "100928.635000", "100928.638000", "100928.640000", "100928.643000", "100928.646000", "100928.648000", "100928.651000", "100928.653000", "100928.656000", "100928.658000", "100928.661000", "100928.664000", "100928.666000", "100928.675000", "100928.678000", "100928.681000", "100928.683000", "100928.686000", "100928.688000", "100928.691000", "100928.694000", "100928.696000", "100928.699000", "101008.615000", "101008.618000", "101008.621000", "101008.624000", "101008.626000", "101008.629000", "101008.631000", "101008.634000", "101008.637000", "101008.639000", "101008.642000", "101008.645000", "101008.647000", "101008.650000", "101008.653000", "101008.655000", "101008.658000", "101008.661000", "101008.663000", "101008.666000", "101048.616000", "101048.618000", "101048.621000", "101048.624000", "101048.626000", "101048.629000", "101048.631000", "101048.634000", "101048.637000", "101048.639000", "101048.642000", "101048.644000", "101048.647000", "101048.650000", "101048.652000", "101048.655000", "101048.657000", "101048.660000", "101048.662000", "101048.665000", "101128.617000", "101128.620000", "101128.622000", "101128.625000", "101128.627000", "101128.630000", "101128.633000", "101128.635000", "101128.638000", "101128.640000", "101128.643000", "101128.645000", "101128.648000", "101128.651000", "101128.653000", "101128.656000", "101128.659000", "101128.661000", "101128.664000", "101128.666000", "101208.617000", "101208.619000", "101208.622000", "101208.625000", "101208.628000", "101208.630000", "101208.633000", "101208.636000", "101208.638000", "101208.641000", "101208.643000", "101208.646000", "101208.649000", "101208.651000", "101208.654000", "101208.656000", "101208.659000", "101208.662000", "101208.664000", "101208.667000", "101248.616000", "101248.618000", "101248.621000", "101248.624000", "101248.626000", "101248.629000", "101248.632000", "101248.634000", "101248.637000", "101248.640000", "101248.642000", "101248.645000", "101248.648000", "101248.650000", "101248.653000", "101248.655000", "101248.658000", "101248.661000", "101248.663000", "101248.666000", "101328.617000", "101328.620000", "101328.622000", "101328.625000", "101328.628000", "101328.630000", "101328.633000", "101328.636000", "101328.638000", "101328.641000", "101328.643000", "101328.646000", "101328.649000", "101328.651000", "101328.654000", "101328.656000", "101328.659000", "101328.662000", "101328.664000", "101328.667000", "101348.617000", "101348.620000", "101348.622000", "101348.625000", "101348.628000", "101348.630000", "101348.633000", "101348.636000", "101348.638000", "101348.641000", "101428.617000", "101428.620000", "101428.622000", "101428.625000", "101428.628000", "101428.630000", "101428.633000", "101428.636000", "101428.638000", "101428.641000", "101428.643000", "101428.646000", "101428.649000", "101428.651000", "101428.654000", "101428.657000", "101428.659000", "101428.662000", "101428.665000", "101428.667000", "101508.616000", "101508.619000", "101508.621000", "101508.624000", "101508.627000", "101508.629000", "101508.632000", "101508.635000", "101508.637000", "101508.640000", "101508.643000", "101508.645000", "101508.648000", "101508.651000", "101508.653000", "101508.656000", "101508.659000", "101508.661000", "101508.664000", "101508.666000", "101512.457000", "101512.460000"],
      "InstanceCreationTime": ["100928.621000", "100928.625000", "100928.628000", "100928.630000", "100928.633000", "100928.635000", "100928.638000", "100928.640000", "100928.643000", "100928.646000", "100928.648000", "100928.651000", "100928.653000", "100928.656000", "100928.658000", "100928.661000", "100928.664000", "100928.666000", "100928.675000", "100928.678000", "100928.681000", "100928.683000", "100928.686000", "100928.688000", "100928.691000", "100928.694000", "100928.696000", "100928.699000", "101008.615000", "101008.618000", "101008.621000", "101008.624000", "101008.626000", "101008.629000", "101008.631000", "101008.634000", "101008.637000", "101008.639000", "101008.642000", "101008.645000", "101008.647000", "101008.650000", "101008.653000", "101008.655000", "101008.658000", "101008.661000", "101008.663000", "101008.666000", "101048.616000", "101048.618000", "101048.621000", "101048.624000", "101048.626000", "101048.629000", "101048.631000", "101048.634000", "101048.637000", "101048.639000", "101048.642000", "101048.644000", "101048.647000", "101048.650000", "101048.652000", "101048.655000", "101048.657000", "101048.660000", "101048.662000", "101048.665000", "101128.617000", "101128.620000", "101128.622000", "101128.625000", "101128.627000", "101128.630000", "101128.633000", "101128.635000", "101128.638000", "101128.640000", "101128.643000", "101128.645000", "101128.648000", "101128.651000", "101128.653000", "101128.656000", "101128.659000", "101128.661000", "101128.664000", "101128.666000", "101208.617000", "101208.619000", "101208.622000", "101208.625000", "101208.628000", "101208.630000", "101208.633000", "101208.636000", "101208.638000", "101208.641000", "101208.643000", "101208.646000", "101208.649000", "101208.651000", "101208.654000", "101208.656000", "101208.659000", "101208.662000", "101208.664000", "101208.667000", "101248.616000", "101248.618000", "101248.621000", "101248.624000", "101248.626000", "101248.629000", "101248.632000", "101248.634000", "101248.637000", "101248.640000", "101248.642000", "101248.645000", "101248.648000", "101248.650000", "101248.653000", "101248.655000", "101248.658000", "101248.661000", "101248.663000", "101248.666000", "101328.617000", "101328.620000", "101328.622000", "101328.625000", "101328.628000", "101328.630000", "101328.633000", "101328.636000", "101328.638000", "101328.641000", "101328.643000", "101328.646000", "101328.649000", "101328.651000", "101328.654000", "101328.656000", "101328.659000", "101328.662000", "101328.664000", "101328.667000", "101348.617000", "101348.620000", "101348.622000", "101348.625000", "101348.628000", "101348.630000", "101348.633000", "101348.636000", "101348.638000", "101348.641000", "101428.617000", "101428.620000", "101428.622000", "101428.625000", "101428.628000", "101428.630000", "101428.633000", "101428.636000", "101428.638000", "101428.641000", "101428.643000", "101428.646000", "101428.649000", "101428.651000", "101428.654000", "101428.657000", "101428.659000", "101428.662000", "101428.665000", "101428.667000", "101508.616000", "101508.619000", "101508.621000", "101508.624000", "101508.627000", "101508.629000", "101508.632000", "101508.635000", "101508.637000", "101508.640000", "101508.643000", "101508.645000", "101508.648000", "101508.651000", "101508.653000", "101508.656000", "101508.659000", "101508.661000", "101508.664000", "101508.666000", "101512.457000", "101512.460000"],
      "InstanceNumber": [1, 2, 3, 4, 5, 6, 7, 8, 9, 10, 11, 12, 13, 14, 15, 16, 17, 18, 19, 20, 21, 22, 23, 24, 25, 26, 27, 28, 29, 30, 31, 32, 33, 34, 35, 36, 37, 38, 39, 40, 41, 42, 43, 44, 45, 46, 47, 48, 49, 50, 51, 52, 53, 54, 55, 56, 57, 58, 59, 60, 61, 62, 63, 64, 65, 66, 67, 68, 69, 70, 71, 72, 73, 74, 75, 76, 77, 78, 79, 80, 81, 82, 83, 84, 85, 86, 87, 88, 89, 90, 91, 92, 93, 94, 95, 96, 97, 98, 99, 100, 101, 102, 103, 104, 105, 106, 107, 108, 109, 110, 111, 112, 113, 114, 115, 116, 117, 118, 119, 120, 121, 122, 123, 124, 125, 126, 127, 128, 129, 130, 131, 132, 133, 134, 135, 136, 137, 138, 139, 140, 141, 142, 143, 144, 145, 146, 147, 148, 149, 150, 151, 152, 153, 154, 155, 156, 157, 158, 159, 160, 161, 162, 163, 164, 165, 166, 167, 168, 169, 170, 171, 172, 173, 174, 175, 176, 177, 178, 179, 180, 181, 182, 183, 184, 185, 186, 187, 188, 189, 190, 191, 192, 193, 194, 195, 196, 197, 198, 199, 200],
      "LargestImagePixelValue": [2103, 2102, 2102, 2101, 2105, 2103, 2104, 2101, 2103, 2102, 2102, 2103, 2101, 2101, 2103, 2101, 2102, 2103, 2102, 2103, 2101, 2101, 2103, 2103, 2105, 2104, 2104, 2103, 2103, 2103, 2104, 2102, 2101, 2103, 2103, 2103, 2105, 2103, 2102, 2104, 2105, 2105, 2105, 2104, 2105, 2107, 2103, 2105, 2105, 2105, 2103, 2104, 2104, 2103, 2105, 2104, 2104, 2104, 2104, 2106, 2103, 2103, 2104, 2105, 2104, 2103, 2106, 2103, 2106, 2104, 2104, 2104, 2104, 2101, 2102, 2100, 2105, 2104, 2105, 2105, 2104, 2104, 2104, 2104, 2104, 2104, 2104, 2104, 2103, 2105, 2106, 2104, 2105, 2104, 2105, 2103, 2106, 2105, 2101, 2105, 2102, 2106, 2106, 2104, 2104, 2105, 2106, 2106, 2106, 2105, 2105, 2105, 2105, 2106, 2106, 2105, 2105, 2102, 2102, 2102, 2104, 2106, 2105, 2105, 2102, 2102, 2102, 2103, 2102, 2103, 2105, 2103, 2103, 2106, 2104, 2106, 2105, 2105, 2104, 2106, 2107, 2103, 2103, 2103, 2104, 2103, 2106, 2104, 2102, 2103, 2103, 2103, 2105, 2102, 2104, 2105, 2104, 2102, 2103, 2102, 2102, 2103, 2102, 2103, 2106, 2105, 2105, 2104, 2105, 2104, 2105, 2106, 2106, 2107, 2105, 2102, 2105, 2105, 2106, 2106, 2105, 2106, 2104, 2104, 2104, 2103, 2105, 2106, 2106, 2104, 2106, 2108, 2105, 2106, 2106, 2105, 2108, 2107, 2105, 2106],
      "WindowCenter": [985.0, 985.0, 985.0, 986.0, 985.0, 985.0, 985.0, 985.0, 986.0, 986.0, 986.0, 985.0, 985.0, 985.0, 985.0, 987.0, 987.0, 986.0, 984.0, 985.0, 985.0, 985.0, 984.0, 987.0, 986.0, 986.0, 985.0, 985.0, 985.0, 986.0, 985.0, 985.0, 985.0, 984.0, 985.0, 984.0, 985.0, 984.0, 984.0, 985.0, 985.0, 986.0, 986.0, 985.0, 985.0, 984.0, 985.0, 986.0, 985.0, 985.0, 986.0, 985.0, 985.0, 985.0, 985.0, 986.0, 985.0, 985.0, 984.0, 985.0, 985.0, 985.0, 985.0, 985.0, 984.0, 984.0, 985.0, 985.0, 985.0, 984.0, 984.0, 984.0, 984.0, 985.0, 983.0, 984.0, 984.0, 986.0, 984.0, 984.0, 984.0, 985.0, 984.0, 985.0, 984.0, 984.0, 984.0, 985.0, 984.0, 983.0, 984.0, 984.0, 985.0, 984.0, 984.0, 985.0, 985.0, 983.0, 984.0, 985.0, 984.0, 985.0, 985.0, 984.0, 985.0, 984.0, 985.0, 985.0, 985.0, 984.0, 984.0, 984.0, 984.0, 983.0, 984.0, 985.0, 985.0, 983.0, 984.0, 985.0, 984.0, 986.0, 984.0, 984.0, 984.0, 984.0, 982.0, 984.0, 983.0, 983.0, 983.0, 984.0, 984.0, 984.0, 983.0, 986.0, 985.0, 984.0, 985.0, 984.0, 982.0, 984.0, 984.0, 984.0, 984.0, 984.0, 985.0, 984.0, 983.0, 984.0, 984.0, 984.0, 984.0, 984.0, 984.0, 983.0, 984.0, 983.0, 983.0, 983.0, 983.0, 983.0, 982.0, 984.0, 985.0, 984.0, 985.0, 985.0, 985.0, 985.0, 984.0, 983.0, 984.0, 985.0, 984.0, 983.0, 984.0, 986.0, 982.0, 985.0, 984.0, 984.0, 984.0, 984.0, 983.0, 983.0, 983.0, 984.0, 984.0, 983.0, 983.0, 983.0, 983.0, 984.0, 984.0, 983.0, 984.0, 983.0, 984.0, 983.0],
      "WindowWidth": [2163.0, 2163.0, 2163.0, 2164.0, 2163.0, 2163.0, 2163.0, 2163.0, 2164.0, 2164.0, 2164.0, 2163.0, 2163.0, 2163.0, 2163.0, 2164.0, 2164.0, 2164.0, 2162.0, 2163.0, 2163.0, 2162.0, 2162.0, 2164.0, 2164.0, 2164.0, 2163.0, 2164.0, 2163.0, 2163.0, 2163.0, 2163.0, 2162.0, 2161.0, 2162.0, 2161.0, 2162.0, 2161.0, 2162.0, 2162.0, 2162.0, 2164.0, 2163.0, 2162.0, 2163.0, 2161.0, 2162.0, 2163.0, 2162.0, 2163.0, 2163.0, 2163.0, 2162.0, 2162.0, 2163.0, 2164.0, 2162.0, 2163.0, 2161.0, 2163.0, 2162.0, 2162.0, 2162.0, 2162.0, 2162.0, 2161.0, 2162.0, 2163.0, 2163.0, 2162.0, 2162.0, 2161.0, 2161.0, 2161.0, 2160.0, 2161.0, 2162.0, 2163.0, 2162.0, 2162.0, 2162.0, 2162.0, 2162.0, 2162.0, 2162.0, 2162.0, 2162.0, 2162.0, 2162.0, 2160.0, 2162.0, 2161.0, 2162.0, 2162.0, 2162.0, 2162.0, 2162.0, 2161.0, 2162.0, 2162.0, 2161.0, 2162.0, 2162.0, 2162.0, 2162.0, 2162.0, 2162.0, 2162.0, 2162.0, 2162.0, 2161.0, 2162.0, 2161.0, 2161.0, 2161.0, 2162.0, 2162.0, 2159.0, 2159.0, 2160.0, 2159.0, 2163.0, 2161.0, 2161.0, 2159.0, 2159.0, 2157.0, 2158.0, 2158.0, 2158.0, 2158.0, 2160.0, 2159.0, 2160.0, 2159.0, 2163.0, 2162.0, 2161.0, 2162.0, 2161.0, 2159.0, 2160.0, 2161.0, 2160.0, 2160.0, 2160.0, 2161.0, 2160.0, 2159.0, 2160.0, 2160.0, 2161.0, 2161.0, 2160.0, 2159.0, 2159.0, 2160.0, 2158.0, 2158.0, 2158.0, 2158.0, 2158.0, 2157.0, 2159.0, 2161.0, 2161.0, 2161.0, 2161.0, 2161.0, 2161.0, 2161.0, 2160.0, 2161.0, 2161.0, 2160.0, 2159.0, 2161.0, 2162.0, 2159.0, 2162.0, 2161.0, 2161.0, 2160.0, 2160.0, 2159.0, 2159.0, 2160.0, 2161.0, 2161.0, 2159.0, 2160.0, 2159.0, 2160.0, 2161.0, 2161.0, 2160.0, 2161.0, 2159.0, 2160.0, 2159.0]
    },
    "slices": {}
  }
}