{
  "AcquisitionMatrixPE": 80,
  "AcquisitionNumber": 1,
  "AcquisitionTime": "10:15:19.485000",
  "BandwidthPerPixelPhaseEncode": 25,
  "BaseResolution": 80,
  "BodyPartExamined": "BRAIN",
  "CoilCombinationMethod": "Sum of Squares",
  "ConsistencyInfo": "N4_VE11C_LATEST_20160120",
  "ConversionSoftware": "dcm2niix",
  "ConversionSoftwareVersion": "v1.0.20220720",
  "DerivedVendorReportedEchoSpacing": 0.0005,
  "DeviceSerialNumber": "66112",
  "DwellTime": 2.7e-06,
  "EchoTime": 0.03,
  "EchoTrainLength": 80,
  "EffectiveEchoSpacing": 0.0005,
  "FlipAngle": 10,
  "HeudiconvVersion": "0.13.1",
  "ImageOrientationPatientDICOM": [0.979307, 0.20194, 0.0133704, -0.196574, 0.933406, 0.300187],
  "ImageOrientationText": "Tra>Cor(17.3)>Sag(-2.8)",
  "ImageType": [
    "ORIGINAL",
    "PRIMARY",
    "M",
    "ND",
    "NORM",
    "MOSAIC"
],
  "ImagingFrequency": 123.252,
  "InPlanePhaseEncodingDirectionDICOM": "COL",
  "InstitutionAddress": "Maynard 3,Hanover,NH,US,03755",
  "InstitutionName": "Dartmouth College - PBS",
  "InstitutionalDepartmentName": "Department",
  "MRAcquisitionType": "2D",
  "MagneticFieldStrength": 3,
  "Manufacturer": "Siemens",
  "ManufacturersModelName": "Prisma",
  "MatrixCoilMode": "SENSE",
  "Modality": "MR",
  "NonlinearGradientCorrection": false,
  "PartialFourier": 1,
  "PatientPosition": "HFS",
  "PercentPhaseFOV": 100,
  "PercentSampling": 100,
  "PhaseEncodingDirection": "j-",
  "PhaseEncodingSteps": 80,
  "PhaseResolution": 1,
  "PixelBandwidth": 2315,
  "ProcedureStepDescription": "dbic^QA",
  "ProtocolName": "func-bold_fa-10",
  "PulseSequenceDetails": "%SiemensSeq%\\ep2d_bold",
  "ReceiveCoilActiveElements": "HEA;HEP",
  "ReceiveCoilName": "Head_32",
  "ReconMatrixPE": 80,
  "RepetitionTime": 2,
  "SAR": 0.0116991,
  "ScanOptions": "FS",
  "ScanningSequence": "EP",
  "SequenceName": "*epfid2d1_80",
  "SequenceVariant": "SK",
  "SeriesDescription": "func-bold_fa-10",
  "SeriesNumber": 10,
  "ShimSetting": [4146, -7698, -7510, 273, -52, -66, -46, 49],
  "SliceThickness": 3.5,
  "SliceTiming": [0.99, 0, 1.055, 0.065, 1.1225, 0.1325, 1.1875, 0.1975, 1.2525, 0.265, 1.32, 0.33, 1.385, 0.395, 1.4525, 0.4625, 1.5175, 0.5275, 1.5825, 0.595, 1.65, 0.66, 1.715, 0.725, 1.7825, 0.7925, 1.8475, 0.8575, 1.9125, 0.925],
  "SoftwareVersions": "syngo MR E11",
  "SpacingBetweenSlices": 3.99,
  "StationName": "AWP66112",
  "TotalReadoutTime": 0.0395,
  "TxRefAmp": 232.227,
  "dcmmeta_affine": [
    [-2.9379196166992188, -0.5897210836410522, -0.1920781284570694, 147.76934814453125],
    [-0.6058210134506226, 2.800217628479004, 1.183447241783142, -97.98934936523438],
    [0.040111079812049866, -0.9005608558654785, 3.8056087493896484, -14.083005905151367],
    [0.0, 0.0, 0.0, 1.0]
],
  "dcmmeta_reorient_transform": [
    [0.0, -1.0, 0.0, 79.0],
    [1.0, 0.0, 0.0, 0.0],
    [0.0, 0.0, 1.0, 0.0],
    [0.0, 0.0, 0.0, 1.0]
],
  "dcmmeta_shape": [80, 80, 30, 200],
  "dcmmeta_slice_dim": 2,
  "dcmmeta_version": 0.6,
  "global": {
    "const": {
      "AccessionNumber": "qa",
      "AcquisitionMatrix": [80, 0, 0, 80],
      "AngioFlag": "N",
      "BitsAllocated": 16,
      "BitsStored": 12,
      "BodyPartExamined": "BRAIN",
      "Columns": 480,
      "EchoNumbers": 1,
      "EchoTime": 30.0,
      "EchoTrainLength": 80,
      "FlipAngle": 10.0,
      "HighBit": 11,
      "ImageOrientationPatient": [0.97930655784103, 0.20194033584602, 0.01337036005331, -0.1965736947267, 0.93340589835911, 0.30018696082599],
      "ImagePositionPatient": [-570.82110134561, -804.43559195716, -273.3617081974],
      "ImageType": [
        "ORIGINAL",
        "PRIMARY",
        "M",
        "ND",
        "NORM",
        "MOSAIC"
],
      "ImagedNucleus": "1H",
      "ImagingFrequency": 123.252376,
      "InPlanePhaseEncodingDirection": "COL",
      "MRAcquisitionType": "2D",
      "MagneticFieldStrength": 3.0,
      "Manufacturer": "SIEMENS",
      "ManufacturerModelName": "Prisma",
      "Modality": "MR",
      "NumberOfAverages": 1.0,
      "NumberOfPhaseEncodingSteps": 80,
      "PercentPhaseFieldOfView": 100.0,
      "PercentSampling": 100.0,
      "PerformedProcedureStepStartTime": "094547.171000",
      "PhotometricInterpretation": "MONOCHROME2",
      "PixelBandwidth": 2315.0,
      "PixelRepresentation": 0,
      "PixelSpacing": [3.0, 3.0],
      "ProtocolName": "func-bold_fa-10",
      "RepetitionTime": 2000.0,
      "Rows": 480,
      "SAR": 0.01169907582453,
      "SamplesPerPixel": 1,
      "ScanOptions": "FS",
      "ScanningSequence": "EP",
      "SequenceName": "*epfid2d1_80",
      "SequenceVariant": "SK",
      "SeriesDescription": "func-bold_fa-10",
      "SeriesNumber": 10,
      "SeriesTime": "101608.688000",
      "SliceLocation": -49.609748096332,
      "SliceThickness": 3.5,
      "SmallestImagePixelValue": 0,
      "SoftwareVersions": "syngo MR E11",
      "SpacingBetweenSlices": 3.9899999894491,
      "SpecificCharacterSet": "ISO_IR 100",
      "StudyID": "52",
      "StudyTime": "094547.129000",
      "TransmitCoilName": "Body",
      "VariableFlipAngleFlag": "N",
      "WindowCenterWidthExplanation": "Algo1",
      "dBdt": 0.0},
    "slices": {}
  },
  "time": {
    "samples": {
      "AcquisitionNumber": [1, 2, 3, 4, 5, 6, 7, 8, 9, 10, 11, 12, 13, 14, 15, 16, 17, 18, 19, 20, 21, 22, 23, 24, 25, 26, 27, 28, 29, 30, 31, 32, 33, 34, 35, 36, 37, 38, 39, 40, 41, 42, 43, 44, 45, 46, 47, 48, 49, 50, 51, 52, 53, 54, 55, 56, 57, 58, 59, 60, 61, 62, 63, 64, 65, 66, 67, 68, 69, 70, 71, 72, 73, 74, 75, 76, 77, 78, 79, 80, 81, 82, 83, 84, 85, 86, 87, 88, 89, 90, 91, 92, 93, 94, 95, 96, 97, 98, 99, 100, 101, 102, 103, 104, 105, 106, 107, 108, 109, 110, 111, 112, 113, 114, 115, 116, 117, 118, 119, 120, 121, 122, 123, 124, 125, 126, 127, 128, 129, 130, 131, 132, 133, 134, 135, 136, 137, 138, 139, 140, 141, 142, 143, 144, 145, 146, 147, 148, 149, 150, 151, 152, 153, 154, 155, 156, 157, 158, 159, 160, 161, 162, 163, 164, 165, 166, 167, 168, 169, 170, 171, 172, 173, 174, 175, 176, 177, 178, 179, 180, 181, 182, 183, 184, 185, 186, 187, 188, 189, 190, 191, 192, 193, 194, 195, 196, 197, 198, 199, 200],
      "AcquisitionTime": ["101519.485000", "101521.485000", "101523.485000", "101525.485000", "101527.485000", "101529.485000", "101531.485000", "101533.485000", "101535.485000", "101537.485000", "101539.485000", "101541.485000", "101543.485000", "101545.485000", "101547.485000", "101549.485000", "101551.485000", "101553.485000", "101555.485000", "101557.485000", "101559.485000", "101601.485000", "101603.485000", "101605.485000", "101607.485000", "101609.485000", "101611.485000", "101613.485000", "101615.485000", "101617.485000", "101619.485000", "101621.485000", "101623.485000", "101625.485000", "101627.485000", "101629.485000", "101631.485000", "101633.485000", "101635.485000", "101637.485000", "101639.485000", "101641.485000", "101643.485000", "101645.485000", "101647.485000", "101649.485000", "101651.485000", "101653.485000", "101655.485000", "101657.485000", "101659.485000", "101701.485000", "101703.485000", "101705.485000", "101707.485000", "101709.485000", "101711.485000", "101713.485000", "101715.485000", "101717.485000", "101719.485000", "101721.485000", "101723.485000", "101725.485000", "101727.485000", "101729.485000", "101731.485000", "101733.485000", "101735.485000", "101737.485000", "101739.485000", "101741.485000", "101743.485000", "101745.485000", "101747.485000", "101749.485000", "101751.485000", "101753.485000", "101755.485000", "101757.485000", "101759.485000", "101801.485000", "101803.485000", "101805.485000", "101807.485000", "101809.485000", "101811.485000", "101813.485000", "101815.485000", "101817.485000", "101819.485000", "101821.485000", "101823.485000", "101825.485000", "101827.485000", "101829.485000", "101831.485000", "101833.485000", "101835.485000", "101837.485000", "101839.485000", "101841.485000", "101843.485000", "101845.485000", "101847.485000", "101849.485000", "101851.485000", "101853.485000", "101855.485000", "101857.485000", "101859.485000", "101901.485000", "101903.485000", "101905.485000", "101907.485000", "101909.485000", "101911.485000", "101913.485000", "101915.485000", "101917.485000", "101919.485000", "101921.485000", "101923.485000", "101925.485000", "101927.485000", "101929.485000", "101931.485000", "101933.485000", "101935.485000", "101937.485000", "101939.485000", "101941.485000", "101943.485000", "101945.485000", "101947.485000", "101949.485000", "101951.485000", "101953.485000", "101955.485000", "101957.485000", "101959.485000", "102001.485000", "102003.485000", "102005.485000", "102007.485000", "102009.485000", "102011.485000", "102013.485000", "102015.485000", "102017.485000", "102019.485000", "102021.485000", "102023.485000", "102025.485000", "102027.485000", "102029.485000", "102031.485000", "102033.485000", "102035.485000", "102037.485000", "102039.485000", "102041.485000", "102043.485000", "102045.485000", "102047.485000", "102049.485000", "102051.485000", "102053.485000", "102055.485000", "102057.485000", "102059.485000", "102101.485000", "102103.485000", "102105.485000", "102107.485000", "102109.485000", "102111.485000", "102113.485000", "102115.485000", "102117.485000", "102119.485000", "102121.485000", "102123.485000", "102125.485000", "102127.485000", "102129.485000", "102131.485000", "102133.485000", "102135.485000", "102137.485000", "102139.485000", "102141.485000", "102143.485000", "102145.485000", "102147.485000", "102149.485000", "102151.485000", "102153.485000", "102155.485000", "102157.485000"],
      "ContentTime": ["101608.691000", "101608.695000", "101608.697000", "101608.700000", "101608.703000", "101608.705000", "101608.708000", "101608.710000", "101608.713000", "101608.722000", "101608.724000", "101608.727000", "101608.729000", "101608.732000", "101608.735000", "101608.737000", "101608.740000", "101608.742000", "101608.745000", "101608.748000", "101608.750000", "101608.753000", "101608.756000", "101608.758000", "101648.687000", "101648.689000", "101648.692000", "101648.694000", "101648.697000", "101648.700000", "101648.702000", "101648.705000", "101648.708000", "101648.710000", "101648.713000", "101648.715000", "101648.718000", "101648.721000", "101648.723000", "101648.726000", "101648.728000", "101648.731000", "101648.734000", "101648.736000", "101728.686000", "101728.688000", "101728.691000", "101728.694000", "101728.696000", "101728.699000", "101728.701000", "101728.704000", "101728.707000", "101728.709000", "101728.712000", "101728.714000", "101728.717000", "101728.720000", "101728.722000", "101728.725000", "101728.728000", "101728.730000", "101728.733000", "101728.735000", "101808.686000", "101808.689000", "101808.692000", "101808.694000", "101808.697000", "101808.700000", "101808.702000", "101808.705000", "101808.708000", "101808.710000", "101808.713000", "101808.715000", "101808.718000", "101808.721000", "101808.723000", "101808.726000", "101808.729000", "101808.731000", "101808.734000", "101808.736000", "101848.687000", "101848.689000", "101848.692000", "101848.695000", "101848.697000", "101848.700000", "101848.702000", "101848.705000", "101848.708000", "101848.710000", "101848.713000", "101848.716000", "101848.718000", "101848.721000", "101848.724000", "101848.726000", "101848.729000", "101848.732000", "101848.734000", "101848.737000", "101928.685000", "101928.688000", "101928.691000", "101928.694000", "101928.696000", "101928.699000", "101928.702000", "101928.704000", "101928.707000", "101928.709000", "101928.712000", "101928.715000", "101928.717000", "101928.720000", "101928.722000", "101928.725000", "101928.728000", "101928.730000", "101928.733000", "101928.736000", "102008.685000", "102008.688000", "102008.691000", "102008.694000", "102008.696000", "102008.699000", "102008.702000", "102008.704000", "102008.707000", "102008.709000", "102008.712000", "102008.715000", "102008.717000", "102008.720000", "102008.722000", "102008.725000", "102008.728000", "102008.730000", "102008.733000", "102008.736000", "102048.686000", "102048.689000", "102048.692000", "102048.695000", "102048.697000", "102048.700000", "102048.702000", "102048.705000", "102048.708000", "102048.710000", "102048.713000", "102048.716000", "102048.718000", "102048.721000", "102048.723000", "102048.726000", "102048.729000", "102048.731000", "102048.734000", "102048.737000", "102128.687000", "102128.689000", "102128.692000", "102128.704000", "102128.706000", "102128.709000", "102128.711000", "102128.714000", "102128.717000", "102128.719000", "102128.722000", "102128.725000", "102128.727000", "102128.730000", "102128.733000", "102128.735000", "102128.738000", "102128.740000", "102128.743000", "102128.746000", "102158.873000", "102158.876000", "102158.878000", "102158.891000", "102158.894000", "102158.896000", "102158.899000", "102158.902000", "102158.910000", "102158.916000", "102158.920000", "102158.925000", "102158.929000", "102158.933000", "102158.936000", "102158.939000"],
      "InstanceCreationTime": ["101608.691000", "101608.695000", "101608.697000", "101608.700000", "101608.703000", "101608.705000", "101608.708000", "101608.710000", "101608.713000", "101608.722000", "101608.724000", "101608.727000", "101608.729000", "101608.732000", "101608.735000", "101608.737000", "101608.740000", "101608.742000", "101608.745000", "101608.748000", "101608.750000", "101608.753000", "101608.756000", "101608.758000", "101648.687000", "101648.689000", "101648.692000", "101648.694000", "101648.697000", "101648.700000", "101648.702000", "101648.705000", "101648.708000", "101648.710000", "101648.713000", "101648.715000", "101648.718000", "101648.721000", "101648.723000", "101648.726000", "101648.728000", "101648.731000", "101648.734000", "101648.736000", "101728.686000", "101728.688000", "101728.691000", "101728.694000", "101728.696000", "101728.699000", "101728.701000", "101728.704000", "101728.707000", "101728.709000", "101728.712000", "101728.714000", "101728.717000", "101728.720000", "101728.722000", "101728.725000", "101728.728000", "101728.730000", "101728.733000", "101728.735000", "101808.686000", "101808.689000", "101808.692000", "101808.694000", "101808.697000", "101808.700000", "101808.702000", "101808.705000", "101808.708000", "101808.710000", "101808.713000", "101808.715000", "101808.718000", "101808.721000", "101808.723000", "101808.726000", "101808.729000", "101808.731000", "101808.734000", "101808.736000", "101848.687000", "101848.689000", "101848.692000", "101848.695000", "101848.697000", "101848.700000", "101848.702000", "101848.705000", "101848.708000", "101848.710000", "101848.713000", "101848.716000", "101848.718000", "101848.721000", "101848.724000", "101848.726000", "101848.729000", "101848.732000", "101848.734000", "101848.737000", "101928.685000", "101928.688000", "101928.691000", "101928.694000", "101928.696000", "101928.699000", "101928.702000", "101928.704000", "101928.707000", "101928.709000", "101928.712000", "101928.715000", "101928.717000", "101928.720000", "101928.722000", "101928.725000", "101928.728000", "101928.730000", "101928.733000", "101928.736000", "102008.685000", "102008.688000", "102008.691000", "102008.694000", "102008.696000", "102008.699000", "102008.702000", "102008.704000", "102008.707000", "102008.709000", "102008.712000", "102008.715000", "102008.717000", "102008.720000", "102008.722000", "102008.725000", "102008.728000", "102008.730000", "102008.733000", "102008.736000", "102048.686000", "102048.689000", "102048.692000", "102048.695000", "102048.697000", "102048.700000", "102048.702000", "102048.705000", "102048.708000", "102048.710000", "102048.713000", "102048.716000", "102048.718000", "102048.721000", "102048.723000", "102048.726000", "102048.729000", "102048.731000", "102048.734000", "102048.737000", "102128.687000", "102128.689000", "102128.692000", "102128.704000", "102128.706000", "102128.709000", "102128.711000", "102128.714000", "102128.717000", "102128.719000", "102128.722000", "102128.725000", "102128.727000", "102128.730000", "102128.733000", "102128.735000", "102128.738000", "102128.740000", "102128.743000", "102128.746000", "102158.873000", "102158.876000", "102158.878000", "102158.891000", "102158.894000", "102158.896000", "102158.899000", "102158.902000", "102158.910000", "102158.916000", "102158.920000", "102158.925000", "102158.929000", "102158.933000", "102158.936000", "102158.939000"],
      "InstanceNumber": [1, 2, 3, 4, 5, 6, 7, 8, 9, 10, 11, 12, 13, 14, 15, 16, 17, 18, 19, 20, 21, 22, 23, 24, 25, 26, 27, 28, 29, 30, 31, 32, 33, 34, 35, 36, 37, 38, 39, 40, 41, 42, 43, 44, 45, 46, 47, 48, 49, 50, 51, 52, 53, 54, 55, 56, 57, 58, 59, 60, 61, 62, 63, 64, 65, 66, 67, 68, 69, 70, 71, 72, 73, 74, 75, 76, 77, 78, 79, 80, 81, 82, 83, 84, 85, 86, 87, 88, 89, 90, 91, 92, 93, 94, 95, 96, 97, 98, 99, 100, 101, 102, 103, 104, 105, 106, 107, 108, 109, 110, 111, 112, 113, 114, 115, 116, 117, 118, 119, 120, 121, 122, 123, 124, 125, 126, 127, 128, 129, 130, 131, 132, 133, 134, 135, 136, 137, 138, 139, 140, 141, 142, 143, 144, 145, 146, 147, 148, 149, 150, 151, 152, 153, 154, 155, 156, 157, 158, 159, 160, 161, 162, 163, 164, 165, 166, 167, 168, 169, 170, 171, 172, 173, 174, 175, 176, 177, 178, 179, 180, 181, 182, 183, 184, 185, 186, 187, 188, 189, 190, 191, 192, 193, 194, 195, 196, 197, 198, 199, 200],
      "LargestImagePixelValue": [360, 361, 360, 360, 359, 360, 360, 362, 360, 361, 360, 361, 360, 359, 358, 355, 358, 356, 355, 355, 358, 357, 359, 361, 355, 356, 356, 357, 358, 358, 356, 356, 356, 356, 359, 361, 361, 359, 357, 356, 361, 358, 355, 356, 357, 358, 355, 355, 357, 356, 356, 356, 356, 356, 356, 355, 355, 356, 359, 356, 360, 356, 355, 356, 358, 354, 355, 362, 360, 356, 355, 356, 356, 354, 355, 357, 358, 358, 355, 355, 359, 356, 356, 356, 356, 355, 360, 355, 356, 360, 356, 354, 356, 357, 358, 361, 355, 356, 357, 355, 356, 357, 359, 357, 356, 357, 357, 360, 361, 361, 361, 360, 361, 360, 360, 360, 359, 359, 361, 360, 357, 355, 361, 359, 357, 360, 360, 360, 361, 357, 361, 361, 360, 360, 359, 361, 361, 359, 360, 362, 360, 361, 361, 361, 360, 359, 359, 360, 361, 361, 361, 361, 360, 362, 361, 360, 361, 359, 359, 359, 362, 360, 361, 360, 360, 360, 361, 360, 360, 360, 360, 360, 361, 359, 360, 360, 360, 359, 360, 361, 360, 361, 361, 360, 361, 359, 360, 361, 361, 360, 361, 363, 362, 361, 360, 361, 361, 358, 361, 362],
      "WindowCenter": [284.0, 284.0, 284.0, 284.0, 284.0, 284.0, 284.0, 284.0, 284.0, 284.0, 284.0, 284.0, 284.0, 284.0, 282.0, 281.0, 282.0, 282.0, 282.0, 282.0, 282.0, 282.0, 282.0, 282.0, 282.0, 282.0, 282.0, 282.0, 282.0, 283.0, 281.0, 282.0, 281.0, 282.0, 282.0, 283.0, 284.0, 283.0, 282.0, 281.0, 282.0, 282.0, 282.0, 282.0, 281.0, 282.0, 282.0, 282.0, 281.0, 282.0, 281.0, 282.0, 282.0, 282.0, 282.0, 282.0, 282.0, 282.0, 282.0, 282.0, 282.0, 281.0, 282.0, 282.0, 282.0, 282.0, 282.0, 282.0, 282.0, 282.0, 282.0, 282.0, 282.0, 281.0, 281.0, 281.0, 282.0, 282.0, 281.0, 281.0, 282.0, 281.0, 282.0, 281.0, 281.0, 281.0, 282.0, 281.0, 281.0, 282.0, 281.0, 281.0, 281.0, 281.0, 281.0, 282.0, 281.0, 281.0, 281.0, 281.0, 281.0, 282.0, 282.0, 283.0, 281.0, 281.0, 282.0, 282.0, 283.0, 284.0, 284.0, 284.0, 284.0, 283.0, 283.0, 284.0, 283.0, 284.0, 283.0, 283.0, 282.0, 281.0, 282.0, 282.0, 282.0, 283.0, 282.0, 282.0, 283.0, 282.0, 283.0, 284.0, 283.0, 284.0, 284.0, 284.0, 283.0, 284.0, 283.0, 283.0, 284.0, 283.0, 283.0, 284.0, 283.0, 283.0, 283.0, 283.0, 283.0, 283.0, 283.0, 283.0, 283.0, 283.0, 283.0, 283.0, 284.0, 283.0, 283.0, 283.0, 283.0, 283.0, 283.0, 283.0, 283.0, 283.0, 283.0, 283.0, 283.0, 283.0, 283.0, 284.0, 283.0, 283.0, 283.0, 283.0, 283.0, 283.0, 283.0, 283.0, 283.0, 283.0, 283.0, 283.0, 283.0, 283.0, 283.0, 284.0, 284.0, 283.0, 283.0, 283.0, 283.0, 283.0, 283.0, 284.0, 283.0, 283.0, 283.0, 283.0],
      "WindowWidth": [620.0, 620.0, 620.0, 620.0, 620.0, 620.0, 620.0, 620.0, 620.0, 620.0, 620.0, 620.0, 620.0, 620.0, 617.0, 615.0, 616.0, 616.0, 615.0, 615.0, 616.0, 616.0, 616.0, 616.0, 615.0, 616.0, 616.0, 615.0, 616.0, 617.0, 614.0, 615.0, 614.0, 616.0, 616.0, 618.0, 619.0, 618.0, 616.0, 615.0, 617.0, 616.0, 615.0, 616.0, 615.0, 616.0, 616.0, 616.0, 614.0, 616.0, 615.0, 616.0, 616.0, 616.0, 616.0, 616.0, 615.0, 616.0, 617.0, 615.0, 616.0, 614.0, 615.0, 615.0, 616.0, 615.0, 616.0, 616.0, 616.0, 615.0, 615.0, 616.0, 616.0, 614.0, 614.0, 614.0, 616.0, 616.0, 614.0, 614.0, 615.0, 614.0, 615.0, 614.0, 614.0, 614.0, 616.0, 614.0, 614.0, 616.0, 615.0, 614.0, 614.0, 614.0, 614.0, 616.0, 614.0, 614.0, 614.0, 614.0, 614.0, 615.0, 616.0, 618.0, 614.0, 614.0, 616.0, 617.0, 618.0, 619.0, 619.0, 619.0, 619.0, 619.0, 619.0, 619.0, 619.0, 619.0, 619.0, 618.0, 616.0, 614.0, 616.0, 616.0, 616.0, 618.0, 616.0, 616.0, 618.0, 616.0, 618.0, 619.0, 618.0, 619.0, 619.0, 619.0, 618.0, 619.0, 619.0, 619.0, 619.0, 619.0, 619.0, 619.0, 618.0, 618.0, 618.0, 618.0, 618.0, 618.0, 618.0, 618.0, 618.0, 618.0, 618.0, 618.0, 619.0, 618.0, 619.0, 618.0, 618.0, 618.0, 618.0, 619.0, 619.0, 618.0, 618.0, 618.0, 618.0, 619.0, 618.0, 619.0, 618.0, 619.0, 618.0, 618.0, 618.0, 618.0, 618.0, 618.0, 618.0, 618.0, 618.0, 618.0, 618.0, 618.0, 618.0, 619.0, 619.0, 619.0, 618.0, 618.0, 618.0, 618.0, 619.0, 619.0, 618.0, 618.0, 618.0, 619.0]
    },
    "slices": {}
  }
}