{
  "AcquisitionMatrixPE": 80,
  "AcquisitionNumber": 1,
  "AcquisitionTime": "10:16:8.415000",
  "BandwidthPerPixelPhaseEncode": 25,
  "BaseResolution": 80,
  "BodyPartExamined": "BRAIN",
  "CoilCombinationMethod": "Sum of Squares",
  "ConsistencyInfo": "N4_VE11E_LATEST_20181129",
  "ConversionSoftware": "dcm2niix",
  "ConversionSoftwareVersion": "v1.0.20220720",
  "DerivedVendorReportedEchoSpacing": 0.0005,
  "DeviceSerialNumber": "66112",
  "DwellTime": 2.7e-06,
  "EchoTime": 0.03,
  "EchoTrainLength": 80,
  "EffectiveEchoSpacing": 0.0005,
  "FlipAngle": 77,
  "HeudiconvVersion": "0.13.1",
  "ImageOrientationPatientDICOM": [0.986175, 0.165494, 0.00836693, -0.159902, 0.937178, 0.310045],
  "ImageOrientationText": "Tra>Cor(17.9)>Sag(-2.5)",
  "ImageType": [
    "ORIGINAL",
    "PRIMARY",
    "M",
    "ND",
    "NORM",
    "MOSAIC"
],
  "ImagingFrequency": 123.261,
  "InPlanePhaseEncodingDirectionDICOM": "COL",
  "InstitutionAddress": "Maynard 3,Hanover,NH,US,03755",
  "InstitutionName": "Dartmouth College - PBS",
  "InstitutionalDepartmentName": "Department",
  "MRAcquisitionType": "2D",
  "MagneticFieldStrength": 3,
  "Manufacturer": "Siemens",
  "ManufacturersModelName": "Prisma",
  "MatrixCoilMode": "SENSE",
  "Modality": "MR",
  "NonlinearGradientCorrection": false,
  "PartialFourier": 1,
  "PatientPosition": "HFS",
  "PercentPhaseFOV": 100,
  "PercentSampling": 100,
  "PhaseEncodingDirection": "j-",
  "PhaseEncodingSteps": 80,
  "PhaseResolution": 1,
  "PixelBandwidth": 2315,
  "ProcedureStepDescription": "dbic^QA",
  "ProtocolName": "func-bold_fa-77",
  "PulseSequenceDetails": "%SiemensSeq%\\ep2d_bold",
  "ReceiveCoilActiveElements": "HEA;HEP",
  "ReceiveCoilName": "Head_32",
  "ReconMatrixPE": 80,
  "RepetitionTime": 2,
  "SAR": 0.0431274,
  "ScanOptions": "FS",
  "ScanningSequence": "EP",
  "SequenceName": "*epfid2d1_80",
  "SequenceVariant": "SK",
  "SeriesDescription": "func-bold_fa-77",
  "SeriesNumber": 7,
  "ShimSetting": [4246, -7721, -7486, -32, -161, -16, -51, 85],
  "SliceThickness": 3.5,
  "SliceTiming": [0.99, 0, 1.055, 0.065, 1.1225, 0.1325, 1.1875, 0.1975, 1.2525, 0.2625, 1.32, 0.33, 1.385, 0.395, 1.45, 0.4625, 1.5175, 0.5275, 1.5825, 0.5925, 1.65, 0.66, 1.715, 0.725, 1.78, 0.7925, 1.8475, 0.8575, 1.9125, 0.9225],
  "SoftwareVersions": "syngo MR E11",
  "SpacingBetweenSlices": 3.99,
  "StationName": "AWP66112",
  "TotalReadoutTime": 0.0395,
  "TxRefAmp": 220.391,
  "dcmmeta_affine": [
    [-2.9585258960723877, -0.47970646619796753, -0.17344272136688232, 140.48983764648438],
    [-0.49648210406303406, 2.811534881591797, 1.2253168821334839, -93.6640625],
    [0.025100793689489365, -0.9301360845565796, 3.7932329177856445, -18.49018096923828],
    [0.0, 0.0, 0.0, 1.0]
],
  "dcmmeta_reorient_transform": [
    [0.0, -1.0, 0.0, 79.0],
    [1.0, 0.0, 0.0, 0.0],
    [0.0, 0.0, 1.0, 0.0],
    [0.0, 0.0, 0.0, 1.0]
],
  "dcmmeta_shape": [80, 80, 30, 200],
  "dcmmeta_slice_dim": 2,
  "dcmmeta_version": 0.6,
  "global": {
    "const": {
      "AccessionNumber": "qa",
      "AcquisitionMatrix": [80, 0, 0, 80],
      "AngioFlag": "N",
      "BitsAllocated": 16,
      "BitsStored": 12,
      "BodyPartExamined": "BRAIN",
      "Columns": 480,
      "EchoNumbers": 1,
      "EchoTime": 30.0,
      "EchoTrainLength": 80,
      "FlipAngle": 77.0,
      "HighBit": 11,
      "ImageOrientationPatient": [0.98617529751049, 0.16549403929424, 0.00836693122813, -0.1599021515563, 0.93717830805206, 0.31004535288298],
      "ImagePositionPatient": [-598.35691333794, -790.05060547782, -283.01830009589],
      "ImageType": [
        "ORIGINAL",
        "PRIMARY",
        "M",
        "ND",
        "NORM",
        "MOSAIC"
],
      "ImagedNucleus": "1H",
      "ImagingFrequency": 123.261228,
      "InPlanePhaseEncodingDirection": "COL",
      "MRAcquisitionType": "2D",
      "MagneticFieldStrength": 3.0,
      "Manufacturer": "SIEMENS",
      "ManufacturerModelName": "Prisma",
      "Modality": "MR",
      "NumberOfAverages": 1.0,
      "NumberOfPhaseEncodingSteps": 80,
      "PercentPhaseFieldOfView": 100.0,
      "PercentSampling": 100.0,
      "PerformedProcedureStepStartTime": "093516.013000",
      "PhotometricInterpretation": "MONOCHROME2",
      "PixelBandwidth": 2315.0,
      "PixelRepresentation": 0,
      "PixelSpacing": [3.0, 3.0],
      "ProtocolName": "func-bold_fa-77",
      "RepetitionTime": 2000.0,
      "Rows": 480,
      "SAR": 0.04312744360806,
      "SamplesPerPixel": 1,
      "ScanOptions": "FS",
      "ScanningSequence": "EP",
      "SequenceName": "*epfid2d1_80",
      "SequenceVariant": "SK",
      "SeriesDescription": "func-bold_fa-77",
      "SeriesNumber": 7,
      "SeriesTime": "101657.683000",
      "SliceLocation": -52.44928735552,
      "SliceThickness": 3.5,
      "SmallestImagePixelValue": 0,
      "SoftwareVersions": "syngo MR E11",
      "SpacingBetweenSlices": 3.9900000549271,
      "SpecificCharacterSet": "ISO_IR 100",
      "StudyID": "47",
      "StudyTime": "093515.937000",
      "TransmitCoilName": "Body",
      "VariableFlipAngleFlag": "N",
      "WindowCenterWidthExplanation": "Algo1"
    },
    "slices": {}
  },
  "time": {
    "samples": {
      "AcquisitionNumber": [1, 2, 3, 4, 5, 6, 7, 8, 9, 10, 11, 12, 13, 14, 15, 16, 17, 18, 19, 20, 21, 22, 23, 24, 25, 26, 27, 28, 29, 30, 31, 32, 33, 34, 35, 36, 37, 38, 39, 40, 41, 42, 43, 44, 45, 46, 47, 48, 49, 50, 51, 52, 53, 54, 55, 56, 57, 58, 59, 60, 61, 62, 63, 64, 65, 66, 67, 68, 69, 70, 71, 72, 73, 74, 75, 76, 77, 78, 79, 80, 81, 82, 83, 84, 85, 86, 87, 88, 89, 90, 91, 92, 93, 94, 95, 96, 97, 98, 99, 100, 101, 102, 103, 104, 105, 106, 107, 108, 109, 110, 111, 112, 113, 114, 115, 116, 117, 118, 119, 120, 121, 122, 123, 124, 125, 126, 127, 128, 129, 130, 131, 132, 133, 134, 135, 136, 137, 138, 139, 140, 141, 142, 143, 144, 145, 146, 147, 148, 149, 150, 151, 152, 153, 154, 155, 156, 157, 158, 159, 160, 161, 162, 163, 164, 165, 166, 167, 168, 169, 170, 171, 172, 173, 174, 175, 176, 177, 178, 179, 180, 181, 182, 183, 184, 185, 186, 187, 188, 189, 190, 191, 192, 193, 194, 195, 196, 197, 198, 199, 200],
      "AcquisitionTime": ["101608.415000", "101610.415000", "101612.415000", "101614.415000", "101616.415000", "101618.415000", "101620.415000", "101622.415000", "101624.415000", "101626.415000", "101628.415000", "101630.415000", "101632.415000", "101634.415000", "101636.415000", "101638.415000", "101640.415000", "101642.415000", "101644.415000", "101646.415000", "101648.415000", "101650.415000", "101652.415000", "101654.415000", "101656.415000", "101658.415000", "101700.415000", "101702.415000", "101704.415000", "101706.415000", "101708.415000", "101710.415000", "101712.415000", "101714.415000", "101716.415000", "101718.415000", "101720.415000", "101722.415000", "101724.415000", "101726.415000", "101728.415000", "101730.415000", "101732.415000", "101734.415000", "101736.415000", "101738.415000", "101740.415000", "101742.415000", "101744.415000", "101746.415000", "101748.415000", "101750.415000", "101752.415000", "101754.415000", "101756.415000", "101758.415000", "101800.415000", "101802.415000", "101804.415000", "101806.415000", "101808.415000", "101810.415000", "101812.415000", "101814.415000", "101816.415000", "101818.415000", "101820.415000", "101822.415000", "101824.415000", "101826.415000", "101828.415000", "101830.415000", "101832.415000", "101834.415000", "101836.415000", "101838.415000", "101840.415000", "101842.415000", "101844.415000", "101846.415000", "101848.415000", "101850.415000", "101852.415000", "101854.415000", "101856.415000", "101858.415000", "101900.415000", "101902.415000", "101904.415000", "101906.415000", "101908.415000", "101910.415000", "101912.415000", "101914.415000", "101916.415000", "101918.415000", "101920.415000", "101922.415000", "101924.415000", "101926.415000", "101928.415000", "101930.415000", "101932.415000", "101934.415000", "101936.415000", "101938.415000", "101940.415000", "101942.415000", "101944.415000", "101946.415000", "101948.415000", "101950.415000", "101952.415000", "101954.415000", "101956.415000", "101958.415000", "102000.415000", "102002.415000", "102004.415000", "102006.415000", "102008.415000", "102010.415000", "102012.415000", "102014.415000", "102016.415000", "102018.415000", "102020.415000", "102022.415000", "102024.415000", "102026.415000", "102028.415000", "102030.415000", "102032.415000", "102034.415000", "102036.415000", "102038.415000", "102040.415000", "102042.415000", "102044.415000", "102046.415000", "102048.415000", "102050.415000", "102052.415000", "102054.415000", "102056.415000", "102058.415000", "102100.415000", "102102.415000", "102104.415000", "102106.415000", "102108.415000", "102110.415000", "102112.415000", "102114.415000", "102116.415000", "102118.415000", "102120.415000", "102122.415000", "102124.415000", "102126.415000", "102128.415000", "102130.415000", "102132.415000", "102134.415000", "102136.415000", "102138.415000", "102140.415000", "102142.415000", "102144.415000", "102146.415000", "102148.415000", "102150.415000", "102152.415000", "102154.415000", "102156.415000", "102158.415000", "102200.415000", "102202.415000", "102204.415000", "102206.415000", "102208.415000", "102210.415000", "102212.415000", "102214.415000", "102216.415000", "102218.415000", "102220.415000", "102222.415000", "102224.415000", "102226.415000", "102228.415000", "102230.415000", "102232.415000", "102234.415000", "102236.415000", "102238.415000", "102240.415000", "102242.415000", "102244.415000", "102246.415000"],
      "ContentTime": ["101657.686000", "101657.689000", "101657.691000", "101657.694000", "101657.696000", "101657.698000", "101657.701000", "101657.703000", "101657.736000", "101657.738000", "101657.740000", "101657.743000", "101657.745000", "101657.747000", "101657.750000", "101657.752000", "101657.757000", "101657.759000", "101657.761000", "101657.764000", "101657.766000", "101657.768000", "101657.770000", "101657.773000", "101737.682000", "101737.685000", "101737.687000", "101737.689000", "101737.692000", "101737.694000", "101737.696000", "101737.698000", "101737.701000", "101737.703000", "101737.705000", "101737.708000", "101737.710000", "101737.712000", "101737.714000", "101737.717000", "101737.719000", "101737.724000", "101737.733000", "101737.735000", "101817.681000", "101817.684000", "101817.686000", "101817.688000", "101817.691000", "101817.693000", "101817.695000", "101817.697000", "101817.700000", "101817.702000", "101817.704000", "101817.707000", "101817.709000", "101817.711000", "101817.713000", "101817.716000", "101817.718000", "101817.720000", "101817.722000", "101817.725000", "101857.681000", "101857.684000", "101857.686000", "101857.688000", "101857.691000", "101857.693000", "101857.695000", "101857.697000", "101857.700000", "101857.702000", "101857.704000", "101857.707000", "101857.709000", "101857.711000", "101857.713000", "101857.716000", "101857.718000", "101857.720000", "101857.723000", "101857.725000", "101937.681000", "101937.684000", "101937.686000", "101937.688000", "101937.691000", "101937.693000", "101937.695000", "101937.697000", "101937.700000", "101937.702000", "101937.704000", "101937.707000", "101937.709000", "101937.711000", "101937.713000", "101937.716000", "101937.718000", "101937.720000", "101937.722000", "101937.725000", "102017.681000", "102017.684000", "102017.686000", "102017.688000", "102017.691000", "102017.693000", "102017.695000", "102017.698000", "102017.700000", "102017.702000", "102017.704000", "102017.707000", "102017.709000", "102017.711000", "102017.714000", "102017.716000", "102017.718000", "102017.720000", "102017.723000", "102017.725000", "102057.681000", "102057.684000", "102057.686000", "102057.688000", "102057.691000", "102057.693000", "102057.695000", "102057.698000", "102057.700000", "102057.702000", "102057.705000", "102057.707000", "102057.709000", "102057.712000", "102057.714000", "102057.716000", "102057.719000", "102057.721000", "102057.723000", "102057.725000", "102137.681000", "102137.684000", "102137.686000", "102137.688000", "102137.691000", "102137.693000", "102137.695000", "102137.698000", "102137.700000", "102137.702000", "102137.705000", "102137.707000", "102137.709000", "102137.711000", "102137.714000", "102137.716000", "102137.718000", "102137.721000", "102137.723000", "102137.725000", "102217.682000", "102217.692000", "102217.694000", "102217.696000", "102217.698000", "102217.701000", "102217.703000", "102217.705000", "102217.708000", "102217.710000", "102217.712000", "102217.714000", "102217.717000", "102217.719000", "102217.721000", "102217.724000", "102217.726000", "102217.728000", "102217.730000", "102217.733000", "102248.419000", "102248.422000", "102248.424000", "102248.427000", "102248.429000", "102248.431000", "102248.434000", "102248.436000", "102248.438000", "102248.440000", "102248.443000", "102248.445000", "102248.448000", "102248.451000", "102248.455000", "102248.457000"],
      "InstanceCreationTime": ["101657.686000", "101657.689000", "101657.691000", "101657.694000", "101657.696000", "101657.698000", "101657.701000", "101657.703000", "101657.736000", "101657.738000", "101657.740000", "101657.743000", "101657.745000", "101657.747000", "101657.750000", "101657.752000", "101657.757000", "101657.759000", "101657.761000", "101657.764000", "101657.766000", "101657.768000", "101657.770000", "101657.773000", "101737.682000", "101737.685000", "101737.687000", "101737.689000", "101737.692000", "101737.694000", "101737.696000", "101737.698000", "101737.701000", "101737.703000", "101737.705000", "101737.708000", "101737.710000", "101737.712000", "101737.714000", "101737.717000", "101737.719000", "101737.724000", "101737.733000", "101737.735000", "101817.681000", "101817.684000", "101817.686000", "101817.688000", "101817.691000", "101817.693000", "101817.695000", "101817.697000", "101817.700000", "101817.702000", "101817.704000", "101817.707000", "101817.709000", "101817.711000", "101817.713000", "101817.716000", "101817.718000", "101817.720000", "101817.722000", "101817.725000", "101857.681000", "101857.684000", "101857.686000", "101857.688000", "101857.691000", "101857.693000", "101857.695000", "101857.697000", "101857.700000", "101857.702000", "101857.704000", "101857.707000", "101857.709000", "101857.711000", "101857.713000", "101857.716000", "101857.718000", "101857.720000", "101857.723000", "101857.725000", "101937.681000", "101937.684000", "101937.686000", "101937.688000", "101937.691000", "101937.693000", "101937.695000", "101937.697000", "101937.700000", "101937.702000", "101937.704000", "101937.707000", "101937.709000", "101937.711000", "101937.713000", "101937.716000", "101937.718000", "101937.720000", "101937.722000", "101937.725000", "102017.681000", "102017.684000", "102017.686000", "102017.688000", "102017.691000", "102017.693000", "102017.695000", "102017.698000", "102017.700000", "102017.702000", "102017.704000", "102017.707000", "102017.709000", "102017.711000", "102017.714000", "102017.716000", "102017.718000", "102017.720000", "102017.723000", "102017.725000", "102057.681000", "102057.684000", "102057.686000", "102057.688000", "102057.691000", "102057.693000", "102057.695000", "102057.698000", "102057.700000", "102057.702000", "102057.705000", "102057.707000", "102057.709000", "102057.712000", "102057.714000", "102057.716000", "102057.719000", "102057.721000", "102057.723000", "102057.725000", "102137.681000", "102137.684000", "102137.686000", "102137.688000", "102137.691000", "102137.693000", "102137.695000", "102137.698000", "102137.700000", "102137.702000", "102137.705000", "102137.707000", "102137.709000", "102137.711000", "102137.714000", "102137.716000", "102137.718000", "102137.721000", "102137.723000", "102137.725000", "102217.682000", "102217.692000", "102217.694000", "102217.696000", "102217.698000", "102217.701000", "102217.703000", "102217.705000", "102217.708000", "102217.710000", "102217.712000", "102217.714000", "102217.717000", "102217.719000", "102217.721000", "102217.724000", "102217.726000", "102217.728000", "102217.730000", "102217.733000", "102248.419000", "102248.422000", "102248.424000", "102248.427000", "102248.429000", "102248.431000", "102248.434000", "102248.436000", "102248.438000", "102248.440000", "102248.443000", "102248.445000", "102248.448000", "102248.451000", "102248.455000", "102248.457000"],
      "InstanceNumber": [1, 2, 3, 4, 5, 6, 7, 8, 9, 10, 11, 12, 13, 14, 15, 16, 17, 18, 19, 20, 21, 22, 23, 24, 25, 26, 27, 28, 29, 30, 31, 32, 33, 34, 35, 36, 37, 38, 39, 40, 41, 42, 43, 44, 45, 46, 47, 48, 49, 50, 51, 52, 53, 54, 55, 56, 57, 58, 59, 60, 61, 62, 63, 64, 65, 66, 67, 68, 69, 70, 71, 72, 73, 74, 75, 76, 77, 78, 79, 80, 81, 82, 83, 84, 85, 86, 87, 88, 89, 90, 91, 92, 93, 94, 95, 96, 97, 98, 99, 100, 101, 102, 103, 104, 105, 106, 107, 108, 109, 110, 111, 112, 113, 114, 115, 116, 117, 118, 119, 120, 121, 122, 123, 124, 125, 126, 127, 128, 129, 130, 131, 132, 133, 134, 135, 136, 137, 138, 139, 140, 141, 142, 143, 144, 145, 146, 147, 148, 149, 150, 151, 152, 153, 154, 155, 156, 157, 158, 159, 160, 161, 162, 163, 164, 165, 166, 167, 168, 169, 170, 171, 172, 173, 174, 175, 176, 177, 178, 179, 180, 181, 182, 183, 184, 185, 186, 187, 188, 189, 190, 191, 192, 193, 194, 195, 196, 197, 198, 199, 200],
      "LargestImagePixelValue": [1966, 1966, 1967, 1968, 1968, 1967, 1967, 1967, 1967, 1968, 1966, 1967, 1967, 1968, 1967, 1966, 1967, 1968, 1969, 1966, 1967, 1967, 1967, 1967, 1968, 1967, 1967, 1966, 1967, 1968, 1968, 1968, 1966, 1966, 1967, 1969, 1966, 1966, 1964, 1966, 1965, 1966, 1965, 1964, 1966, 1966, 1965, 1965, 1964, 1963, 1967, 1967, 1968, 1967, 1967, 1965, 1969, 1965, 1965, 1966, 1965, 1964, 1965, 1966, 1964, 1964, 1966, 1967, 1965, 1968, 1965, 1966, 1967, 1968, 1967, 1968, 1963, 1966, 1964, 1966, 1966, 1965, 1964, 1966, 1966, 1965, 1963, 1964, 1966, 1967, 1965, 1962, 1963, 1965, 1963, 1966, 1965, 1964, 1965, 1964, 1967, 1964, 1963, 1964, 1965, 1964, 1965, 1964, 1965, 1966, 1964, 1962, 1964, 1965, 1963, 1965, 1962, 1964, 1965, 1964, 1964, 1964, 1964, 1964, 1965, 1965, 1964, 1964, 1965, 1964, 1964, 1965, 1964, 1964, 1964, 1964, 1962, 1963, 1963, 1963, 1962, 1961, 1963, 1963, 1964, 1964, 1962, 1963, 1963, 1964, 1963, 1962, 1963, 1966, 1962, 1964, 1965, 1965, 1965, 1962, 1963, 1965, 1963, 1963, 1963, 1964, 1963, 1965, 1963, 1963, 1965, 1965, 1963, 1960, 1962, 1965, 1963, 1961, 1963, 1962, 1962, 1962, 1963, 1962, 1962, 1963, 1963, 1963, 1962, 1964, 1963, 1960, 1962, 1961, 1963, 1963, 1964, 1962, 1962, 1962],
      "WindowCenter": [972.0, 972.0, 972.0, 972.0, 971.0, 972.0, 972.0, 972.0, 972.0, 971.0, 971.0, 972.0, 972.0, 972.0, 972.0, 972.0, 972.0, 972.0, 971.0, 972.0, 972.0, 970.0, 972.0, 972.0, 972.0, 972.0, 972.0, 972.0, 972.0, 972.0, 971.0, 972.0, 972.0, 972.0, 972.0, 972.0, 972.0, 972.0, 972.0, 972.0, 972.0, 972.0, 972.0, 972.0, 971.0, 972.0, 972.0, 972.0, 972.0, 972.0, 972.0, 971.0, 972.0, 972.0, 972.0, 972.0, 972.0, 972.0, 970.0, 972.0, 972.0, 972.0, 972.0, 971.0, 972.0, 972.0, 972.0, 972.0, 972.0, 970.0, 972.0, 971.0, 968.0, 971.0, 971.0, 971.0, 971.0, 971.0, 971.0, 971.0, 970.0, 971.0, 971.0, 971.0, 971.0, 970.0, 971.0, 971.0, 971.0, 972.0, 971.0, 971.0, 971.0, 971.0, 971.0, 970.0, 971.0, 970.0, 971.0, 971.0, 971.0, 971.0, 971.0, 971.0, 970.0, 971.0, 971.0, 971.0, 971.0, 971.0, 971.0, 971.0, 971.0, 971.0, 971.0, 971.0, 971.0, 971.0, 971.0, 971.0, 971.0, 970.0, 971.0, 971.0, 971.0, 971.0, 971.0, 971.0, 971.0, 971.0, 969.0, 971.0, 971.0, 971.0, 971.0, 971.0, 970.0, 971.0, 971.0, 971.0, 971.0, 971.0, 971.0, 969.0, 971.0, 971.0, 971.0, 971.0, 971.0, 971.0, 971.0, 971.0, 971.0, 971.0, 971.0, 971.0, 970.0, 971.0, 971.0, 971.0, 971.0, 971.0, 971.0, 971.0, 971.0, 971.0, 971.0, 971.0, 971.0, 971.0, 971.0, 971.0, 971.0, 970.0, 971.0, 971.0, 971.0, 971.0, 971.0, 969.0, 969.0, 971.0, 971.0, 971.0, 971.0, 971.0, 970.0, 971.0, 971.0, 969.0, 970.0, 971.0, 971.0, 970.0, 970.0, 970.0, 970.0, 970.0, 970.0, 970.0],
      "WindowWidth": [2132.0, 2132.0, 2132.0, 2132.0, 2130.0, 2132.0, 2132.0, 2132.0, 2132.0, 2131.0, 2131.0, 2132.0, 2132.0, 2132.0, 2132.0, 2132.0, 2131.0, 2131.0, 2130.0, 2131.0, 2131.0, 2130.0, 2131.0, 2131.0, 2131.0, 2131.0, 2131.0, 2131.0, 2131.0, 2131.0, 2131.0, 2131.0, 2131.0, 2131.0, 2131.0, 2131.0, 2131.0, 2131.0, 2131.0, 2131.0, 2131.0, 2131.0, 2131.0, 2131.0, 2130.0, 2131.0, 2131.0, 2131.0, 2131.0, 2131.0, 2130.0, 2130.0, 2131.0, 2131.0, 2130.0, 2130.0, 2131.0, 2130.0, 2129.0, 2130.0, 2130.0, 2130.0, 2130.0, 2130.0, 2130.0, 2130.0, 2130.0, 2130.0, 2130.0, 2129.0, 2130.0, 2129.0, 2127.0, 2129.0, 2130.0, 2130.0, 2130.0, 2130.0, 2130.0, 2130.0, 2129.0, 2130.0, 2130.0, 2130.0, 2129.0, 2129.0, 2130.0, 2130.0, 2130.0, 2131.0, 2130.0, 2130.0, 2130.0, 2130.0, 2130.0, 2129.0, 2130.0, 2129.0, 2130.0, 2130.0, 2130.0, 2130.0, 2130.0, 2130.0, 2129.0, 2130.0, 2130.0, 2130.0, 2130.0, 2130.0, 2130.0, 2130.0, 2130.0, 2130.0, 2130.0, 2130.0, 2130.0, 2130.0, 2130.0, 2129.0, 2129.0, 2128.0, 2129.0, 2129.0, 2130.0, 2130.0, 2130.0, 2129.0, 2130.0, 2129.0, 2128.0, 2129.0, 2130.0, 2129.0, 2129.0, 2129.0, 2129.0, 2129.0, 2129.0, 2129.0, 2129.0, 2129.0, 2129.0, 2128.0, 2129.0, 2129.0, 2129.0, 2129.0, 2129.0, 2129.0, 2129.0, 2129.0, 2129.0, 2129.0, 2129.0, 2129.0, 2128.0, 2129.0, 2129.0, 2129.0, 2129.0, 2129.0, 2129.0, 2129.0, 2129.0, 2129.0, 2129.0, 2129.0, 2129.0, 2129.0, 2129.0, 2129.0, 2129.0, 2128.0, 2129.0, 2129.0, 2129.0, 2129.0, 2129.0, 2127.0, 2127.0, 2128.0, 2128.0, 2128.0, 2128.0, 2128.0, 2128.0, 2128.0, 2128.0, 2127.0, 2128.0, 2128.0, 2128.0, 2128.0, 2128.0, 2128.0, 2128.0, 2128.0, 2128.0, 2128.0]
    },
    "slices": {}
  }
}