{
  "AcquisitionMatrixPE": 80,
  "AcquisitionNumber": 1,
  "AcquisitionTime": "10:02:24.722500",
  "BandwidthPerPixelPhaseEncode": 48.077,
  "BaseResolution": 80,
  "BodyPartExamined": "BRAIN",
  "CoilCombinationMethod": "Sum of Squares",
  "ConsistencyInfo": "N4_VE11E_LATEST_20181129",
  "ConversionSoftware": "dcm2niix",
  "ConversionSoftwareVersion": "v1.0.20220720",
  "DerivedVendorReportedEchoSpacing": 0.000519999,
  "DeviceSerialNumber": "66112",
  "DwellTime": 2.7e-06,
  "EchoTime": 0.035,
  "EchoTrainLength": 39,
  "EffectiveEchoSpacing": 0.00026,
  "FlipAngle": 90,
  "HeudiconvVersion": "0.13.1",
  "ImageOrientationPatientDICOM": [0.986175, 0.165494, 0.00836693, -0.159902, 0.937178, 0.310045],
  "ImageOrientationText": "Tra>Cor(17.9)>Sag(-2.5)",
  "ImageType": [
    "ORIGINAL",
    "PRIMARY",
    "M",
    "ND",
    "NORM",
    "MOSAIC"
],
  "ImagingFrequency": 123.261,
  "InPlanePhaseEncodingDirectionDICOM": "COL",
  "InstitutionAddress": "Maynard 3,Hanover,NH,US,03755",
  "InstitutionName": "Dartmouth College - PBS",
  "InstitutionalDepartmentName": "Department",
  "MRAcquisitionType": "2D",
  "MagneticFieldStrength": 3,
  "Manufacturer": "Siemens",
  "ManufacturersModelName": "Prisma",
  "MatrixCoilMode": "GRAPPA",
  "Modality": "MR",
  "NonlinearGradientCorrection": false,
  "ParallelReductionFactorInPlane": 2,
  "PartialFourier": 1,
  "PatientPosition": "HFS",
  "PercentPhaseFOV": 100,
  "PercentSampling": 100,
  "PhaseEncodingDirection": "j-",
  "PhaseEncodingSteps": 79,
  "PhaseResolution": 1,
  "PixelBandwidth": 2315,
  "ProcedureStepDescription": "dbic^QA",
  "ProtocolName": "func-bold_task-rest_acq-p2",
  "PulseSequenceDetails": "%SiemensSeq%\\ep2d_bold",
  "ReceiveCoilActiveElements": "HEA;HEP",
  "ReceiveCoilName": "Head_32",
  "ReconMatrixPE": 80,
  "RefLinesPE": 24,
  "RepetitionTime": 2,
  "SAR": 0.05488,
  "ScanOptions": "FS",
  "ScanningSequence": "EP",
  "SequenceName": "*epfid2d1_80",
  "SequenceVariant": "SK",
  "SeriesDescription": "func-bold_task-rest_acq-p2",
  "SeriesNumber": 5,
  "ShimSetting": [4246, -7721, -7486, -36, -161, -19, -55, 85],
  "SliceThickness": 3.5,
  "SliceTiming": [0.99, 0, 1.055, 0.065, 1.1225, 0.1325, 1.1875, 0.1975, 1.255, 0.265, 1.32, 0.33, 1.385, 0.395, 1.4525, 0.4625, 1.5175, 0.5275, 1.5825, 0.595, 1.65, 0.66, 1.715, 0.725, 1.7825, 0.7925, 1.8475, 0.8575, 1.9125, 0.925],
  "SoftwareVersions": "syngo MR E11",
  "SpacingBetweenSlices": 3.99,
  "StationName": "AWP66112",
  "TaskName": "rest",
  "TotalReadoutTime": 0.02054,
  "TxRefAmp": 220.391,
  "dcmmeta_affine": [
    [-2.9585258960723877, -0.47970646619796753, -0.17344272136688232, 141.14035034179688],
    [-0.49648210406303406, 2.811534881591797, 1.2253168821334839, -97.64546966552734],
    [0.025100793689489365, -0.9301360845565796, 3.7932329177856445, -20.543243408203125],
    [0.0, 0.0, 0.0, 1.0]
],
  "dcmmeta_reorient_transform": [
    [0.0, -1.0, 0.0, 79.0],
    [1.0, 0.0, 0.0, 0.0],
    [0.0, 0.0, 1.0, 0.0],
    [0.0, 0.0, 0.0, 1.0]
],
  "dcmmeta_shape": [80, 80, 30, 200],
  "dcmmeta_slice_dim": 2,
  "dcmmeta_version": 0.6,
  "global": {
    "const": {
      "AccessionNumber": "qa",
      "AcquisitionMatrix": [80, 0, 0, 80],
      "AngioFlag": "N",
      "BitsAllocated": 16,
      "BitsStored": 12,
      "BodyPartExamined": "BRAIN",
      "Columns": 480,
      "EchoNumbers": 1,
      "EchoTime": 35.0,
      "EchoTrainLength": 39,
      "FlipAngle": 90.0,
      "HighBit": 11,
      "ImageOrientationPatient": [0.98617529751049, 0.16549403929424, 0.00836693122813, -0.1599021515563, 0.93717830805206, 0.31004535288298],
      "ImagePositionPatient": [-599.00742627167, -786.0691944976, -285.07136253485],
      "ImageType": [
        "ORIGINAL",
        "PRIMARY",
        "M",
        "ND",
        "NORM",
        "MOSAIC"
],
      "ImagedNucleus": "1H",
      "ImagingFrequency": 123.261228,
      "InPlanePhaseEncodingDirection": "COL",
      "MRAcquisitionType": "2D",
      "MagneticFieldStrength": 3.0,
      "Manufacturer": "SIEMENS",
      "ManufacturerModelName": "Prisma",
      "Modality": "MR",
      "NumberOfAverages": 1.0,
      "NumberOfPhaseEncodingSteps": 79,
      "PercentPhaseFieldOfView": 100.0,
      "PercentSampling": 100.0,
      "PerformedProcedureStepStartTime": "093516.013000",
      "PhotometricInterpretation": "MONOCHROME2",
      "PixelBandwidth": 2315.0,
      "PixelRepresentation": 0,
      "PixelSpacing": [3.0, 3.0],
      "ProtocolName": "func-bold_task-rest_acq-p2",
      "RepetitionTime": 2000.0,
      "Rows": 480,
      "SAR": 0.05488000754907,
      "SamplesPerPixel": 1,
      "ScanOptions": "FS",
      "ScanningSequence": "EP",
      "SequenceName": "*epfid2d1_80",
      "SequenceVariant": "SK",
      "SeriesDescription": "func-bold_task-rest_acq-p2",
      "SeriesNumber": 5,
      "SeriesTime": "100317.778000",
      "SliceLocation": -55.652059494626,
      "SliceThickness": 3.5,
      "SmallestImagePixelValue": 0,
      "SoftwareVersions": "syngo MR E11",
      "SpacingBetweenSlices": 3.9900000547484,
      "SpecificCharacterSet": "ISO_IR 100",
      "StudyID": "47",
      "StudyTime": "093515.937000",
      "TransmitCoilName": "Body",
      "VariableFlipAngleFlag": "N",
      "WindowCenterWidthExplanation": "Algo1"
    },
    "slices": {}
  },
  "time": {
    "samples": {
      "AcquisitionNumber": [1, 2, 3, 4, 5, 6, 7, 8, 9, 10, 11, 12, 13, 14, 15, 16, 17, 18, 19, 20, 21, 22, 23, 24, 25, 26, 27, 28, 29, 30, 31, 32, 33, 34, 35, 36, 37, 38, 39, 40, 41, 42, 43, 44, 45, 46, 47, 48, 49, 50, 51, 52, 53, 54, 55, 56, 57, 58, 59, 60, 61, 62, 63, 64, 65, 66, 67, 68, 69, 70, 71, 72, 73, 74, 75, 76, 77, 78, 79, 80, 81, 82, 83, 84, 85, 86, 87, 88, 89, 90, 91, 92, 93, 94, 95, 96, 97, 98, 99, 100, 101, 102, 103, 104, 105, 106, 107, 108, 109, 110, 111, 112, 113, 114, 115, 116, 117, 118, 119, 120, 121, 122, 123, 124, 125, 126, 127, 128, 129, 130, 131, 132, 133, 134, 135, 136, 137, 138, 139, 140, 141, 142, 143, 144, 145, 146, 147, 148, 149, 150, 151, 152, 153, 154, 155, 156, 157, 158, 159, 160, 161, 162, 163, 164, 165, 166, 167, 168, 169, 170, 171, 172, 173, 174, 175, 176, 177, 178, 179, 180, 181, 182, 183, 184, 185, 186, 187, 188, 189, 190, 191, 192, 193, 194, 195, 196, 197, 198, 199, 200],
      "AcquisitionTime": ["100224.722500", "100226.722500", "100228.722500", "100230.722500", "100232.722500", "100234.722500", "100236.722500", "100238.722500", "100240.722500", "100242.722500", "100244.722500", "100246.722500", "100248.722500", "100250.722500", "100252.722500", "100254.722500", "100256.722500", "100258.722500", "100300.722500", "100302.722500", "100304.722500", "100306.722500", "100308.722500", "100310.722500", "100312.722500", "100314.722500", "100316.722500", "100318.722500", "100320.722500", "100322.722500", "100324.722500", "100326.722500", "100328.722500", "100330.722500", "100332.722500", "100334.722500", "100336.722500", "100338.722500", "100340.722500", "100342.722500", "100344.722500", "100346.722500", "100348.722500", "100350.722500", "100352.722500", "100354.722500", "100356.722500", "100358.722500", "100400.722500", "100402.722500", "100404.722500", "100406.722500", "100408.722500", "100410.722500", "100412.722500", "100414.722500", "100416.722500", "100418.722500", "100420.722500", "100422.722500", "100424.722500", "100426.722500", "100428.722500", "100430.722500", "100432.722500", "100434.722500", "100436.722500", "100438.722500", "100440.722500", "100442.722500", "100444.722500", "100446.722500", "100448.722500", "100450.722500", "100452.722500", "100454.722500", "100456.722500", "100458.722500", "100500.722500", "100502.722500", "100504.722500", "100506.722500", "100508.722500", "100510.722500", "100512.722500", "100514.722500", "100516.722500", "100518.722500", "100520.722500", "100522.722500", "100524.722500", "100526.722500", "100528.722500", "100530.722500", "100532.722500", "100534.722500", "100536.722500", "100538.722500", "100540.722500", "100542.722500", "100544.722500", "100546.722500", "100548.722500", "100550.722500", "100552.722500", "100554.722500", "100556.722500", "100558.722500", "100600.722500", "100602.722500", "100604.722500", "100606.722500", "100608.722500", "100610.722500", "100612.722500", "100614.722500", "100616.722500", "100618.722500", "100620.722500", "100622.722500", "100624.722500", "100626.722500", "100628.722500", "100630.722500", "100632.722500", "100634.722500", "100636.722500", "100638.722500", "100640.722500", "100642.722500", "100644.722500", "100646.722500", "100648.722500", "100650.722500", "100652.722500", "100654.722500", "100656.722500", "100658.722500", "100700.722500", "100702.722500", "100704.722500", "100706.722500", "100708.722500", "100710.722500", "100712.722500", "100714.722500", "100716.722500", "100718.722500", "100720.722500", "100722.722500", "100724.722500", "100726.722500", "100728.722500", "100730.722500", "100732.722500", "100734.722500", "100736.722500", "100738.722500", "100740.722500", "100742.722500", "100744.722500", "100746.722500", "100748.722500", "100750.722500", "100752.722500", "100754.722500", "100756.722500", "100758.722500", "100800.722500", "100802.722500", "100804.722500", "100806.722500", "100808.722500", "100810.722500", "100812.722500", "100814.722500", "100816.722500", "100818.722500", "100820.722500", "100822.722500", "100824.722500", "100826.722500", "100828.722500", "100830.722500", "100832.722500", "100834.722500", "100836.722500", "100838.722500", "100840.722500", "100842.722500", "100844.722500", "100846.722500", "100848.722500", "100850.722500", "100852.722500", "100854.722500", "100856.722500", "100858.722500", "100900.722500", "100902.722500"],
      "ContentTime": ["100317.781000", "100317.784000", "100317.786000", "100317.789000", "100317.791000", "100317.793000", "100317.796000", "100317.798000", "100317.800000", "100317.802000", "100317.805000", "100317.807000", "100317.809000", "100317.812000", "100317.814000", "100317.816000", "100317.818000", "100317.821000", "100317.832000", "100317.835000", "100317.843000", "100317.846000", "100317.848000", "100317.850000", "100317.853000", "100317.855000", "100357.767000", "100357.770000", "100357.772000", "100357.774000", "100357.777000", "100357.779000", "100357.781000", "100357.783000", "100357.786000", "100357.788000", "100357.790000", "100357.793000", "100357.795000", "100357.797000", "100357.800000", "100357.802000", "100357.804000", "100357.807000", "100357.809000", "100357.818000", "100437.767000", "100437.770000", "100437.772000", "100437.774000", "100437.777000", "100437.779000", "100437.781000", "100437.783000", "100437.786000", "100437.788000", "100437.790000", "100437.793000", "100437.795000", "100437.797000", "100437.800000", "100437.802000", "100437.804000", "100437.807000", "100437.809000", "100437.811000", "100517.767000", "100517.770000", "100517.772000", "100517.775000", "100517.777000", "100517.779000", "100517.782000", "100517.784000", "100517.786000", "100517.789000", "100517.791000", "100517.793000", "100517.796000", "100517.798000", "100517.800000", "100517.802000", "100517.805000", "100517.807000", "100517.809000", "100517.812000", "100557.767000", "100557.770000", "100557.772000", "100557.774000", "100557.777000", "100557.779000", "100557.781000", "100557.784000", "100557.786000", "100557.788000", "100557.790000", "100557.793000", "100557.795000", "100557.797000", "100557.800000", "100557.802000", "100557.804000", "100557.806000", "100557.809000", "100557.811000", "100637.767000", "100637.770000", "100637.772000", "100637.774000", "100637.777000", "100637.779000", "100637.781000", "100637.784000", "100637.786000", "100637.788000", "100637.791000", "100637.793000", "100637.795000", "100637.797000", "100637.800000", "100637.802000", "100637.804000", "100637.807000", "100637.809000", "100637.811000", "100717.767000", "100717.770000", "100717.772000", "100717.774000", "100717.777000", "100717.779000", "100717.781000", "100717.784000", "100717.786000", "100717.788000", "100717.797000", "100717.799000", "100717.802000", "100717.804000", "100717.806000", "100717.809000", "100717.811000", "100717.813000", "100717.816000", "100717.818000", "100757.767000", "100757.770000", "100757.772000", "100757.774000", "100757.777000", "100757.779000", "100757.781000", "100757.784000", "100757.786000", "100757.788000", "100757.791000", "100757.793000", "100757.795000", "100757.798000", "100757.800000", "100757.802000", "100757.805000", "100757.807000", "100757.809000", "100757.811000", "100817.767000", "100817.770000", "100817.772000", "100817.774000", "100817.777000", "100817.779000", "100817.781000", "100817.783000", "100817.786000", "100817.788000", "100857.767000", "100857.770000", "100857.772000", "100857.774000", "100857.777000", "100857.779000", "100857.781000", "100857.783000", "100857.786000", "100857.788000", "100857.790000", "100857.793000", "100857.795000", "100857.797000", "100857.800000", "100857.802000", "100857.804000", "100857.807000", "100857.809000", "100857.811000", "100904.593000", "100904.599000", "100904.606000", "100904.609000"],
      "InstanceCreationTime": ["100317.781000", "100317.784000", "100317.786000", "100317.789000", "100317.791000", "100317.793000", "100317.796000", "100317.798000", "100317.800000", "100317.802000", "100317.805000", "100317.807000", "100317.809000", "100317.812000", "100317.814000", "100317.816000", "100317.818000", "100317.821000", "100317.832000", "100317.835000", "100317.843000", "100317.846000", "100317.848000", "100317.850000", "100317.853000", "100317.855000", "100357.767000", "100357.770000", "100357.772000", "100357.774000", "100357.777000", "100357.779000", "100357.781000", "100357.783000", "100357.786000", "100357.788000", "100357.790000", "100357.793000", "100357.795000", "100357.797000", "100357.800000", "100357.802000", "100357.804000", "100357.807000", "100357.809000", "100357.818000", "100437.767000", "100437.770000", "100437.772000", "100437.774000", "100437.777000", "100437.779000", "100437.781000", "100437.783000", "100437.786000", "100437.788000", "100437.790000", "100437.793000", "100437.795000", "100437.797000", "100437.800000", "100437.802000", "100437.804000", "100437.807000", "100437.809000", "100437.811000", "100517.767000", "100517.770000", "100517.772000", "100517.775000", "100517.777000", "100517.779000", "100517.782000", "100517.784000", "100517.786000", "100517.789000", "100517.791000", "100517.793000", "100517.796000", "100517.798000", "100517.800000", "100517.802000", "100517.805000", "100517.807000", "100517.809000", "100517.812000", "100557.767000", "100557.770000", "100557.772000", "100557.774000", "100557.777000", "100557.779000", "100557.781000", "100557.784000", "100557.786000", "100557.788000", "100557.790000", "100557.793000", "100557.795000", "100557.797000", "100557.800000", "100557.802000", "100557.804000", "100557.806000", "100557.809000", "100557.811000", "100637.767000", "100637.770000", "100637.772000", "100637.774000", "100637.777000", "100637.779000", "100637.781000", "100637.784000", "100637.786000", "100637.788000", "100637.791000", "100637.793000", "100637.795000", "100637.797000", "100637.800000", "100637.802000", "100637.804000", "100637.807000", "100637.809000", "100637.811000", "100717.767000", "100717.770000", "100717.772000", "100717.774000", "100717.777000", "100717.779000", "100717.781000", "100717.784000", "100717.786000", "100717.788000", "100717.797000", "100717.799000", "100717.802000", "100717.804000", "100717.806000", "100717.809000", "100717.811000", "100717.813000", "100717.816000", "100717.818000", "100757.767000", "100757.770000", "100757.772000", "100757.774000", "100757.777000", "100757.779000", "100757.781000", "100757.784000", "100757.786000", "100757.788000", "100757.791000", "100757.793000", "100757.795000", "100757.798000", "100757.800000", "100757.802000", "100757.805000", "100757.807000", "100757.809000", "100757.811000", "100817.767000", "100817.770000", "100817.772000", "100817.774000", "100817.777000", "100817.779000", "100817.781000", "100817.783000", "100817.786000", "100817.788000", "100857.767000", "100857.770000", "100857.772000", "100857.774000", "100857.777000", "100857.779000", "100857.781000", "100857.783000", "100857.786000", "100857.788000", "100857.790000", "100857.793000", "100857.795000", "100857.797000", "100857.800000", "100857.802000", "100857.804000", "100857.807000", "100857.809000", "100857.811000", "100904.593000", "100904.599000", "100904.606000", "100904.609000"],
      "InstanceNumber": [1, 2, 3, 4, 5, 6, 7, 8, 9, 10, 11, 12, 13, 14, 15, 16, 17, 18, 19, 20, 21, 22, 23, 24, 25, 26, 27, 28, 29, 30, 31, 32, 33, 34, 35, 36, 37, 38, 39, 40, 41, 42, 43, 44, 45, 46, 47, 48, 49, 50, 51, 52, 53, 54, 55, 56, 57, 58, 59, 60, 61, 62, 63, 64, 65, 66, 67, 68, 69, 70, 71, 72, 73, 74, 75, 76, 77, 78, 79, 80, 81, 82, 83, 84, 85, 86, 87, 88, 89, 90, 91, 92, 93, 94, 95, 96, 97, 98, 99, 100, 101, 102, 103, 104, 105, 106, 107, 108, 109, 110, 111, 112, 113, 114, 115, 116, 117, 118, 119, 120, 121, 122, 123, 124, 125, 126, 127, 128, 129, 130, 131, 132, 133, 134, 135, 136, 137, 138, 139, 140, 141, 142, 143, 144, 145, 146, 147, 148, 149, 150, 151, 152, 153, 154, 155, 156, 157, 158, 159, 160, 161, 162, 163, 164, 165, 166, 167, 168, 169, 170, 171, 172, 173, 174, 175, 176, 177, 178, 179, 180, 181, 182, 183, 184, 185, 186, 187, 188, 189, 190, 191, 192, 193, 194, 195, 196, 197, 198, 199, 200],
      "LargestImagePixelValue": [1987, 1983, 1993, 1984, 1986, 1992, 1986, 1984, 1987, 1989, 1988, 1987, 1988, 1986, 1990, 1988, 1983, 1992, 1984, 1987, 1991, 1990, 1993, 1989, 1984, 1992, 1982, 1987, 1985, 1984, 1984, 1987, 1982, 1993, 1988, 1986, 1981, 1987, 1989, 1981, 1989, 1981, 1989, 1989, 1987, 1986, 1981, 1984, 1981, 1988, 1986, 1987, 1985, 1988, 1983, 1988, 1989, 1991, 1990, 1985, 1992, 1989, 1987, 1991, 1988, 1983, 1991, 1981, 1992, 1990, 1986, 1989, 1984, 1986, 1982, 1978, 1987, 1980, 1983, 1986, 1988, 1987, 1993, 1990, 1987, 1986, 1989, 1980, 1987, 1992, 1980, 1982, 1991, 1993, 1982, 1988, 1988, 1986, 1991, 1988, 1990, 1995, 1986, 1986, 1985, 1988, 1990, 1984, 1988, 1989, 1984, 1989, 1989, 1987, 1990, 1987, 1985, 1987, 1987, 1987, 1987, 1984, 1983, 1983, 1982, 1982, 1988, 1983, 1989, 1980, 1996, 1994, 1982, 1990, 1986, 1986, 1990, 1984, 1985, 1984, 1991, 1990, 1989, 1982, 1984, 1990, 1988, 1994, 1991, 1987, 1981, 1993, 1983, 1986, 1983, 1987, 1987, 1993, 1986, 1986, 1992, 1993, 1984, 1984, 1987, 1986, 1989, 1984, 1984, 1988, 1982, 1983, 1978, 1986, 1986, 1985, 1989, 1988, 1989, 1989, 1991, 1986, 1980, 1988, 1985, 1985, 1981, 1991, 1987, 1999, 1991, 1987, 1992, 1986, 1992, 1991, 1986, 1984, 1987, 1988],
      "WindowCenter": [983.0, 983.0, 983.0, 983.0, 982.0, 982.0, 982.0, 983.0, 983.0, 983.0, 982.0, 982.0, 984.0, 983.0, 982.0, 982.0, 982.0, 982.0, 982.0, 982.0, 982.0, 982.0, 982.0, 982.0, 983.0, 983.0, 984.0, 982.0, 982.0, 982.0, 982.0, 982.0, 982.0, 982.0, 982.0, 982.0, 982.0, 982.0, 982.0, 982.0, 982.0, 982.0, 982.0, 983.0, 982.0, 982.0, 982.0, 982.0, 982.0, 982.0, 982.0, 983.0, 982.0, 982.0, 982.0, 983.0, 982.0, 982.0, 983.0, 983.0, 982.0, 982.0, 983.0, 983.0, 983.0, 982.0, 982.0, 982.0, 982.0, 982.0, 982.0, 983.0, 982.0, 982.0, 983.0, 982.0, 982.0, 983.0, 982.0, 982.0, 982.0, 982.0, 983.0, 982.0, 983.0, 982.0, 982.0, 982.0, 982.0, 983.0, 982.0, 983.0, 982.0, 982.0, 982.0, 982.0, 982.0, 983.0, 983.0, 982.0, 983.0, 983.0, 982.0, 982.0, 982.0, 983.0, 982.0, 982.0, 983.0, 982.0, 982.0, 982.0, 982.0, 982.0, 983.0, 983.0, 982.0, 983.0, 982.0, 982.0, 982.0, 982.0, 983.0, 982.0, 982.0, 982.0, 982.0, 983.0, 982.0, 982.0, 982.0, 982.0, 982.0, 982.0, 983.0, 982.0, 982.0, 982.0, 982.0, 982.0, 982.0, 982.0, 982.0, 982.0, 982.0, 981.0, 982.0, 982.0, 982.0, 982.0, 982.0, 982.0, 982.0, 982.0, 982.0, 982.0, 982.0, 981.0, 982.0, 981.0, 981.0, 981.0, 982.0, 982.0, 982.0, 981.0, 982.0, 982.0, 982.0, 982.0, 981.0, 981.0, 982.0, 981.0, 981.0, 981.0, 981.0, 981.0, 982.0, 982.0, 981.0, 982.0, 981.0, 981.0, 981.0, 982.0, 982.0, 981.0, 981.0, 982.0, 981.0, 981.0, 982.0, 981.0, 982.0, 981.0, 982.0, 982.0, 982.0, 982.0],
      "WindowWidth": [2157.0, 2157.0, 2157.0, 2157.0, 2156.0, 2156.0, 2156.0, 2157.0, 2157.0, 2157.0, 2156.0, 2156.0, 2157.0, 2157.0, 2156.0, 2156.0, 2156.0, 2156.0, 2156.0, 2156.0, 2156.0, 2156.0, 2156.0, 2156.0, 2157.0, 2156.0, 2157.0, 2156.0, 2156.0, 2156.0, 2156.0, 2156.0, 2156.0, 2156.0, 2156.0, 2156.0, 2155.0, 2156.0, 2156.0, 2156.0, 2156.0, 2156.0, 2156.0, 2156.0, 2156.0, 2156.0, 2156.0, 2156.0, 2156.0, 2156.0, 2156.0, 2156.0, 2156.0, 2156.0, 2156.0, 2157.0, 2156.0, 2156.0, 2156.0, 2156.0, 2156.0, 2156.0, 2157.0, 2156.0, 2156.0, 2156.0, 2155.0, 2155.0, 2156.0, 2156.0, 2155.0, 2156.0, 2155.0, 2155.0, 2156.0, 2155.0, 2155.0, 2156.0, 2155.0, 2155.0, 2155.0, 2155.0, 2156.0, 2155.0, 2156.0, 2155.0, 2155.0, 2155.0, 2155.0, 2156.0, 2155.0, 2156.0, 2155.0, 2155.0, 2155.0, 2155.0, 2155.0, 2156.0, 2156.0, 2155.0, 2156.0, 2156.0, 2155.0, 2155.0, 2155.0, 2156.0, 2155.0, 2155.0, 2156.0, 2155.0, 2155.0, 2155.0, 2154.0, 2155.0, 2156.0, 2156.0, 2155.0, 2156.0, 2155.0, 2155.0, 2155.0, 2155.0, 2156.0, 2156.0, 2155.0, 2155.0, 2155.0, 2156.0, 2155.0, 2155.0, 2156.0, 2155.0, 2154.0, 2156.0, 2156.0, 2156.0, 2156.0, 2155.0, 2155.0, 2154.0, 2156.0, 2155.0, 2156.0, 2155.0, 2155.0, 2155.0, 2154.0, 2154.0, 2155.0, 2154.0, 2154.0, 2155.0, 2154.0, 2154.0, 2154.0, 2155.0, 2155.0, 2155.0, 2154.0, 2154.0, 2155.0, 2155.0, 2154.0, 2154.0, 2154.0, 2154.0, 2155.0, 2154.0, 2155.0, 2154.0, 2154.0, 2154.0, 2154.0, 2154.0, 2154.0, 2154.0, 2154.0, 2154.0, 2155.0, 2155.0, 2154.0, 2155.0, 2154.0, 2154.0, 2154.0, 2155.0, 2155.0, 2154.0, 2154.0, 2155.0, 2154.0, 2154.0, 2155.0, 2154.0, 2155.0, 2154.0, 2155.0, 2155.0, 2155.0, 2155.0]
    },
    "slices": {}
  }
}