{
  "AcquisitionMatrixPE": 122,
  "AcquisitionNumber": 1,
  "AcquisitionTime": "10:51:23.072500",
  "BandwidthPerPixelPhaseEncode": 28.76,
  "BaseResolution": 122,
  "BodyPartExamined": "BRAIN",
  "CoilCombinationMethod": "Adaptive Combine",
  "ConsistencyInfo": "N4_VE11C_LATEST_20160120",
  "ConversionSoftware": "dcm2niix",
  "ConversionSoftwareVersion": "v1.0.20220720",
  "DerivedVendorReportedEchoSpacing": 0.000570008,
  "DeviceSerialNumber": "66112",
  "DiffusionScheme": "Monopolar",
  "DwellTime": 2e-06,
  "EchoTime": 0.075,
  "EchoTrainLength": 61,
  "EffectiveEchoSpacing": 0.000285004,
  "FlipAngle": 90,
  "HeudiconvVersion": "0.13.1",
  "ImageOrientationPatientDICOM": [0.979269, 0.201993, 0.0152089, -0.196922, 0.931704, 0.305205],
  "ImageOrientationText": "Tra>Cor(17.6)>Sag(-2.7)",
  "ImageType": [
    "ORIGINAL",
    "PRIMARY",
    "DIFFUSION",
    "NONE",
    "ND",
    "NORM"
],
  "ImagingFrequency": 123.253,
  "InPlanePhaseEncodingDirectionDICOM": "COL",
  "InstitutionAddress": "Maynard 3,Hanover,NH,US,03755",
  "InstitutionName": "Dartmouth College - PBS",
  "InstitutionalDepartmentName": "Department",
  "MRAcquisitionType": "2D",
  "MagneticFieldStrength": 3,
  "Manufacturer": "Siemens",
  "ManufacturersModelName": "Prisma",
  "MatrixCoilMode": "GRAPPA",
  "Modality": "MR",
  "NonlinearGradientCorrection": false,
  "ParallelReductionFactorInPlane": 2,
  "PartialFourier": 1,
  "PatientPosition": "HFS",
  "PercentPhaseFOV": 100,
  "PercentSampling": 100,
  "PhaseEncodingDirection": "j-",
  "PhaseEncodingSteps": 122,
  "PhaseResolution": 1,
  "PixelBandwidth": 2050,
  "ProcedureStepDescription": "dbic^QA",
  "ProtocolName": "dwi_acq-DTI-30-p2",
  "PulseSequenceDetails": "%SiemensSeq%\\ep2d_diff",
  "ReceiveCoilActiveElements": "HEA;HEP",
  "ReceiveCoilName": "Head_32",
  "ReconMatrixPE": 122,
  "RefLinesPE": 38,
  "RepetitionTime": 7.7,
  "SAR": 0.10192,
  "ScanOptions": "FS",
  "ScanningSequence": "EP",
  "SequenceName": "*ep_b0",
  "SequenceVariant": "SK\\SP",
  "SeriesDescription": "dwi_acq-DTI-30-p2",
  "SeriesNumber": 8,
  "ShimSetting": [4157, -7679, -7506, 265, 17, -319, -27, 100],
  "SliceThickness": 2,
  "SliceTiming": [3.83594, 0, 3.94531, 0.10938, 4.05469, 0.21875, 4.17188, 0.32812, 4.28125, 0.4375, 4.38281, 0.54688, 4.49219, 0.65625, 4.60938, 0.76562, 4.71875, 0.875, 4.82812, 0.98438, 4.9375, 1.09375, 5.04688, 1.20312, 5.15625, 1.3125, 5.26562, 1.42188, 5.375, 1.53125, 5.48438, 1.64062, 5.59375, 1.75, 5.70312, 1.85938, 5.8125, 1.97656, 5.92188, 2.08594, 6.03125, 2.19531, 6.14062, 2.30469, 6.25, 2.41406, 6.35938, 2.52344, 6.46875, 2.63281, 6.57812, 2.74219, 6.6875, 2.85156, 6.79688, 2.96094, 6.91406, 3.07031, 7.02344, 3.17969, 7.13281, 3.28906, 7.23438, 3.39844, 7.35156, 3.50781, 7.46094, 3.61719, 7.57031, 3.72656],
  "SoftwareVersions": "syngo MR E11",
  "SpacingBetweenSlices": 2,
  "SpoilingState": true,
  "StationName": "AWP66112",
  "TotalReadoutTime": 0.0344855,
  "TxRefAmp": 227.297,
  "dcmmeta_affine": [
    [-1.9264307022094727, -0.38738691806793213, -0.09495830535888672, 149.68368530273438],
    [-0.39736294746398926, 1.8328595161437988, 0.6037464141845703, -96.29796600341797],
    [0.02991909347474575, -0.6004040837287903, 1.9043312072753906, -42.5633544921875],
    [0.0, 0.0, 0.0, 1.0]
],
  "dcmmeta_reorient_transform": [
    [0.0, -1.0, 0.0, 121.0],
    [1.0, 0.0, 0.0, 0.0],
    [0.0, 0.0, -1.0, 69.0],
    [0.0, 0.0, 0.0, 1.0]
],
  "dcmmeta_shape": [122, 122, 70, 31],
  "dcmmeta_slice_dim": 2,
  "dcmmeta_version": 0.6,
  "global": {
    "const": {
      "AccessionNumber": "qa",
      "AcquisitionMatrix": [122, 0, 0, 122],
      "AngioFlag": "N",
      "BitsAllocated": 16,
      "BitsStored": 12,
      "BodyPartExamined": "BRAIN",
      "Columns": 122,
      "EchoNumbers": 1,
      "EchoTime": 75.0,
      "EchoTrainLength": 61,
      "FlipAngle": 90.0,
      "HighBit": 11,
      "ImageOrientationPatient": [0.97926890377821, 0.20199283230202, 0.0152088721353, -0.1969216729138, 0.93170356025279, 0.30520539076026],
      "ImageType": [
        "ORIGINAL",
        "PRIMARY",
        "DIFFUSION",
        "NONE",
        "ND",
        "NORM"
],
      "ImagedNucleus": "1H",
      "ImagingFrequency": 123.252514,
      "InPlanePhaseEncodingDirection": "COL",
      "MRAcquisitionType": "2D",
      "MagneticFieldStrength": 3.0,
      "Manufacturer": "SIEMENS",
      "ManufacturerModelName": "Prisma",
      "Modality": "MR",
      "NumberOfAverages": 1.0,
      "NumberOfPhaseEncodingSteps": 122,
      "PercentPhaseFieldOfView": 100.0,
      "PercentSampling": 100.0,
      "PerformedProcedureStepStartTime": "103324.916000",
      "PhotometricInterpretation": "MONOCHROME2",
      "PixelBandwidth": 2050.0,
      "PixelRepresentation": 0,
      "PixelSpacing": [1.9672131538391, 1.9672131538391],
      "ProtocolName": "dwi_acq-DTI-30-p2",
      "RepetitionTime": 7700.0,
      "Rows": 122,
      "SAR": 0.10192025712936,
      "SamplesPerPixel": 1,
      "ScanOptions": "FS",
      "ScanningSequence": "EP",
      "SequenceVariant": [
        "SK",
        "SP"
],
      "SeriesDescription": "dwi_acq-DTI-30-p2",
      "SeriesNumber": 8,
      "SeriesTime": "105126.149000",
      "SliceThickness": 2.0,
      "SmallestImagePixelValue": 0,
      "SoftwareVersions": "syngo MR E11",
      "SpacingBetweenSlices": 2.0,
      "SpecificCharacterSet": "ISO_IR 100",
      "StudyID": "37",
      "StudyTime": "103324.815000",
      "TransmitCoilName": "Body",
      "VariableFlipAngleFlag": "N",
      "WindowCenterWidthExplanation": "Algo1",
      "dBdt": 0.0},
    "slices": {
      "AcquisitionTime": ["105123.072500", "105119.232500", "105123.182500", "105119.342500", "105123.292500", "105119.452500", "105123.402500", "105119.562500", "105123.512500", "105119.672500", "105123.620000", "105119.782500", "105123.730000", "105119.890000", "105123.840000", "105120.000000", "105123.950000", "105120.110000", "105124.060000", "105120.220000", "105124.170000", "105120.330000", "105124.280000", "105120.440000", "105124.390000", "105120.550000", "105124.500000", "105120.660000", "105124.607500", "105120.767500", "105124.717500", "105120.877500", "105124.827500", "105120.987500", "105124.937500", "105121.097500", "105125.047500", "105121.207500", "105125.157500", "105121.317500", "105125.267500", "105121.427500", "105125.377500", "105121.537500", "105125.485000", "105121.647500", "105125.595000", "105121.755000", "105125.705000", "105121.865000", "105125.815000", "105121.975000", "105125.925000", "105122.085000", "105126.035000", "105122.195000", "105126.145000", "105122.305000", "105126.255000", "105122.415000", "105126.365000", "105122.525000", "105126.472500", "105122.635000", "105126.582500", "105122.742500", "105126.692500", "105122.852500", "105126.802500", "105122.962500", "105130.772500", "105126.932500", "105130.882500", "105127.042500", "105130.992500", "105127.152500", "105131.102500", "105127.262500", "105131.212500", "105127.372500", "105131.320000", "105127.482500", "105131.430000", "105127.590000", "105131.540000", "105127.700000", "105131.650000", "105127.810000", "105131.760000", "105127.920000", "105131.870000", "105128.030000", "105131.980000", "105128.140000", "105132.090000", "105128.250000", "105132.200000", "105128.360000", "105132.307500", "105128.467500", "105132.417500", "105128.577500", "105132.527500", "105128.687500", "105132.637500", "105128.797500", "105132.747500", "105128.907500", "105132.857500", "105129.017500", "105132.967500", "105129.127500", "105133.077500", "105129.237500", "105133.185000", "105129.347500", "105133.295000", "105129.455000", "105133.405000", "105129.565000", "105133.515000", "105129.675000", "105133.625000", "105129.785000", "105133.735000", "105129.895000", "105133.845000", "105130.005000", "105133.955000", "105130.115000", "105134.065000", "105130.225000", "105134.172500", "105130.335000", "105134.282500", "105130.442500", "105134.392500", "105130.552500", "105134.502500", "105130.662500", "105138.472500", "105134.632500", "105138.582500", "105134.742500", "105138.692500", "105134.852500", "105138.802500", "105134.962500", "105138.912500", "105135.072500", "105139.020000", "105135.182500", "105139.130000", "105135.290000", "105139.240000", "105135.400000", "105139.350000", "105135.510000", "105139.460000", "105135.620000", "105139.570000", "105135.730000", "105139.680000", "105135.840000", "105139.790000", "105135.950000", "105139.900000", "105136.060000", "105140.007500", "105136.167500", "105140.117500", "105136.277500", "105140.227500", "105136.387500", "105140.337500", "105136.497500", "105140.447500", "105136.607500", "105140.557500", "105136.717500", "105140.667500", "105136.827500", "105140.777500", "105136.937500", "105140.885000", "105137.047500", "105140.995000", "105137.155000", "105141.105000", "105137.265000", "105141.215000", "105137.375000", "105141.325000", "105137.485000", "105141.435000", "105137.595000", "105141.545000", "105137.705000", "105141.655000", "105137.815000", "105141.765000", "105137.925000", "105141.872500", "105138.035000", "105141.982500", "105138.142500", "105142.092500", "105138.252500", "105142.202500", "105138.362500", "105146.172500", "105142.332500", "105146.282500", "105142.442500", "105146.392500", "105142.552500", "105146.502500", "105142.662500", "105146.612500", "105142.772500", "105146.720000", "105142.882500", "105146.830000", "105142.990000", "105146.940000", "105143.100000", "105147.050000", "105143.210000", "105147.160000", "105143.320000", "105147.270000", "105143.430000", "105147.380000", "105143.540000", "105147.490000", "105143.650000", "105147.600000", "105143.760000", "105147.707500", "105143.867500", "105147.817500", "105143.977500", "105147.927500", "105144.087500", "105148.037500", "105144.197500", "105148.147500", "105144.307500", "105148.257500", "105144.417500", "105148.367500", "105144.527500", "105148.477500", "105144.637500", "105148.585000", "105144.747500", "105148.695000", "105144.855000", "105148.805000", "105144.965000", "105148.915000", "105145.075000", "105149.025000", "105145.185000", "105149.135000", "105145.295000", "105149.245000", "105145.405000", "105149.355000", "105145.515000", "105149.465000", "105145.625000", "105149.572500", "105145.735000", "105149.682500", "105145.842500", "105149.792500", "105145.952500", "105149.902500", "105146.062500", "105153.872500", "105150.032500", "105153.982500", "105150.142500", "105154.092500", "105150.252500", "105154.202500", "105150.362500", "105154.312500", "105150.472500", "105154.420000", "105150.582500", "105154.530000", "105150.690000", "105154.640000", "105150.800000", "105154.750000", "105150.910000", "105154.860000", "105151.020000", "105154.970000", "105151.130000", "105155.080000", "105151.240000", "105155.190000", "105151.350000", "105155.300000", "105151.460000", "105155.407500", "105151.567500", "105155.517500", "105151.677500", "105155.627500", "105151.787500", "105155.737500", "105151.897500", "105155.847500", "105152.007500", "105155.957500", "105152.117500", "105156.067500", "105152.227500", "105156.177500", "105152.337500", "105156.285000", "105152.447500", "105156.395000", "105152.555000", "105156.505000", "105152.665000", "105156.615000", "105152.775000", "105156.725000", "105152.885000", "105156.835000", "105152.995000", "105156.945000", "105153.105000", "105157.055000", "105153.215000", "105157.165000", "105153.325000", "105157.272500", "105153.435000", "105157.382500", "105153.542500", "105157.492500", "105153.652500", "105157.602500", "105153.762500", "105201.572500", "105157.732500", "105201.682500", "105157.842500", "105201.792500", "105157.952500", "105201.902500", "105158.062500", "105202.012500", "105158.172500", "105202.120000", "105158.282500", "105202.230000", "105158.390000", "105202.340000", "105158.500000", "105202.450000", "105158.610000", "105202.560000", "105158.720000", "105202.670000", "105158.830000", "105202.780000", "105158.940000", "105202.890000", "105159.050000", "105203.000000", "105159.160000", "105203.107500", "105159.267500", "105203.217500", "105159.377500", "105203.327500", "105159.487500", "105203.437500", "105159.597500", "105203.547500", "105159.707500", "105203.657500", "105159.817500", "105203.767500", "105159.927500", "105203.877500", "105200.037500", "105203.985000", "105200.147500", "105204.095000", "105200.255000", "105204.205000", "105200.365000", "105204.315000", "105200.475000", "105204.425000", "105200.585000", "105204.535000", "105200.695000", "105204.645000", "105200.805000", "105204.755000", "105200.915000", "105204.865000", "105201.025000", "105204.972500", "105201.135000", "105205.082500", "105201.242500", "105205.192500", "105201.352500", "105205.302500", "105201.462500", "105209.272500", "105205.432500", "105209.382500", "105205.542500", "105209.492500", "105205.652500", "105209.602500", "105205.762500", "105209.712500", "105205.872500", "105209.820000", "105205.982500", "105209.930000", "105206.090000", "105210.040000", "105206.200000", "105210.150000", "105206.310000", "105210.260000", "105206.420000", "105210.370000", "105206.530000", "105210.480000", "105206.640000", "105210.590000", "105206.750000", "105210.700000", "105206.860000", "105210.807500", "105206.967500", "105210.917500", "105207.077500", "105211.027500", "105207.187500", "105211.137500", "105207.297500", "105211.247500", "105207.407500", "105211.357500", "105207.517500", "105211.467500", "105207.627500", "105211.577500", "105207.737500", "105211.685000", "105207.847500", "105211.795000", "105207.955000", "105211.905000", "105208.065000", "105212.015000", "105208.175000", "105212.125000", "105208.285000", "105212.235000", "105208.395000", "105212.345000", "105208.505000", "105212.455000", "105208.615000", "105212.565000", "105208.725000", "105212.672500", "105208.835000", "105212.782500", "105208.942500", "105212.892500", "105209.052500", "105213.002500", "105209.162500", "105216.972500", "105213.132500", "105217.082500", "105213.242500", "105217.192500", "105213.352500", "105217.302500", "105213.462500", "105217.412500", "105213.572500", "105217.520000", "105213.682500", "105217.630000", "105213.790000", "105217.740000", "105213.900000", "105217.850000", "105214.010000", "105217.960000", "105214.120000", "105218.070000", "105214.230000", "105218.180000", "105214.340000", "105218.290000", "105214.450000", "105218.400000", "105214.560000", "105218.507500", "105214.667500", "105218.617500", "105214.777500", "105218.727500", "105214.887500", "105218.837500", "105214.997500", "105218.947500", "105215.107500", "105219.057500", "105215.217500", "105219.167500", "105215.327500", "105219.277500", "105215.437500", "105219.385000", "105215.547500", "105219.495000", "105215.655000", "105219.605000", "105215.765000", "105219.715000", "105215.875000", "105219.825000", "105215.985000", "105219.935000", "105216.095000", "105220.045000", "105216.205000", "105220.155000", "105216.315000", "105220.265000", "105216.425000", "105220.372500", "105216.535000", "105220.482500", "105216.642500", "105220.592500", "105216.752500", "105220.702500", "105216.862500", "105224.672500", "105220.832500", "105224.782500", "105220.942500", "105224.892500", "105221.052500", "105225.002500", "105221.162500", "105225.112500", "105221.272500", "105225.220000", "105221.382500", "105225.330000", "105221.490000", "105225.440000", "105221.600000", "105225.550000", "105221.710000", "105225.660000", "105221.820000", "105225.770000", "105221.930000", "105225.880000", "105222.040000", "105225.990000", "105222.150000", "105226.100000", "105222.260000", "105226.207500", "105222.367500", "105226.317500", "105222.477500", "105226.427500", "105222.587500", "105226.537500", "105222.697500", "105226.647500", "105222.807500", "105226.757500", "105222.917500", "105226.867500", "105223.027500", "105226.977500", "105223.137500", "105227.085000", "105223.247500", "105227.195000", "105223.355000", "105227.305000", "105223.465000", "105227.415000", "105223.575000", "105227.525000", "105223.685000", "105227.635000", "105223.795000", "105227.745000", "105223.905000", "105227.855000", "105224.015000", "105227.965000", "105224.125000", "105228.072500", "105224.235000", "105228.182500", "105224.342500", "105228.292500", "105224.452500", "105228.402500", "105224.562500", "105232.372500", "105228.532500", "105232.482500", "105228.642500", "105232.592500", "105228.752500", "105232.702500", "105228.862500", "105232.812500", "105228.972500", "105232.920000", "105229.082500", "105233.030000", "105229.190000", "105233.140000", "105229.300000", "105233.250000", "105229.410000", "105233.360000", "105229.520000", "105233.470000", "105229.630000", "105233.580000", "105229.740000", "105233.690000", "105229.850000", "105233.800000", "105229.960000", "105233.907500", "105230.067500", "105234.017500", "105230.177500", "105234.127500", "105230.287500", "105234.237500", "105230.397500", "105234.347500", "105230.507500", "105234.457500", "105230.617500", "105234.567500", "105230.727500", "105234.677500", "105230.837500", "105234.785000", "105230.947500", "105234.895000", "105231.055000", "105235.005000", "105231.165000", "105235.115000", "105231.275000", "105235.225000", "105231.385000", "105235.335000", "105231.495000", "105235.445000", "105231.605000", "105235.555000", "105231.715000", "105235.665000", "105231.825000", "105235.772500", "105231.935000", "105235.882500", "105232.042500", "105235.992500", "105232.152500", "105236.102500", "105232.262500", "105240.072500", "105236.232500", "105240.182500", "105236.342500", "105240.292500", "105236.452500", "105240.402500", "105236.562500", "105240.512500", "105236.672500", "105240.620000", "105236.782500", "105240.730000", "105236.890000", "105240.840000", "105237.000000", "105240.950000", "105237.110000", "105241.060000", "105237.220000", "105241.170000", "105237.330000", "105241.280000", "105237.440000", "105241.390000", "105237.550000", "105241.500000", "105237.660000", "105241.607500", "105237.767500", "105241.717500", "105237.877500", "105241.827500", "105237.987500", "105241.937500", "105238.097500", "105242.047500", "105238.207500", "105242.157500", "105238.317500", "105242.267500", "105238.427500", "105242.377500", "105238.537500", "105242.485000", "105238.647500", "105242.595000", "105238.755000", "105242.705000", "105238.865000", "105242.815000", "105238.975000", "105242.925000", "105239.085000", "105243.035000", "105239.195000", "105243.145000", "105239.305000", "105243.255000", "105239.415000", "105243.365000", "105239.525000", "105243.472500", "105239.635000", "105243.582500", "105239.742500", "105243.692500", "105239.852500", "105243.802500", "105239.962500", "105247.772500", "105243.932500", "105247.882500", "105244.042500", "105247.992500", "105244.152500", "105248.102500", "105244.262500", "105248.212500", "105244.372500", "105248.320000", "105244.482500", "105248.430000", "105244.590000", "105248.540000", "105244.700000", "105248.650000", "105244.810000", "105248.760000", "105244.920000", "105248.870000", "105245.030000", "105248.980000", "105245.140000", "105249.090000", "105245.250000", "105249.200000", "105245.360000", "105249.307500", "105245.467500", "105249.417500", "105245.577500", "105249.527500", "105245.687500", "105249.637500", "105245.797500", "105249.747500", "105245.907500", "105249.857500", "105246.017500", "105249.967500", "105246.127500", "105250.077500", "105246.237500", "105250.185000", "105246.347500", "105250.295000", "105246.455000", "105250.405000", "105246.565000", "105250.515000", "105246.675000", "105250.625000", "105246.785000", "105250.735000", "105246.895000", "105250.845000", "105247.005000", "105250.955000", "105247.115000", "105251.065000", "105247.225000", "105251.172500", "105247.335000", "105251.282500", "105247.442500", "105251.392500", "105247.552500", "105251.502500", "105247.662500", "105255.472500", "105251.632500", "105255.582500", "105251.742500", "105255.692500", "105251.852500", "105255.802500", "105251.962500", "105255.912500", "105252.072500", "105256.020000", "105252.182500", "105256.130000", "105252.290000", "105256.240000", "105252.400000", "105256.350000", "105252.510000", "105256.460000", "105252.620000", "105256.570000", "105252.730000", "105256.680000", "105252.840000", "105256.790000", "105252.950000", "105256.900000", "105253.060000", "105257.007500", "105253.167500", "105257.117500", "105253.277500", "105257.227500", "105253.387500", "105257.337500", "105253.497500", "105257.447500", "105253.607500", "105257.557500", "105253.717500", "105257.667500", "105253.827500", "105257.777500", "105253.937500", "105257.885000", "105254.047500", "105257.995000", "105254.155000", "105258.105000", "105254.265000", "105258.215000", "105254.375000", "105258.325000", "105254.485000", "105258.435000", "105254.595000", "105258.545000", "105254.705000", "105258.655000", "105254.815000", "105258.765000", "105254.925000", "105258.872500", "105255.035000", "105258.982500", "105255.142500", "105259.092500", "105255.252500", "105259.202500", "105255.362500", "105303.172500", "105259.332500", "105303.282500", "105259.442500", "105303.392500", "105259.552500", "105303.502500", "105259.662500", "105303.612500", "105259.772500", "105303.720000", "105259.882500", "105303.830000", "105259.990000", "105303.940000", "105300.100000", "105304.050000", "105300.210000", "105304.160000", "105300.320000", "105304.270000", "105300.430000", "105304.380000", "105300.540000", "105304.490000", "105300.650000", "105304.600000", "105300.760000", "105304.707500", "105300.867500", "105304.817500", "105300.977500", "105304.927500", "105301.087500", "105305.037500", "105301.197500", "105305.147500", "105301.307500", "105305.257500", "105301.417500", "105305.367500", "105301.527500", "105305.477500", "105301.637500", "105305.585000", "105301.747500", "105305.695000", "105301.855000", "105305.805000", "105301.965000", "105305.915000", "105302.075000", "105306.025000", "105302.185000", "105306.135000", "105302.295000", "105306.245000", "105302.405000", "105306.355000", "105302.515000", "105306.465000", "105302.625000", "105306.572500", "105302.735000", "105306.682500", "105302.842500", "105306.792500", "105302.952500", "105306.902500", "105303.062500", "105310.872500", "105307.032500", "105310.982500", "105307.142500", "105311.092500", "105307.252500", "105311.202500", "105307.362500", "105311.312500", "105307.472500", "105311.420000", "105307.582500", "105311.530000", "105307.690000", "105311.640000", "105307.800000", "105311.750000", "105307.910000", "105311.860000", "105308.020000", "105311.970000", "105308.130000", "105312.080000", "105308.240000", "105312.190000", "105308.350000", "105312.300000", "105308.460000", "105312.407500", "105308.567500", "105312.517500", "105308.677500", "105312.627500", "105308.787500", "105312.737500", "105308.897500", "105312.847500", "105309.007500", "105312.957500", "105309.117500", "105313.067500", "105309.227500", "105313.177500", "105309.337500", "105313.285000", "105309.447500", "105313.395000", "105309.555000", "105313.505000", "105309.665000", "105313.615000", "105309.775000", "105313.725000", "105309.885000", "105313.835000", "105309.995000", "105313.945000", "105310.105000", "105314.055000", "105310.215000", "105314.165000", "105310.325000", "105314.272500", "105310.435000", "105314.382500", "105310.542500", "105314.492500", "105310.652500", "105314.602500", "105310.762500", "105318.572500", "105314.732500", "105318.682500", "105314.842500", "105318.792500", "105314.952500", "105318.902500", "105315.062500", "105319.012500", "105315.172500", "105319.120000", "105315.282500", "105319.230000", "105315.390000", "105319.340000", "105315.500000", "105319.450000", "105315.610000", "105319.560000", "105315.720000", "105319.670000", "105315.830000", "105319.780000", "105315.940000", "105319.890000", "105316.050000", "105320.000000", "105316.160000", "105320.107500", "105316.267500", "105320.217500", "105316.377500", "105320.327500", "105316.487500", "105320.437500", "105316.597500", "105320.547500", "105316.707500", "105320.657500", "105316.817500", "105320.767500", "105316.927500", "105320.877500", "105317.037500", "105320.985000", "105317.147500", "105321.095000", "105317.255000", "105321.205000", "105317.365000", "105321.315000", "105317.475000", "105321.425000", "105317.585000", "105321.535000", "105317.695000", "105321.645000", "105317.805000", "105321.755000", "105317.915000", "105321.865000", "105318.025000", "105321.972500", "105318.135000", "105322.082500", "105318.242500", "105322.192500", "105318.352500", "105322.302500", "105318.462500", "105326.272500", "105322.432500", "105326.382500", "105322.542500", "105326.492500", "105322.652500", "105326.602500", "105322.762500", "105326.712500", "105322.872500", "105326.820000", "105322.982500", "105326.930000", "105323.090000", "105327.040000", "105323.200000", "105327.150000", "105323.310000", "105327.260000", "105323.420000", "105327.370000", "105323.530000", "105327.480000", "105323.640000", "105327.590000", "105323.750000", "105327.700000", "105323.860000", "105327.807500", "105323.967500", "105327.917500", "105324.077500", "105328.027500", "105324.187500", "105328.137500", "105324.297500", "105328.247500", "105324.407500", "105328.357500", "105324.517500", "105328.467500", "105324.627500", "105328.577500", "105324.737500", "105328.685000", "105324.847500", "105328.795000", "105324.955000", "105328.905000", "105325.065000", "105329.015000", "105325.175000", "105329.125000", "105325.285000", "105329.235000", "105325.395000", "105329.345000", "105325.505000", "105329.455000", "105325.615000", "105329.565000", "105325.725000", "105329.672500", "105325.835000", "105329.782500", "105325.942500", "105329.892500", "105326.052500", "105330.002500", "105326.162500", "105333.972500", "105330.132500", "105334.082500", "105330.242500", "105334.192500", "105330.352500", "105334.302500", "105330.462500", "105334.412500", "105330.572500", "105334.520000", "105330.682500", "105334.630000", "105330.790000", "105334.740000", "105330.900000", "105334.850000", "105331.010000", "105334.960000", "105331.120000", "105335.070000", "105331.230000", "105335.180000", "105331.340000", "105335.290000", "105331.450000", "105335.400000", "105331.560000", "105335.507500", "105331.667500", "105335.617500", "105331.777500", "105335.727500", "105331.887500", "105335.837500", "105331.997500", "105335.947500", "105332.107500", "105336.057500", "105332.217500", "105336.167500", "105332.327500", "105336.277500", "105332.437500", "105336.385000", "105332.547500", "105336.495000", "105332.655000", "105336.605000", "105332.765000", "105336.715000", "105332.875000", "105336.825000", "105332.985000", "105336.935000", "105333.095000", "105337.045000", "105333.205000", "105337.155000", "105333.315000", "105337.265000", "105333.425000", "105337.372500", "105333.535000", "105337.482500", "105333.642500", "105337.592500", "105333.752500", "105337.702500", "105333.862500", "105341.672500", "105337.832500", "105341.782500", "105337.942500", "105341.892500", "105338.052500", "105342.002500", "105338.162500", "105342.112500", "105338.272500", "105342.220000", "105338.382500", "105342.330000", "105338.490000", "105342.440000", "105338.600000", "105342.550000", "105338.710000", "105342.660000", "105338.820000", "105342.770000", "105338.930000", "105342.880000", "105339.040000", "105342.990000", "105339.150000", "105343.100000", "105339.260000", "105343.207500", "105339.367500", "105343.317500", "105339.477500", "105343.427500", "105339.587500", "105343.537500", "105339.697500", "105343.647500", "105339.807500", "105343.757500", "105339.917500", "105343.867500", "105340.027500", "105343.977500", "105340.137500", "105344.085000", "105340.247500", "105344.195000", "105340.355000", "105344.305000", "105340.465000", "105344.415000", "105340.575000", "105344.525000", "105340.685000", "105344.635000", "105340.795000", "105344.745000", "105340.905000", "105344.855000", "105341.015000", "105344.965000", "105341.125000", "105345.072500", "105341.235000", "105345.182500", "105341.342500", "105345.292500", "105341.452500", "105345.402500", "105341.562500", "105349.372500", "105345.532500", "105349.482500", "105345.642500", "105349.592500", "105345.752500", "105349.702500", "105345.862500", "105349.812500", "105345.972500", "105349.920000", "105346.082500", "105350.030000", "105346.190000", "105350.140000", "105346.300000", "105350.250000", "105346.410000", "105350.360000", "105346.520000", "105350.470000", "105346.630000", "105350.580000", "105346.740000", "105350.690000", "105346.850000", "105350.800000", "105346.960000", "105350.907500", "105347.067500", "105351.017500", "105347.177500", "105351.127500", "105347.287500", "105351.237500", "105347.397500", "105351.347500", "105347.507500", "105351.457500", "105347.617500", "105351.567500", "105347.727500", "105351.677500", "105347.837500", "105351.785000", "105347.947500", "105351.895000", "105348.055000", "105352.005000", "105348.165000", "105352.115000", "105348.275000", "105352.225000", "105348.385000", "105352.335000", "105348.495000", "105352.445000", "105348.605000", "105352.555000", "105348.715000", "105352.665000", "105348.825000", "105352.772500", "105348.935000", "105352.882500", "105349.042500", "105352.992500", "105349.152500", "105353.102500", "105349.262500", "105357.072500", "105353.232500", "105357.182500", "105353.342500", "105357.292500", "105353.452500", "105357.402500", "105353.562500", "105357.512500", "105353.672500", "105357.620000", "105353.782500", "105357.730000", "105353.890000", "105357.840000", "105354.000000", "105357.950000", "105354.110000", "105358.060000", "105354.220000", "105358.170000", "105354.330000", "105358.280000", "105354.440000", "105358.390000", "105354.550000", "105358.500000", "105354.660000", "105358.607500", "105354.767500", "105358.717500", "105354.877500", "105358.827500", "105354.987500", "105358.937500", 