{
  "AcquisitionMatrixPE": 80,
  "AcquisitionNumber": 1,
  "AcquisitionTime": "08:56:56.515000",
  "BandwidthPerPixelPhaseEncode": 25,
  "BaseResolution": 80,
  "BodyPartExamined": "BRAIN",
  "CoilCombinationMethod": "Sum of Squares",
  "ConsistencyInfo": "N4_VE11C_LATEST_20160120",
  "ConversionSoftware": "dcm2niix",
  "ConversionSoftwareVersion": "v1.0.20220720",
  "DerivedVendorReportedEchoSpacing": 0.0005,
  "DeviceSerialNumber": "66112",
  "DwellTime": 2.7e-06,
  "EchoTime": 0.03,
  "EchoTrainLength": 80,
  "EffectiveEchoSpacing": 0.0005,
  "FlipAngle": 10,
  "HeudiconvVersion": "0.13.1",
  "ImageOrientationPatientDICOM": [0.988165, 0.152834, -0.013112, -0.139757, 0.932246, 0.333745],
  "ImageOrientationText": "Tra>Cor(19.2)>Sag(-3.6)",
  "ImageType": [
    "ORIGINAL",
    "PRIMARY",
    "M",
    "ND",
    "NORM",
    "MOSAIC"
],
  "ImagingFrequency": 123.252,
  "InPlanePhaseEncodingDirectionDICOM": "COL",
  "InstitutionAddress": "Maynard 3,Hanover,NH,US,03755",
  "InstitutionName": "Dartmouth College - PBS",
  "InstitutionalDepartmentName": "Department",
  "MRAcquisitionType": "2D",
  "MagneticFieldStrength": 3,
  "Manufacturer": "Siemens",
  "ManufacturersModelName": "Prisma",
  "MatrixCoilMode": "SENSE",
  "Modality": "MR",
  "NonlinearGradientCorrection": false,
  "PartialFourier": 1,
  "PatientPosition": "HFS",
  "PercentPhaseFOV": 100,
  "PercentSampling": 100,
  "PhaseEncodingDirection": "j-",
  "PhaseEncodingSteps": 80,
  "PhaseResolution": 1,
  "PixelBandwidth": 2315,
  "ProcedureStepDescription": "dbic^QA",
  "ProtocolName": "func-bold_acq-32ch-10flip",
  "PulseSequenceDetails": "%SiemensSeq%\\ep2d_bold",
  "ReceiveCoilActiveElements": "HEA;HEP",
  "ReceiveCoilName": "Head_32",
  "ReconMatrixPE": 80,
  "RepetitionTime": 2,
  "SAR": 0.0117265,
  "ScanOptions": "FS",
  "ScanningSequence": "EP",
  "SequenceName": "*epfid2d1_80",
  "SequenceVariant": "SK",
  "SeriesDescription": "func-bold_acq-32ch-10flip",
  "SeriesNumber": 10,
  "ShimSetting": [4143, -7694, -7516, 278, -43, -68, -5, 55],
  "SliceThickness": 3.5,
  "SliceTiming": [0.99, 0, 1.055, 0.065, 1.1225, 0.1325, 1.1875, 0.1975, 1.2525, 0.265, 1.32, 0.33, 1.385, 0.395, 1.4525, 0.4625, 1.5175, 0.5275, 1.5825, 0.5925, 1.65, 0.66, 1.715, 0.725, 1.7825, 0.7925, 1.8475, 0.8575, 1.9125, 0.9225],
  "SoftwareVersions": "syngo MR E11",
  "SpacingBetweenSlices": 3.99,
  "StationName": "AWP66112",
  "TotalReadoutTime": 0.0395,
  "TxRefAmp": 235.909,
  "dcmmeta_affine": [
    [-2.964494466781616, -0.41927090287208557, -0.25229308009147644, 141.24032592773438],
    [-0.45850256085395813, 2.7967369556427, 1.3085722923278809, -104.16863250732422],
    [-0.03933611512184143, -1.0012362003326416, 3.760862350463867, -2.1317996978759766],
    [0.0, 0.0, 0.0, 1.0]
],
  "dcmmeta_reorient_transform": [
    [0.0, -1.0, 0.0, 79.0],
    [1.0, 0.0, 0.0, 0.0],
    [0.0, 0.0, 1.0, 0.0],
    [0.0, 0.0, 0.0, 1.0]
],
  "dcmmeta_shape": [80, 80, 30, 200],
  "dcmmeta_slice_dim": 2,
  "dcmmeta_version": 0.6,
  "global": {
    "const": {
      "AccessionNumber": "qa",
      "AcquisitionMatrix": [80, 0, 0, 80],
      "AngioFlag": "N",
      "BitsAllocated": 16,
      "BitsStored": 12,
      "BodyPartExamined": "BRAIN",
      "Columns": 480,
      "EchoNumbers": 1,
      "EchoTime": 30.0,
      "EchoTrainLength": 80,
      "FlipAngle": 10.0,
      "HighBit": 11,
      "ImageOrientationPatient": [0.9881648583355, 0.15283418204173, -0.0131120383774, -0.1397569661253, 0.93224567458841, 0.33374540091312],
      "ImagePositionPatient": [-617.16266142577, -767.82150930117, -273.60947714144],
      "ImageType": [
        "ORIGINAL",
        "PRIMARY",
        "M",
        "ND",
        "NORM",
        "MOSAIC"
],
      "ImagedNucleus": "1H",
      "ImagingFrequency": 123.252445,
      "InPlanePhaseEncodingDirection": "COL",
      "MRAcquisitionType": "2D",
      "MagneticFieldStrength": 3.0,
      "Manufacturer": "SIEMENS",
      "ManufacturerModelName": "Prisma",
      "Modality": "MR",
      "NumberOfAverages": 1.0,
      "NumberOfPhaseEncodingSteps": 80,
      "PercentPhaseFieldOfView": 100.0,
      "PercentSampling": 100.0,
      "PerformedProcedureStepStartTime": "082944.868000",
      "PhotometricInterpretation": "MONOCHROME2",
      "PixelBandwidth": 2315.0,
      "PixelRepresentation": 0,
      "PixelSpacing": [3.0, 3.0],
      "ProtocolName": "func-bold_acq-32ch-10flip",
      "RepetitionTime": 2000.0,
      "Rows": 480,
      "SAR": 0.01172647197536,
      "SamplesPerPixel": 1,
      "ScanOptions": "FS",
      "ScanningSequence": "EP",
      "SequenceName": "*epfid2d1_80",
      "SequenceVariant": "SK",
      "SeriesDescription": "func-bold_acq-32ch-10flip",
      "SeriesNumber": 10,
      "SeriesTime": "085745.121000",
      "SliceLocation": -45.103644760529,
      "SliceThickness": 3.5,
      "SmallestImagePixelValue": 0,
      "SoftwareVersions": "syngo MR E11",
      "SpacingBetweenSlices": 3.9899999279194,
      "SpecificCharacterSet": "ISO_IR 100",
      "StudyID": "1",
      "StudyTime": "082944.782000",
      "TransmitCoilName": "Body",
      "VariableFlipAngleFlag": "N",
      "WindowCenterWidthExplanation": "Algo1",
      "dBdt": 0.0},
    "slices": {}
  },
  "time": {
    "samples": {
      "AcquisitionNumber": [1, 2, 3, 4, 5, 6, 7, 8, 9, 10, 11, 12, 13, 14, 15, 16, 17, 18, 19, 20, 21, 22, 23, 24, 25, 26, 27, 28, 29, 30, 31, 32, 33, 34, 35, 36, 37, 38, 39, 40, 41, 42, 43, 44, 45, 46, 47, 48, 49, 50, 51, 52, 53, 54, 55, 56, 57, 58, 59, 60, 61, 62, 63, 64, 65, 66, 67, 68, 69, 70, 71, 72, 73, 74, 75, 76, 77, 78, 79, 80, 81, 82, 83, 84, 85, 86, 87, 88, 89, 90, 91, 92, 93, 94, 95, 96, 97, 98, 99, 100, 101, 102, 103, 104, 105, 106, 107, 108, 109, 110, 111, 112, 113, 114, 115, 116, 117, 118, 119, 120, 121, 122, 123, 124, 125, 126, 127, 128, 129, 130, 131, 132, 133, 134, 135, 136, 137, 138, 139, 140, 141, 142, 143, 144, 145, 146, 147, 148, 149, 150, 151, 152, 153, 154, 155, 156, 157, 158, 159, 160, 161, 162, 163, 164, 165, 166, 167, 168, 169, 170, 171, 172, 173, 174, 175, 176, 177, 178, 179, 180, 181, 182, 183, 184, 185, 186, 187, 188, 189, 190, 191, 192, 193, 194, 195, 196, 197, 198, 199, 200],
      "AcquisitionTime": ["085656.515000", "085658.515000", "085700.515000", "085702.515000", "085704.515000", "085706.515000", "085708.515000", "085710.515000", "085712.515000", "085714.515000", "085716.515000", "085718.515000", "085720.515000", "085722.515000", "085724.515000", "085726.515000", "085728.515000", "085730.515000", "085732.515000", "085734.515000", "085736.515000", "085738.515000", "085740.515000", "085742.515000", "085744.515000", "085746.515000", "085748.515000", "085750.515000", "085752.515000", "085754.515000", "085756.515000", "085758.515000", "085800.515000", "085802.515000", "085804.515000", "085806.515000", "085808.515000", "085810.515000", "085812.515000", "085814.515000", "085816.515000", "085818.515000", "085820.515000", "085822.515000", "085824.515000", "085826.515000", "085828.515000", "085830.515000", "085832.515000", "085834.515000", "085836.515000", "085838.515000", "085840.515000", "085842.515000", "085844.515000", "085846.515000", "085848.515000", "085850.515000", "085852.515000", "085854.515000", "085856.515000", "085858.515000", "085900.515000", "085902.515000", "085904.515000", "085906.515000", "085908.515000", "085910.515000", "085912.515000", "085914.515000", "085916.515000", "085918.515000", "085920.515000", "085922.515000", "085924.515000", "085926.515000", "085928.515000", "085930.515000", "085932.515000", "085934.515000", "085936.515000", "085938.515000", "085940.515000", "085942.515000", "085944.515000", "085946.515000", "085948.515000", "085950.515000", "085952.515000", "085954.515000", "085956.515000", "085958.515000", "090000.515000", "090002.515000", "090004.515000", "090006.515000", "090008.515000", "090010.515000", "090012.515000", "090014.515000", "090016.515000", "090018.515000", "090020.515000", "090022.515000", "090024.515000", "090026.515000", "090028.515000", "090030.515000", "090032.515000", "090034.515000", "090036.515000", "090038.515000", "090040.515000", "090042.515000", "090044.515000", "090046.515000", "090048.515000", "090050.515000", "090052.515000", "090054.515000", "090056.515000", "090058.515000", "090100.515000", "090102.515000", "090104.515000", "090106.515000", "090108.515000", "090110.515000", "090112.515000", "090114.515000", "090116.515000", "090118.515000", "090120.515000", "090122.515000", "090124.515000", "090126.515000", "090128.515000", "090130.515000", "090132.515000", "090134.515000", "090136.515000", "090138.515000", "090140.515000", "090142.515000", "090144.515000", "090146.515000", "090148.515000", "090150.515000", "090152.515000", "090154.515000", "090156.515000", "090158.515000", "090200.515000", "090202.515000", "090204.515000", "090206.515000", "090208.515000", "090210.515000", "090212.515000", "090214.515000", "090216.515000", "090218.515000", "090220.515000", "090222.515000", "090224.515000", "090226.515000", "090228.515000", "090230.515000", "090232.515000", "090234.515000", "090236.515000", "090238.515000", "090240.515000", "090242.515000", "090244.515000", "090246.515000", "090248.515000", "090250.515000", "090252.515000", "090254.515000", "090256.515000", "090258.515000", "090300.515000", "090302.515000", "090304.515000", "090306.515000", "090308.515000", "090310.515000", "090312.515000", "090314.515000", "090316.515000", "090318.515000", "090320.515000", "090322.515000", "090324.515000", "090326.515000", "090328.515000", "090330.515000", "090332.515000", "090334.515000"],
      "ContentTime": ["085745.124000", "085745.128000", "085745.130000", "085745.133000", "085745.135000", "085745.138000", "085745.140000", "085745.143000", "085745.146000", "085745.148000", "085745.158000", "085745.160000", "085745.163000", "085745.165000", "085745.168000", "085745.170000", "085745.173000", "085745.176000", "085745.178000", "085745.181000", "085745.183000", "085745.186000", "085745.188000", "085745.191000", "085825.120000", "085825.122000", "085825.125000", "085825.128000", "085825.130000", "085825.133000", "085825.135000", "085825.138000", "085825.141000", "085825.143000", "085825.146000", "085825.148000", "085825.151000", "085825.153000", "085825.156000", "085825.159000", "085825.161000", "085825.164000", "085825.166000", "085825.169000", "085905.120000", "085905.123000", "085905.126000", "085905.129000", "085905.131000", "085905.134000", "085905.136000", "085905.139000", "085905.141000", "085905.144000", "085905.147000", "085905.149000", "085905.152000", "085905.154000", "085905.166000", "085905.169000", "085905.171000", "085905.174000", "085905.176000", "085905.179000", "085945.119000", "085945.122000", "085945.125000", "085945.128000", "085945.130000", "085945.133000", "085945.136000", "085945.138000", "085945.141000", "085945.143000", "085945.146000", "085945.148000", "085945.151000", "085945.153000", "085945.156000", "085945.159000", "085945.161000", "085945.164000", "085945.166000", "085945.169000", "090025.120000", "090025.122000", "090025.125000", "090025.128000", "090025.130000", "090025.133000", "090025.136000", "090025.138000", "090025.141000", "090025.143000", "090025.146000", "090025.149000", "090025.151000", "090025.154000", "090025.156000", "090025.159000", "090025.161000", "090025.164000", "090025.167000", "090025.169000", "090105.119000", "090105.122000", "090105.125000", "090105.128000", "090105.130000", "090105.133000", "090105.135000", "090105.138000", "090105.140000", "090105.143000", "090105.146000", "090105.148000", "090105.151000", "090105.153000", "090105.156000", "090105.158000", "090105.161000", "090105.164000", "090105.166000", "090105.169000", "090145.120000", "090145.122000", "090145.125000", "090145.128000", "090145.130000", "090145.133000", "090145.135000", "090145.138000", "090145.140000", "090145.143000", "090145.146000", "090145.148000", "090145.151000", "090145.153000", "090145.156000", "090145.158000", "090145.161000", "090145.163000", "090145.174000", "090145.176000", "090225.120000", "090225.122000", "090225.125000", "090225.128000", "090225.130000", "090225.133000", "090225.135000", "090225.138000", "090225.141000", "090225.143000", "090225.146000", "090225.148000", "090225.151000", "090225.153000", "090225.156000", "090225.159000", "090225.161000", "090225.164000", "090225.166000", "090225.169000", "090305.119000", "090305.122000", "090305.125000", "090305.128000", "090305.130000", "090305.133000", "090305.141000", "090305.144000", "090305.147000", "090305.149000", "090305.152000", "090305.154000", "090305.157000", "090305.159000", "090305.162000", "090305.165000", "090305.167000", "090305.170000", "090305.172000", "090305.175000", "090336.255000", "090336.258000", "090336.267000", "090336.269000", "090336.272000", "090336.274000", "090336.277000", "090336.280000", "090336.283000", "090336.286000", "090336.296000", "090336.300000", "090336.305000", "090336.309000", "090336.325000", "090336.327000"],
      "InstanceCreationTime": ["085745.124000", "085745.128000", "085745.130000", "085745.133000", "085745.135000", "085745.138000", "085745.140000", "085745.143000", "085745.146000", "085745.148000", "085745.158000", "085745.160000", "085745.163000", "085745.165000", "085745.168000", "085745.170000", "085745.173000", "085745.176000", "085745.178000", "085745.181000", "085745.183000", "085745.186000", "085745.188000", "085745.191000", "085825.120000", "085825.122000", "085825.125000", "085825.128000", "085825.130000", "085825.133000", "085825.135000", "085825.138000", "085825.141000", "085825.143000", "085825.146000", "085825.148000", "085825.151000", "085825.153000", "085825.156000", "085825.159000", "085825.161000", "085825.164000", "085825.166000", "085825.169000", "085905.120000", "085905.123000", "085905.126000", "085905.129000", "085905.131000", "085905.134000", "085905.136000", "085905.139000", "085905.141000", "085905.144000", "085905.147000", "085905.149000", "085905.152000", "085905.154000", "085905.166000", "085905.169000", "085905.171000", "085905.174000", "085905.176000", "085905.179000", "085945.119000", "085945.122000", "085945.125000", "085945.128000", "085945.130000", "085945.133000", "085945.136000", "085945.138000", "085945.141000", "085945.143000", "085945.146000", "085945.148000", "085945.151000", "085945.153000", "085945.156000", "085945.159000", "085945.161000", "085945.164000", "085945.166000", "085945.169000", "090025.120000", "090025.122000", "090025.125000", "090025.128000", "090025.130000", "090025.133000", "090025.136000", "090025.138000", "090025.141000", "090025.143000", "090025.146000", "090025.149000", "090025.151000", "090025.154000", "090025.156000", "090025.159000", "090025.161000", "090025.164000", "090025.167000", "090025.169000", "090105.119000", "090105.122000", "090105.125000", "090105.128000", "090105.130000", "090105.133000", "090105.135000", "090105.138000", "090105.140000", "090105.143000", "090105.146000", "090105.148000", "090105.151000", "090105.153000", "090105.156000", "090105.158000", "090105.161000", "090105.164000", "090105.166000", "090105.169000", "090145.120000", "090145.122000", "090145.125000", "090145.128000", "090145.130000", "090145.133000", "090145.135000", "090145.138000", "090145.140000", "090145.143000", "090145.146000", "090145.148000", "090145.151000", "090145.153000", "090145.156000", "090145.158000", "090145.161000", "090145.163000", "090145.174000", "090145.176000", "090225.120000", "090225.122000", "090225.125000", "090225.128000", "090225.130000", "090225.133000", "090225.135000", "090225.138000", "090225.141000", "090225.143000", "090225.146000", "090225.148000", "090225.151000", "090225.153000", "090225.156000", "090225.159000", "090225.161000", "090225.164000", "090225.166000", "090225.169000", "090305.119000", "090305.122000", "090305.125000", "090305.128000", "090305.130000", "090305.133000", "090305.141000", "090305.144000", "090305.147000", "090305.149000", "090305.152000", "090305.154000", "090305.157000", "090305.159000", "090305.162000", "090305.165000", "090305.167000", "090305.170000", "090305.172000", "090305.175000", "090336.255000", "090336.258000", "090336.267000", "090336.269000", "090336.272000", "090336.274000", "090336.277000", "090336.280000", "090336.283000", "090336.286000", "090336.296000", "090336.300000", "090336.305000", "090336.309000", "090336.325000", "090336.327000"],
      "InstanceNumber": [1, 2, 3, 4, 5, 6, 7, 8, 9, 10, 11, 12, 13, 14, 15, 16, 17, 18, 19, 20, 21, 22, 23, 24, 25, 26, 27, 28, 29, 30, 31, 32, 33, 34, 35, 36, 37, 38, 39, 40, 41, 42, 43, 44, 45, 46, 47, 48, 49, 50, 51, 52, 53, 54, 55, 56, 57, 58, 59, 60, 61, 62, 63, 64, 65, 66, 67, 68, 69, 70, 71, 72, 73, 74, 75, 76, 77, 78, 79, 80, 81, 82, 83, 84, 85, 86, 87, 88, 89, 90, 91, 92, 93, 94, 95, 96, 97, 98, 99, 100, 101, 102, 103, 104, 105, 106, 107, 108, 109, 110, 111, 112, 113, 114, 115, 116, 117, 118, 119, 120, 121, 122, 123, 124, 125, 126, 127, 128, 129, 130, 131, 132, 133, 134, 135, 136, 137, 138, 139, 140, 141, 142, 143, 144, 145, 146, 147, 148, 149, 150, 151, 152, 153, 154, 155, 156, 157, 158, 159, 160, 161, 162, 163, 164, 165, 166, 167, 168, 169, 170, 171, 172, 173, 174, 175, 176, 177, 178, 179, 180, 181, 182, 183, 184, 185, 186, 187, 188, 189, 190, 191, 192, 193, 194, 195, 196, 197, 198, 199, 200],
      "LargestImagePixelValue": [378, 379, 378, 379, 379, 379, 378, 378, 378, 378, 379, 379, 378, 378, 379, 379, 378, 379, 378, 378, 378, 379, 378, 377, 377, 377, 377, 377, 379, 379, 378, 378, 378, 377, 379, 378, 378, 379, 378, 379, 379, 379, 378, 379, 377, 377, 379, 378, 377, 379, 378, 378, 378, 378, 377, 377, 378, 379, 378, 378, 378, 378, 377, 379, 378, 378, 379, 379, 378, 377, 379, 379, 378, 378, 379, 379, 378, 377, 378, 379, 377, 380, 378, 379, 378, 379, 378, 378, 378, 378, 379, 378, 378, 376, 380, 378, 378, 378, 378, 379, 378, 378, 378, 378, 378, 379, 379, 378, 378, 378, 377, 377, 378, 378, 378, 378, 379, 377, 380, 376, 377, 380, 378, 378, 378, 379, 378, 378, 377, 378, 378, 379, 377, 376, 378, 376, 378, 378, 378, 379, 377, 379, 378, 378, 378, 378, 378, 378, 377, 379, 377, 377, 379, 377, 378, 378, 378, 377, 378, 377, 378, 377, 377, 378, 378, 378, 378, 378, 378, 377, 378, 378, 378, 378, 378, 378, 378, 378, 376, 378, 376, 378, 378, 377, 377, 378, 378, 379, 377, 378, 378, 377, 378, 378, 378, 377, 376, 378, 378, 378],
      "WindowCenter": [301.0, 301.0, 301.0, 301.0, 301.0, 301.0, 301.0, 301.0, 302.0, 301.0, 301.0, 302.0, 301.0, 301.0, 301.0, 301.0, 301.0, 301.0, 301.0, 301.0, 301.0, 301.0, 301.0, 301.0, 301.0, 302.0, 301.0, 301.0, 301.0, 301.0, 301.0, 301.0, 301.0, 301.0, 301.0, 301.0, 301.0, 301.0, 302.0, 301.0, 301.0, 301.0, 301.0, 301.0, 301.0, 301.0, 301.0, 301.0, 301.0, 301.0, 301.0, 301.0, 301.0, 301.0, 301.0, 301.0, 301.0, 301.0, 301.0, 301.0, 301.0, 301.0, 301.0, 301.0, 301.0, 301.0, 301.0, 301.0, 301.0, 302.0, 301.0, 301.0, 301.0, 301.0, 301.0, 301.0, 301.0, 301.0, 301.0, 301.0, 301.0, 301.0, 301.0, 301.0, 301.0, 301.0, 301.0, 301.0, 301.0, 301.0, 301.0, 301.0, 301.0, 301.0, 301.0, 302.0, 301.0, 301.0, 301.0, 301.0, 301.0, 301.0, 301.0, 301.0, 301.0, 301.0, 301.0, 300.0, 301.0, 301.0, 301.0, 300.0, 300.0, 301.0, 301.0, 301.0, 301.0, 301.0, 301.0, 301.0, 301.0, 301.0, 301.0, 301.0, 301.0, 300.0, 301.0, 301.0, 301.0, 301.0, 301.0, 301.0, 301.0, 301.0, 301.0, 301.0, 300.0, 301.0, 301.0, 301.0, 301.0, 300.0, 301.0, 301.0, 301.0, 301.0, 301.0, 301.0, 301.0, 301.0, 300.0, 301.0, 301.0, 301.0, 300.0, 301.0, 300.0, 301.0, 301.0, 301.0, 301.0, 301.0, 301.0, 300.0, 301.0, 301.0, 301.0, 301.0, 301.0, 300.0, 300.0, 301.0, 300.0, 300.0, 301.0, 300.0, 301.0, 300.0, 300.0, 301.0, 301.0, 301.0, 301.0, 300.0, 300.0, 300.0, 300.0, 300.0, 300.0, 301.0, 301.0, 300.0, 301.0, 300.0, 300.0, 300.0, 301.0, 300.0, 300.0, 300.0],
      "WindowWidth": [652.0, 652.0, 652.0, 652.0, 652.0, 652.0, 652.0, 652.0, 652.0, 652.0, 652.0, 652.0, 652.0, 652.0, 652.0, 652.0, 652.0, 652.0, 652.0, 652.0, 652.0, 652.0, 652.0, 652.0, 652.0, 652.0, 652.0, 652.0, 652.0, 652.0, 652.0, 652.0, 652.0, 652.0, 652.0, 652.0, 652.0, 652.0, 652.0, 652.0, 652.0, 652.0, 651.0, 652.0, 651.0, 652.0, 652.0, 652.0, 652.0, 652.0, 652.0, 652.0, 652.0, 652.0, 652.0, 652.0, 651.0, 652.0, 652.0, 652.0, 651.0, 652.0, 652.0, 652.0, 652.0, 652.0, 652.0, 652.0, 652.0, 652.0, 651.0, 651.0, 652.0, 651.0, 651.0, 652.0, 652.0, 652.0, 652.0, 652.0, 651.0, 652.0, 651.0, 651.0, 651.0, 652.0, 652.0, 652.0, 652.0, 651.0, 651.0, 652.0, 651.0, 652.0, 652.0, 652.0, 652.0, 651.0, 652.0, 652.0, 651.0, 652.0, 652.0, 652.0, 651.0, 652.0, 652.0, 651.0, 651.0, 651.0, 652.0, 650.0, 650.0, 651.0, 651.0, 651.0, 651.0, 651.0, 651.0, 651.0, 651.0, 651.0, 651.0, 651.0, 652.0, 650.0, 651.0, 651.0, 651.0, 651.0, 651.0, 651.0, 651.0, 651.0, 651.0, 652.0, 650.0, 651.0, 651.0, 651.0, 651.0, 650.0, 651.0, 651.0, 651.0, 651.0, 652.0, 651.0, 651.0, 651.0, 650.0, 651.0, 651.0, 651.0, 650.0, 651.0, 650.0, 651.0, 651.0, 650.0, 651.0, 651.0, 651.0, 650.0, 650.0, 650.0, 651.0, 651.0, 650.0, 650.0, 650.0, 650.0, 650.0, 650.0, 650.0, 650.0, 651.0, 650.0, 650.0, 650.0, 650.0, 650.0, 650.0, 650.0, 650.0, 650.0, 650.0, 650.0, 650.0, 651.0, 651.0, 650.0, 651.0, 650.0, 650.0, 650.0, 651.0, 650.0, 650.0, 650.0]
    },
    "slices": {}
  }
}