{
  "AcquisitionMatrixPE": 80,
  "AcquisitionNumber": 1,
  "AcquisitionTime": "09:41:44.065000",
  "BandwidthPerPixelPhaseEncode": 46.296,
  "BaseResolution": 80,
  "BodyPartExamined": "BRAIN",
  "CoilCombinationMethod": "Sum of Squares",
  "ConsistencyInfo": "N4_VE11E_LATEST_20181129",
  "ConversionSoftware": "dcm2niix",
  "ConversionSoftwareVersion": "v1.0.20220720",
  "DerivedVendorReportedEchoSpacing": 0.000540003,
  "DeviceSerialNumber": "66112",
  "DwellTime": 2.7e-06,
  "EchoTime": 0.035,
  "EchoTrainLength": 39,
  "EffectiveEchoSpacing": 0.000270002,
  "FlipAngle": 90,
  "HeudiconvVersion": "0.13.1",
  "ImageOrientationPatientDICOM": [0.980805, 0.194798, 0.0086933, -0.188163, 0.933819, 0.304264],
  "ImageOrientationText": "Tra>Cor(17.5)>Sag(-2.9)",
  "ImageType": [
    "ORIGINAL",
    "PRIMARY",
    "M",
    "ND",
    "NORM",
    "MOSAIC"
],
  "ImagingFrequency": 123.259,
  "InPlanePhaseEncodingDirectionDICOM": "COL",
  "InstitutionAddress": "Maynard 3,Hanover,NH,US,03755",
  "InstitutionName": "Dartmouth College - PBS",
  "InstitutionalDepartmentName": "Department",
  "MRAcquisitionType": "2D",
  "MagneticFieldStrength": 3,
  "Manufacturer": "Siemens",
  "ManufacturersModelName": "Prisma",
  "Modality": "MR",
  "MultibandAccelerationFactor": 4,
  "NonlinearGradientCorrection": false,
  "ParallelReductionFactorInPlane": 2,
  "PartialFourier": 1,
  "PatientPosition": "HFS",
  "PercentPhaseFOV": 100,
  "PercentSampling": 100,
  "PhaseEncodingDirection": "j-",
  "PhaseEncodingSteps": 79,
  "PhaseResolution": 1,
  "PixelBandwidth": 2315,
  "ProcedureStepDescription": "dbic^QA",
  "ProtocolName": "func-bold_task-rest_acq-p2-s4-3.5mm",
  "PulseSequenceDetails": "%SiemensSeq%\\ep2d_bold",
  "ReceiveCoilActiveElements": "HEA;HEP",
  "ReceiveCoilName": "Head_32",
  "ReconMatrixPE": 80,
  "RefLinesPE": 24,
  "RepetitionTime": 2,
  "SAR": 0.0176756,
  "ScanOptions": "FS",
  "ScanningSequence": "EP",
  "SequenceName": "*epfid2d1_80",
  "SequenceVariant": "SK",
  "SeriesDescription": "func-bold_task-rest_acq-p2-s4-3.5mm",
  "SeriesNumber": 6,
  "ShimSetting": [4219, -7743, -7501, -28, -152, 1, -26, 53],
  "SliceThickness": 3.5,
  "SliceTiming": [1.485, 0, 0.99, 0.2475, 1.2375, 0.7425, 1.7325, 0.495, 1.485, 0, 0.99, 0.2475, 1.2375, 0.7425, 1.7325, 0.495, 1.485, 0, 0.99, 0.2475, 1.2375, 0.7425, 1.7325, 0.495, 1.485, 0, 0.99, 0.2475, 1.2375, 0.7425, 1.7325, 0.495],
  "SoftwareVersions": "syngo MR E11",
  "SpacingBetweenSlices": 3.99,
  "StationName": "AWP66112",
  "TaskName": "rest",
  "TotalReadoutTime": 0.0213301,
  "TxRefAmp": 222.842,
  "dcmmeta_affine": [
    [-2.9424142837524414, -0.5644896626472473, -0.20409730076789856, 144.3148651123047],
    [-0.5843948721885681, 2.801456928253174, 1.1972380876541138, -100.10490417480469],
    [0.02607988938689232, -0.9127929210662842, 3.800666332244873, -26.509899139404297],
    [0.0, 0.0, 0.0, 1.0]
],
  "dcmmeta_reorient_transform": [
    [0.0, -1.0, 0.0, 79.0],
    [1.0, 0.0, 0.0, 0.0],
    [0.0, 0.0, 1.0, 0.0],
    [0.0, 0.0, 0.0, 1.0]
],
  "dcmmeta_shape": [80, 80, 32, 200],
  "dcmmeta_slice_dim": 2,
  "dcmmeta_version": 0.6,
  "global": {
    "const": {
      "AccessionNumber": "qa",
      "AcquisitionMatrix": [80, 0, 0, 80],
      "AngioFlag": "N",
      "BitsAllocated": 16,
      "BitsStored": 12,
      "BodyPartExamined": "BRAIN",
      "Columns": 480,
      "EchoNumbers": 1,
      "EchoTime": 35.0,
      "EchoTrainLength": 39,
      "FlipAngle": 90.0,
      "HighBit": 11,
      "ImageOrientationPatient": [0.98080479739441, 0.19479829568868, 0.00869329654972, -0.1881632305761, 0.93381894683471, 0.30426431468655],
      "ImagePositionPatient": [-575.30512234594, -798.38053384902, -286.39510814188],
      "ImageType": [
        "ORIGINAL",
        "PRIMARY",
        "M",
        "ND",
        "NORM",
        "MOSAIC"
],
      "ImagedNucleus": "1H",
      "ImagingFrequency": 123.259121,
      "InPlanePhaseEncodingDirection": "COL",
      "MRAcquisitionType": "2D",
      "MagneticFieldStrength": 3.0,
      "Manufacturer": "SIEMENS",
      "ManufacturerModelName": "Prisma",
      "Modality": "MR",
      "NumberOfAverages": 1.0,
      "NumberOfPhaseEncodingSteps": 79,
      "PercentPhaseFieldOfView": 100.0,
      "PercentSampling": 100.0,
      "PerformedProcedureStepStartTime": "092146.717000",
      "PhotometricInterpretation": "MONOCHROME2",
      "PixelBandwidth": 2315.0,
      "PixelRepresentation": 0,
      "PixelSpacing": [3.0, 3.0],
      "ProtocolName": "func-bold_task-rest_acq-p2-s4-3.5mm",
      "RepetitionTime": 2000.0,
      "Rows": 480,
      "SAR": 0.01767561479051,
      "SamplesPerPixel": 1,
      "ScanOptions": "FS",
      "ScanningSequence": "EP",
      "SequenceName": "*epfid2d1_80",
      "SequenceVariant": "SK",
      "SeriesDescription": "func-bold_task-rest_acq-p2-s4-3.5mm",
      "SeriesNumber": 6,
      "SeriesTime": "094223.788000",
      "SliceLocation": -62.671416960038,
      "SliceThickness": 3.5,
      "SmallestImagePixelValue": 0,
      "SoftwareVersions": "syngo MR E11",
      "SpacingBetweenSlices": 3.9900000064322,
      "SpecificCharacterSet": "ISO_IR 100",
      "StudyID": "16",
      "StudyTime": "092146.666000",
      "TransmitCoilName": "Body",
      "VariableFlipAngleFlag": "N",
      "WindowCenterWidthExplanation": "Algo1"
    },
    "slices": {}
  },
  "time": {
    "samples": {
      "AcquisitionNumber": [1, 2, 3, 4, 5, 6, 7, 8, 9, 10, 11, 12, 13, 14, 15, 16, 17, 18, 19, 20, 21, 22, 23, 24, 25, 26, 27, 28, 29, 30, 31, 32, 33, 34, 35, 36, 37, 38, 39, 40, 41, 42, 43, 44, 45, 46, 47, 48, 49, 50, 51, 52, 53, 54, 55, 56, 57, 58, 59, 60, 61, 62, 63, 64, 65, 66, 67, 68, 69, 70, 71, 72, 73, 74, 75, 76, 77, 78, 79, 80, 81, 82, 83, 84, 85, 86, 87, 88, 89, 90, 91, 92, 93, 94, 95, 96, 97, 98, 99, 100, 101, 102, 103, 104, 105, 106, 107, 108, 109, 110, 111, 112, 113, 114, 115, 116, 117, 118, 119, 120, 121, 122, 123, 124, 125, 126, 127, 128, 129, 130, 131, 132, 133, 134, 135, 136, 137, 138, 139, 140, 141, 142, 143, 144, 145, 146, 147, 148, 149, 150, 151, 152, 153, 154, 155, 156, 157, 158, 159, 160, 161, 162, 163, 164, 165, 166, 167, 168, 169, 170, 171, 172, 173, 174, 175, 176, 177, 178, 179, 180, 181, 182, 183, 184, 185, 186, 187, 188, 189, 190, 191, 192, 193, 194, 195, 196, 197, 198, 199, 200],
      "AcquisitionTime": ["094144.065000", "094146.065000", "094148.065000", "094150.065000", "094152.065000", "094154.065000", "094156.065000", "094158.065000", "094200.065000", "094202.065000", "094204.065000", "094206.065000", "094208.065000", "094210.065000", "094212.065000", "094214.065000", "094216.065000", "094218.065000", "094220.065000", "094222.065000", "094224.065000", "094226.065000", "094228.065000", "094230.065000", "094232.065000", "094234.065000", "094236.065000", "094238.065000", "094240.065000", "094242.065000", "094244.065000", "094246.065000", "094248.065000", "094250.065000", "094252.065000", "094254.065000", "094256.065000", "094258.065000", "094300.065000", "094302.065000", "094304.065000", "094306.065000", "094308.065000", "094310.065000", "094312.065000", "094314.065000", "094316.065000", "094318.065000", "094320.065000", "094322.065000", "094324.065000", "094326.065000", "094328.065000", "094330.065000", "094332.065000", "094334.065000", "094336.065000", "094338.065000", "094340.065000", "094342.065000", "094344.065000", "094346.065000", "094348.065000", "094350.065000", "094352.065000", "094354.065000", "094356.065000", "094358.065000", "094400.065000", "094402.065000", "094404.065000", "094406.065000", "094408.065000", "094410.065000", "094412.065000", "094414.065000", "094416.065000", "094418.065000", "094420.065000", "094422.065000", "094424.065000", "094426.065000", "094428.065000", "094430.065000", "094432.065000", "094434.065000", "094436.065000", "094438.065000", "094440.065000", "094442.065000", "094444.065000", "094446.065000", "094448.065000", "094450.065000", "094452.065000", "094454.065000", "094456.065000", "094458.065000", "094500.065000", "094502.065000", "094504.065000", "094506.065000", "094508.065000", "094510.065000", "094512.065000", "094514.065000", "094516.065000", "094518.065000", "094520.065000", "094522.065000", "094524.065000", "094526.065000", "094528.065000", "094530.065000", "094532.065000", "094534.065000", "094536.065000", "094538.065000", "094540.065000", "094542.065000", "094544.065000", "094546.065000", "094548.065000", "094550.065000", "094552.065000", "094554.065000", "094556.065000", "094558.065000", "094600.065000", "094602.065000", "094604.065000", "094606.065000", "094608.065000", "094610.065000", "094612.065000", "094614.065000", "094616.065000", "094618.065000", "094620.065000", "094622.065000", "094624.065000", "094626.065000", "094628.065000", "094630.065000", "094632.065000", "094634.065000", "094636.065000", "094638.065000", "094640.065000", "094642.065000", "094644.065000", "094646.065000", "094648.065000", "094650.065000", "094652.065000", "094654.065000", "094656.065000", "094658.065000", "094700.065000", "094702.065000", "094704.065000", "094706.065000", "094708.065000", "094710.065000", "094712.065000", "094714.065000", "094716.065000", "094718.065000", "094720.065000", "094722.065000", "094724.065000", "094726.065000", "094728.065000", "094730.065000", "094732.065000", "094734.065000", "094736.065000", "094738.065000", "094740.065000", "094742.065000", "094744.065000", "094746.065000", "094748.065000", "094750.065000", "094752.065000", "094754.065000", "094756.065000", "094758.065000", "094800.065000", "094802.065000", "094804.065000", "094806.065000", "094808.065000", "094810.065000", "094812.065000", "094814.065000", "094816.065000", "094818.065000", "094820.065000", "094822.065000"],
      "ContentTime": ["094223.791000", "094223.794000", "094223.797000", "094223.799000", "094223.802000", "094223.812000", "094223.814000", "094223.817000", "094223.819000", "094223.821000", "094223.824000", "094223.830000", "094223.836000", "094223.838000", "094223.841000", "094223.843000", "094223.845000", "094223.848000", "094223.850000", "094223.853000", "094303.787000", "094303.790000", "094303.792000", "094303.795000", "094303.797000", "094303.799000", "094303.802000", "094303.805000", "094303.807000", "094303.809000", "094303.812000", "094303.814000", "094303.816000", "094303.818000", "094303.821000", "094303.823000", "094303.825000", "094303.828000", "094303.830000", "094303.833000", "094343.787000", "094343.790000", "094343.792000", "094343.794000", "094343.796000", "094343.799000", "094343.823000", "094343.825000", "094343.828000", "094343.830000", "094343.840000", "094343.842000", "094343.845000", "094343.847000", "094343.850000", "094343.852000", "094343.854000", "094343.856000", "094343.859000", "094343.861000", "094423.787000", "094423.790000", "094423.792000", "094423.795000", "094423.797000", "094423.799000", "094423.802000", "094423.804000", "094423.806000", "094423.809000", "094423.811000", "094423.813000", "094423.816000", "094423.818000", "094423.820000", "094423.823000", "094423.825000", "094423.827000", "094423.830000", "094423.832000", "094503.787000", "094503.790000", "094503.792000", "094503.794000", "094503.797000", "094503.799000", "094503.802000", "094503.804000", "094503.806000", "094503.808000", "094503.811000", "094503.813000", "094503.815000", "094503.818000", "094503.820000", "094503.822000", "094503.824000", "094503.827000", "094503.829000", "094503.831000", "094543.787000", "094543.790000", "094543.792000", "094543.794000", "094543.797000", "094543.799000", "094543.824000", "094543.826000", "094543.828000", "094543.831000", "094543.833000", "094543.835000", "094543.838000", "094543.840000", "094543.842000", "094543.844000", "094543.847000", "094543.849000", "094543.852000", "094543.854000", "094623.787000", "094623.790000", "094623.792000", "094623.794000", "094623.797000", "094623.799000", "094623.801000", "094623.804000", "094623.806000", "094623.808000", "094623.811000", "094623.813000", "094623.815000", "094623.818000", "094623.820000", "094623.822000", "094623.824000", "094623.827000", "094623.829000", "094623.831000", "094703.787000", "094703.790000", "094703.792000", "094703.794000", "094703.797000", "094703.799000", "094703.801000", "094703.804000", "094703.806000", "094703.808000", "094703.816000", "094703.819000", "094703.821000", "094703.823000", "094703.825000", "094703.828000", "094703.830000", "094703.832000", "094703.835000", "094703.837000", "094743.787000", "094743.790000", "094743.792000", "094743.795000", "094743.797000", "094743.800000", "094743.802000", "094743.804000", "094743.807000", "094743.809000", "094743.811000", "094743.814000", "094743.816000", "094743.818000", "094743.821000", "094743.823000", "094743.825000", "094743.827000", "094743.830000", "094743.832000", "094822.948000", "094822.950000", "094822.953000", "094822.955000", "094822.957000", "094822.960000", "094822.962000", "094822.965000", "094822.967000", "094822.970000", "094822.972000", "094822.974000", "094822.977000", "094822.979000", "094822.982000", "094822.984000", "094822.986000", "094822.990000", "094822.993000", "094822.995000"],
      "InstanceCreationTime": ["094223.791000", "094223.794000", "094223.797000", "094223.799000", "094223.802000", "094223.812000", "094223.814000", "094223.817000", "094223.819000", "094223.821000", "094223.824000", "094223.830000", "094223.836000", "094223.838000", "094223.841000", "094223.843000", "094223.845000", "094223.848000", "094223.850000", "094223.853000", "094303.787000", "094303.790000", "094303.792000", "094303.795000", "094303.797000", "094303.799000", "094303.802000", "094303.805000", "094303.807000", "094303.809000", "094303.812000", "094303.814000", "094303.816000", "094303.818000", "094303.821000", "094303.823000", "094303.825000", "094303.828000", "094303.830000", "094303.833000", "094343.787000", "094343.790000", "094343.792000", "094343.794000", "094343.796000", "094343.799000", "094343.823000", "094343.825000", "094343.828000", "094343.830000", "094343.840000", "094343.842000", "094343.845000", "094343.847000", "094343.850000", "094343.852000", "094343.854000", "094343.856000", "094343.859000", "094343.861000", "094423.787000", "094423.790000", "094423.792000", "094423.795000", "094423.797000", "094423.799000", "094423.802000", "094423.804000", "094423.806000", "094423.809000", "094423.811000", "094423.813000", "094423.816000", "094423.818000", "094423.820000", "094423.823000", "094423.825000", "094423.827000", "094423.830000", "094423.832000", "094503.787000", "094503.790000", "094503.792000", "094503.794000", "094503.797000", "094503.799000", "094503.802000", "094503.804000", "094503.806000", "094503.808000", "094503.811000", "094503.813000", "094503.815000", "094503.818000", "094503.820000", "094503.822000", "094503.824000", "094503.827000", "094503.829000", "094503.831000", "094543.787000", "094543.790000", "094543.792000", "094543.794000", "094543.797000", "094543.799000", "094543.824000", "094543.826000", "094543.828000", "094543.831000", "094543.833000", "094543.835000", "094543.838000", "094543.840000", "094543.842000", "094543.844000", "094543.847000", "094543.849000", "094543.852000", "094543.854000", "094623.787000", "094623.790000", "094623.792000", "094623.794000", "094623.797000", "094623.799000", "094623.801000", "094623.804000", "094623.806000", "094623.808000", "094623.811000", "094623.813000", "094623.815000", "094623.818000", "094623.820000", "094623.822000", "094623.824000", "094623.827000", "094623.829000", "094623.831000", "094703.787000", "094703.790000", "094703.792000", "094703.794000", "094703.797000", "094703.799000", "094703.801000", "094703.804000", "094703.806000", "094703.808000", "094703.816000", "094703.819000", "094703.821000", "094703.823000", "094703.825000", "094703.828000", "094703.830000", "094703.832000", "094703.835000", "094703.837000", "094743.787000", "094743.790000", "094743.792000", "094743.795000", "094743.797000", "094743.800000", "094743.802000", "094743.804000", "094743.807000", "094743.809000", "094743.811000", "094743.814000", "094743.816000", "094743.818000", "094743.821000", "094743.823000", "094743.825000", "094743.827000", "094743.830000", "094743.832000", "094822.948000", "094822.950000", "094822.953000", "094822.955000", "094822.957000", "094822.960000", "094822.962000", "094822.965000", "094822.967000", "094822.970000", "094822.972000", "094822.974000", "094822.977000", "094822.979000", "094822.982000", "094822.984000", "094822.986000", "094822.990000", "094822.993000", "094822.995000"],
      "InstanceNumber": [1, 2, 3, 4, 5, 6, 7, 8, 9, 10, 11, 12, 13, 14, 15, 16, 17, 18, 19, 20, 21, 22, 23, 24, 25, 26, 27, 28, 29, 30, 31, 32, 33, 34, 35, 36, 37, 38, 39, 40, 41, 42, 43, 44, 45, 46, 47, 48, 49, 50, 51, 52, 53, 54, 55, 56, 57, 58, 59, 60, 61, 62, 63, 64, 65, 66, 67, 68, 69, 70, 71, 72, 73, 74, 75, 76, 77, 78, 79, 80, 81, 82, 83, 84, 85, 86, 87, 88, 89, 90, 91, 92, 93, 94, 95, 96, 97, 98, 99, 100, 101, 102, 103, 104, 105, 106, 107, 108, 109, 110, 111, 112, 113, 114, 115, 116, 117, 118, 119, 120, 121, 122, 123, 124, 125, 126, 127, 128, 129, 130, 131, 132, 133, 134, 135, 136, 137, 138, 139, 140, 141, 142, 143, 144, 145, 146, 147, 148, 149, 150, 151, 152, 153, 154, 155, 156, 157, 158, 159, 160, 161, 162, 163, 164, 165, 166, 167, 168, 169, 170, 171, 172, 173, 174, 175, 176, 177, 178, 179, 180, 181, 182, 183, 184, 185, 186, 187, 188, 189, 190, 191, 192, 193, 194, 195, 196, 197, 198, 199, 200],
      "LargestImagePixelValue": [2196, 2192, 2199, 2192, 2193, 2195, 2195, 2192, 2196, 2190, 2196, 2192, 2201, 2193, 2193, 2194, 2196, 2190, 2195, 2194, 2192, 2195, 2196, 2190, 2192, 2192, 2196, 2195, 2192, 2198, 2195, 2199, 2196, 2196, 2192, 2191, 2195, 2193, 2195, 2194, 2193, 2193, 2197, 2194, 2197, 2193, 2194, 2197, 2192, 2197, 2194, 2194, 2197, 2195, 2193, 2195, 2199, 2195, 2195, 2197, 2197, 2195, 2197, 2195, 2201, 2191, 2197, 2192, 2201, 2194, 2198, 2193, 2201, 2197, 2198, 2200, 2198, 2197, 2199, 2192, 2198, 2195, 2193, 2197, 2195, 2195, 2199, 2198, 2198, 2201, 2196, 2190, 2195, 2200, 2197, 2202, 2197, 2200, 2193, 2195, 2193, 2194, 2196, 2198, 2194, 2200, 2193, 2196, 2197, 2199, 2196, 2196, 2197, 2198, 2197, 2196, 2201, 2200, 2196, 2196, 2198, 2193, 2201, 2194, 2198, 2197, 2195, 2200, 2200, 2198, 2201, 2197, 2201, 2200, 2201, 2194, 2197, 2196, 2197, 2198, 2198, 2200, 2196, 2195, 2199, 2195, 2198, 2195, 2197, 2196, 2198, 2198, 2195, 2202, 2193, 2198, 2195, 2200, 2200, 2201, 2199, 2201, 2197, 2200, 2193, 2204, 2201, 2197, 2197, 2204, 2195, 2196, 2196, 2195, 2199, 2197, 2197, 2196, 2197, 2196, 2196, 2194, 2199, 2199, 2199, 2194, 2202, 2197, 2200, 2194, 2195, 2197, 2198, 2196, 2198, 2195, 2199, 2195, 2203, 2199],
      "WindowCenter": [966.0, 965.0, 965.0, 966.0, 965.0, 964.0, 965.0, 964.0, 965.0, 965.0, 965.0, 965.0, 965.0, 965.0, 962.0, 964.0, 965.0, 964.0, 963.0, 964.0, 965.0, 964.0, 965.0, 963.0, 965.0, 965.0, 964.0, 964.0, 964.0, 964.0, 964.0, 964.0, 965.0, 964.0, 965.0, 964.0, 965.0, 964.0, 964.0, 963.0, 963.0, 965.0, 965.0, 965.0, 965.0, 965.0, 966.0, 965.0, 964.0, 964.0, 965.0, 965.0, 965.0, 965.0, 964.0, 965.0, 965.0, 965.0, 964.0, 965.0, 965.0, 965.0, 965.0, 965.0, 965.0, 965.0, 964.0, 964.0, 964.0, 964.0, 965.0, 964.0, 965.0, 964.0, 964.0, 965.0, 964.0, 966.0, 964.0, 965.0, 965.0, 965.0, 964.0, 964.0, 965.0, 964.0, 965.0, 965.0, 963.0, 964.0, 965.0, 964.0, 965.0, 964.0, 964.0, 965.0, 965.0, 965.0, 966.0, 965.0, 964.0, 964.0, 964.0, 966.0, 964.0, 965.0, 965.0, 964.0, 965.0, 965.0, 965.0, 965.0, 965.0, 965.0, 965.0, 965.0, 965.0, 964.0, 965.0, 965.0, 965.0, 965.0, 965.0, 964.0, 965.0, 965.0, 964.0, 964.0, 965.0, 966.0, 965.0, 965.0, 965.0, 965.0, 965.0, 964.0, 963.0, 965.0, 964.0, 964.0, 964.0, 964.0, 965.0, 966.0, 964.0, 965.0, 966.0, 965.0, 964.0, 965.0, 966.0, 964.0, 966.0, 965.0, 965.0, 965.0, 964.0, 965.0, 965.0, 965.0, 964.0, 965.0, 965.0, 964.0, 965.0, 963.0, 965.0, 965.0, 965.0, 966.0, 965.0, 964.0, 964.0, 963.0, 965.0, 965.0, 965.0, 965.0, 965.0, 964.0, 965.0, 964.0, 965.0, 964.0, 965.0, 964.0, 964.0, 963.0, 965.0, 965.0, 965.0, 965.0, 964.0, 965.0, 966.0, 965.0, 965.0, 965.0, 965.0, 966.0],
      "WindowWidth": [2282.0, 2281.0, 2281.0, 2282.0, 2281.0, 2280.0, 2281.0, 2280.0, 2281.0, 2281.0, 2281.0, 2281.0, 2281.0, 2281.0, 2279.0, 2280.0, 2281.0, 2280.0, 2279.0, 2280.0, 2281.0, 2280.0, 2281.0, 2279.0, 2281.0, 2281.0, 2280.0, 2280.0, 2280.0, 2280.0, 2280.0, 2280.0, 2281.0, 2280.0, 2281.0, 2280.0, 2281.0, 2280.0, 2280.0, 2280.0, 2279.0, 2281.0, 2281.0, 2281.0, 2281.0, 2281.0, 2282.0, 2281.0, 2280.0, 2280.0, 2281.0, 2281.0, 2281.0, 2281.0, 2280.0, 2281.0, 2281.0, 2281.0, 2280.0, 2281.0, 2281.0, 2281.0, 2281.0, 2281.0, 2281.0, 2281.0, 2280.0, 2280.0, 2280.0, 2280.0, 2281.0, 2280.0, 2281.0, 2280.0, 2280.0, 2281.0, 2280.0, 2282.0, 2280.0, 2281.0, 2281.0, 2281.0, 2280.0, 2280.0, 2281.0, 2280.0, 2281.0, 2281.0, 2279.0, 2280.0, 2281.0, 2280.0, 2281.0, 2280.0, 2280.0, 2281.0, 2281.0, 2280.0, 2282.0, 2281.0, 2280.0, 2280.0, 2280.0, 2282.0, 2280.0, 2281.0, 2281.0, 2280.0, 2281.0, 2281.0, 2281.0, 2281.0, 2280.0, 2281.0, 2281.0, 2281.0, 2280.0, 2280.0, 2281.0, 2281.0, 2281.0, 2281.0, 2281.0, 2280.0, 2281.0, 2281.0, 2280.0, 2280.0, 2281.0, 2282.0, 2281.0, 2281.0, 2281.0, 2280.0, 2281.0, 2280.0, 2279.0, 2281.0, 2280.0, 2280.0, 2280.0, 2280.0, 2281.0, 2282.0, 2280.0, 2280.0, 2282.0, 2281.0, 2280.0, 2280.0, 2282.0, 2280.0, 2282.0, 2280.0, 2281.0, 2281.0, 2280.0, 2281.0, 2281.0, 2281.0, 2280.0, 2281.0, 2280.0, 2280.0, 2280.0, 2279.0, 2281.0, 2281.0, 2281.0, 2281.0, 2281.0, 2280.0, 2280.0, 2279.0, 2280.0, 2281.0, 2280.0, 2281.0, 2280.0, 2280.0, 2280.0, 2280.0, 2280.0, 2279.0, 2280.0, 2280.0, 2279.0, 2279.0, 2280.0, 2281.0, 2280.0, 2280.0, 2280.0, 2280.0, 2282.0, 2280.0, 2281.0, 2280.0, 2280.0, 2281.0]
    },
    "slices": {}
  }
}