{
  "AcquisitionMatrixPE": 80,
  "AcquisitionNumber": 1,
  "AcquisitionTime": "09:48:32.410000",
  "BandwidthPerPixelPhaseEncode": 25,
  "BaseResolution": 80,
  "BodyPartExamined": "BRAIN",
  "CoilCombinationMethod": "Sum of Squares",
  "ConsistencyInfo": "N4_VE11E_LATEST_20181129",
  "ConversionSoftware": "dcm2niix",
  "ConversionSoftwareVersion": "v1.0.20220720",
  "DerivedVendorReportedEchoSpacing": 0.0005,
  "DeviceSerialNumber": "66112",
  "DwellTime": 2.7e-06,
  "EchoTime": 0.03,
  "EchoTrainLength": 80,
  "EffectiveEchoSpacing": 0.0005,
  "FlipAngle": 77,
  "HeudiconvVersion": "0.13.1",
  "ImageOrientationPatientDICOM": [0.980805, 0.194798, 0.0086933, -0.188163, 0.933819, 0.304264],
  "ImageOrientationText": "Tra>Cor(17.5)>Sag(-2.9)",
  "ImageType": [
    "ORIGINAL",
    "PRIMARY",
    "M",
    "ND",
    "NORM",
    "MOSAIC"
],
  "ImagingFrequency": 123.259,
  "InPlanePhaseEncodingDirectionDICOM": "COL",
  "InstitutionAddress": "Maynard 3,Hanover,NH,US,03755",
  "InstitutionName": "Dartmouth College - PBS",
  "InstitutionalDepartmentName": "Department",
  "MRAcquisitionType": "2D",
  "MagneticFieldStrength": 3,
  "Manufacturer": "Siemens",
  "ManufacturersModelName": "Prisma",
  "MatrixCoilMode": "SENSE",
  "Modality": "MR",
  "NonlinearGradientCorrection": false,
  "PartialFourier": 1,
  "PatientPosition": "HFS",
  "PercentPhaseFOV": 100,
  "PercentSampling": 100,
  "PhaseEncodingDirection": "j-",
  "PhaseEncodingSteps": 80,
  "PhaseResolution": 1,
  "PixelBandwidth": 2315,
  "ProcedureStepDescription": "dbic^QA",
  "ProtocolName": "func-bold_fa-77",
  "PulseSequenceDetails": "%SiemensSeq%\\ep2d_bold",
  "ReceiveCoilActiveElements": "HEA;HEP",
  "ReceiveCoilName": "Head_32",
  "ReconMatrixPE": 80,
  "RepetitionTime": 2,
  "SAR": 0.0369373,
  "ScanOptions": "FS",
  "ScanningSequence": "EP",
  "SequenceName": "*epfid2d1_80",
  "SequenceVariant": "SK",
  "SeriesDescription": "func-bold_fa-77",
  "SeriesNumber": 7,
  "ShimSetting": [4219, -7742, -7501, -32, -152, 1, -26, 54],
  "SliceThickness": 3.5,
  "SliceTiming": [0.99, 0, 1.055, 0.065, 1.12, 0.13, 1.1875, 0.1975, 1.2525, 0.2625, 1.32, 0.33, 1.385, 0.395, 1.45, 0.46, 1.5175, 0.5275, 1.5825, 0.5925, 1.6475, 0.66, 1.715, 0.725, 1.78, 0.79, 1.8475, 0.8575, 1.9125, 0.9225],
  "SoftwareVersions": "syngo MR E11",
  "SpacingBetweenSlices": 3.99,
  "StationName": "AWP66112",
  "TotalReadoutTime": 0.0395,
  "TxRefAmp": 222.842,
  "dcmmeta_affine": [
    [-2.9424142837524414, -0.5644896626472473, -0.20409730076789856, 144.11077880859375],
    [-0.5843948721885681, 2.801456928253174, 1.1972379684448242, -98.90768432617188],
    [0.02607988938689232, -0.9127929210662842, 3.800666332244873, -22.709060668945312],
    [0.0, 0.0, 0.0, 1.0]
],
  "dcmmeta_reorient_transform": [
    [0.0, -1.0, 0.0, 79.0],
    [1.0, 0.0, 0.0, 0.0],
    [0.0, 0.0, 1.0, 0.0],
    [0.0, 0.0, 0.0, 1.0]
],
  "dcmmeta_shape": [80, 80, 30, 200],
  "dcmmeta_slice_dim": 2,
  "dcmmeta_version": 0.6,
  "global": {
    "const": {
      "AccessionNumber": "qa",
      "AcquisitionMatrix": [80, 0, 0, 80],
      "AngioFlag": "N",
      "BitsAllocated": 16,
      "BitsStored": 12,
      "BodyPartExamined": "BRAIN",
      "Columns": 480,
      "EchoNumbers": 1,
      "EchoTime": 30.0,
      "EchoTrainLength": 80,
      "FlipAngle": 77.0,
      "HighBit": 11,
      "ImageOrientationPatient": [0.98080479739441, 0.19479829568868, 0.00869329654972, -0.1881632305761, 0.93381894683471, 0.30426431468655],
      "ImagePositionPatient": [-575.10103032018, -799.57775369765, -282.59426967142],
      "ImageType": [
        "ORIGINAL",
        "PRIMARY",
        "M",
        "ND",
        "NORM",
        "MOSAIC"
],
      "ImagedNucleus": "1H",
      "ImagingFrequency": 123.25912,
      "InPlanePhaseEncodingDirection": "COL",
      "MRAcquisitionType": "2D",
      "MagneticFieldStrength": 3.0,
      "Manufacturer": "SIEMENS",
      "ManufacturerModelName": "Prisma",
      "Modality": "MR",
      "NumberOfAverages": 1.0,
      "NumberOfPhaseEncodingSteps": 80,
      "PercentPhaseFieldOfView": 100.0,
      "PercentSampling": 100.0,
      "PerformedProcedureStepStartTime": "092146.717000",
      "PhotometricInterpretation": "MONOCHROME2",
      "PixelBandwidth": 2315.0,
      "PixelRepresentation": 0,
      "PixelSpacing": [3.0, 3.0],
      "ProtocolName": "func-bold_fa-77",
      "RepetitionTime": 2000.0,
      "Rows": 480,
      "SAR": 0.03693726190626,
      "SamplesPerPixel": 1,
      "ScanOptions": "FS",
      "ScanningSequence": "EP",
      "SequenceName": "*epfid2d1_80",
      "SequenceVariant": "SK",
      "SeriesDescription": "func-bold_fa-77",
      "SeriesNumber": 7,
      "SeriesTime": "094923.875000",
      "SliceLocation": -58.681258818496,
      "SliceThickness": 3.5,
      "SmallestImagePixelValue": 0,
      "SoftwareVersions": "syngo MR E11",
      "SpacingBetweenSlices": 3.9899999645114,
      "SpecificCharacterSet": "ISO_IR 100",
      "StudyID": "16",
      "StudyTime": "092146.666000",
      "TransmitCoilName": "Body",
      "VariableFlipAngleFlag": "N",
      "WindowCenterWidthExplanation": "Algo1"
    },
    "slices": {}
  },
  "time": {
    "samples": {
      "AcquisitionNumber": [1, 2, 3, 4, 5, 6, 7, 8, 9, 10, 11, 12, 13, 14, 15, 16, 17, 18, 19, 20, 21, 22, 23, 24, 25, 26, 27, 28, 29, 30, 31, 32, 33, 34, 35, 36, 37, 38, 39, 40, 41, 42, 43, 44, 45, 46, 47, 48, 49, 50, 51, 52, 53, 54, 55, 56, 57, 58, 59, 60, 61, 62, 63, 64, 65, 66, 67, 68, 69, 70, 71, 72, 73, 74, 75, 76, 77, 78, 79, 80, 81, 82, 83, 84, 85, 86, 87, 88, 89, 90, 91, 92, 93, 94, 95, 96, 97, 98, 99, 100, 101, 102, 103, 104, 105, 106, 107, 108, 109, 110, 111, 112, 113, 114, 115, 116, 117, 118, 119, 120, 121, 122, 123, 124, 125, 126, 127, 128, 129, 130, 131, 132, 133, 134, 135, 136, 137, 138, 139, 140, 141, 142, 143, 144, 145, 146, 147, 148, 149, 150, 151, 152, 153, 154, 155, 156, 157, 158, 159, 160, 161, 162, 163, 164, 165, 166, 167, 168, 169, 170, 171, 172, 173, 174, 175, 176, 177, 178, 179, 180, 181, 182, 183, 184, 185, 186, 187, 188, 189, 190, 191, 192, 193, 194, 195, 196, 197, 198, 199, 200],
      "AcquisitionTime": ["094832.410000", "094834.410000", "094836.410000", "094838.410000", "094840.410000", "094842.410000", "094844.410000", "094846.410000", "094848.410000", "094850.410000", "094852.410000", "094854.410000", "094856.410000", "094858.410000", "094900.410000", "094902.410000", "094904.410000", "094906.410000", "094908.410000", "094910.410000", "094912.410000", "094914.410000", "094916.410000", "094918.410000", "094920.410000", "094922.410000", "094924.410000", "094926.410000", "094928.410000", "094930.410000", "094932.410000", "094934.410000", "094936.410000", "094938.410000", "094940.410000", "094942.410000", "094944.410000", "094946.410000", "094948.410000", "094950.410000", "094952.410000", "094954.410000", "094956.410000", "094958.410000", "095000.410000", "095002.410000", "095004.410000", "095006.410000", "095008.410000", "095010.410000", "095012.410000", "095014.410000", "095016.410000", "095018.410000", "095020.410000", "095022.410000", "095024.410000", "095026.410000", "095028.410000", "095030.410000", "095032.410000", "095034.410000", "095036.410000", "095038.410000", "095040.410000", "095042.410000", "095044.410000", "095046.410000", "095048.410000", "095050.410000", "095052.410000", "095054.410000", "095056.410000", "095058.410000", "095100.410000", "095102.410000", "095104.410000", "095106.410000", "095108.410000", "095110.410000", "095112.410000", "095114.410000", "095116.410000", "095118.410000", "095120.410000", "095122.410000", "095124.410000", "095126.410000", "095128.410000", "095130.410000", "095132.410000", "095134.410000", "095136.410000", "095138.410000", "095140.410000", "095142.410000", "095144.410000", "095146.410000", "095148.410000", "095150.410000", "095152.410000", "095154.410000", "095156.410000", "095158.410000", "095200.410000", "095202.410000", "095204.410000", "095206.410000", "095208.410000", "095210.410000", "095212.410000", "095214.410000", "095216.410000", "095218.410000", "095220.410000", "095222.410000", "095224.410000", "095226.410000", "095228.410000", "095230.410000", "095232.410000", "095234.410000", "095236.410000", "095238.410000", "095240.410000", "095242.410000", "095244.410000", "095246.410000", "095248.410000", "095250.410000", "095252.410000", "095254.410000", "095256.410000", "095258.410000", "095300.410000", "095302.410000", "095304.410000", "095306.410000", "095308.410000", "095310.410000", "095312.410000", "095314.410000", "095316.410000", "095318.410000", "095320.410000", "095322.410000", "095324.410000", "095326.410000", "095328.410000", "095330.410000", "095332.410000", "095334.410000", "095336.410000", "095338.410000", "095340.410000", "095342.410000", "095344.410000", "095346.410000", "095348.410000", "095350.410000", "095352.410000", "095354.410000", "095356.410000", "095358.410000", "095400.410000", "095402.410000", "095404.410000", "095406.410000", "095408.410000", "095410.410000", "095412.410000", "095414.410000", "095416.410000", "095418.410000", "095420.410000", "095422.410000", "095424.410000", "095426.410000", "095428.410000", "095430.410000", "095432.410000", "095434.410000", "095436.410000", "095438.410000", "095440.410000", "095442.410000", "095444.410000", "095446.410000", "095448.410000", "095450.410000", "095452.410000", "095454.410000", "095456.410000", "095458.410000", "095500.410000", "095502.410000", "095504.410000", "095506.410000", "095508.410000", "095510.410000"],
      "ContentTime": ["094923.878000", "094923.881000", "094923.884000", "094923.886000", "094923.888000", "094923.890000", "094923.893000", "094923.900000", "094923.902000", "094923.904000", "094923.906000", "094923.909000", "094923.911000", "094923.916000", "094923.919000", "094923.921000", "094923.923000", "094923.926000", "094923.928000", "094923.930000", "094923.932000", "094923.935000", "094923.937000", "094923.939000", "094923.941000", "095003.873000", "095003.876000", "095003.878000", "095003.880000", "095003.882000", "095003.885000", "095003.887000", "095003.889000", "095003.892000", "095003.894000", "095003.896000", "095003.898000", "095003.901000", "095003.903000", "095003.905000", "095003.907000", "095003.910000", "095003.912000", "095003.914000", "095003.916000", "095043.873000", "095043.876000", "095043.878000", "095043.880000", "095043.883000", "095043.885000", "095043.887000", "095043.890000", "095043.892000", "095043.894000", "095043.896000", "095043.907000", "095043.909000", "095043.911000", "095043.914000", "095043.916000", "095043.918000", "095043.921000", "095043.923000", "095043.925000", "095123.873000", "095123.876000", "095123.878000", "095123.880000", "095123.882000", "095123.885000", "095123.887000", "095123.889000", "095123.891000", "095123.894000", "095123.896000", "095123.898000", "095123.900000", "095123.903000", "095123.905000", "095123.907000", "095123.910000", "095123.912000", "095123.914000", "095123.916000", "095203.873000", "095203.875000", "095203.878000", "095203.880000", "095203.882000", "095203.885000", "095203.887000", "095203.889000", "095203.891000", "095203.894000", "095203.896000", "095203.898000", "095203.901000", "095203.903000", "095203.905000", "095203.908000", "095203.910000", "095203.912000", "095203.915000", "095203.917000", "095243.873000", "095243.876000", "095243.878000", "095243.880000", "095243.883000", "095243.885000", "095243.887000", "095243.889000", "095243.892000", "095243.894000", "095243.896000", "095243.898000", "095243.901000", "095243.903000", "095243.905000", "095243.908000", "095243.910000", "095243.912000", "095243.914000", "095243.917000", "095323.874000", "095323.876000", "095323.886000", "095323.888000", "095323.891000", "095323.893000", "095323.895000", "095323.897000", "095323.900000", "095323.902000", "095323.904000", "095323.906000", "095323.920000", "095323.922000", "095323.924000", "095323.926000", "095323.929000", "095323.931000", "095323.933000", "095323.936000", "095403.873000", "095403.876000", "095403.878000", "095403.880000", "095403.882000", "095403.885000", "095403.887000", "095403.889000", "095403.892000", "095403.894000", "095403.896000", "095403.898000", "095403.901000", "095403.903000", "095403.905000", "095403.907000", "095403.910000", "095403.912000", "095403.914000", "095403.916000", "095443.873000", "095443.876000", "095443.878000", "095443.880000", "095443.883000", "095443.885000", "095443.887000", "095443.890000", "095443.892000", "095443.894000", "095443.897000", "095443.899000", "095443.901000", "095443.903000", "095443.906000", "095443.908000", "095443.910000", "095443.913000", "095443.915000", "095443.917000", "095512.418000", "095512.420000", "095512.423000", "095512.425000", "095512.427000", "095512.429000", "095512.432000", "095512.434000", "095512.436000", "095512.439000", "095512.441000", "095512.443000", "095512.446000", "095512.450000", "095512.456000"],
      "InstanceCreationTime": ["094923.878000", "094923.881000", "094923.884000", "094923.886000", "094923.888000", "094923.890000", "094923.893000", "094923.900000", "094923.902000", "094923.904000", "094923.906000", "094923.909000", "094923.911000", "094923.916000", "094923.919000", "094923.921000", "094923.923000", "094923.926000", "094923.928000", "094923.930000", "094923.932000", "094923.935000", "094923.937000", "094923.939000", "094923.941000", "095003.873000", "095003.876000", "095003.878000", "095003.880000", "095003.882000", "095003.885000", "095003.887000", "095003.889000", "095003.892000", "095003.894000", "095003.896000", "095003.898000", "095003.901000", "095003.903000", "095003.905000", "095003.907000", "095003.910000", "095003.912000", "095003.914000", "095003.916000", "095043.873000", "095043.876000", "095043.878000", "095043.880000", "095043.883000", "095043.885000", "095043.887000", "095043.890000", "095043.892000", "095043.894000", "095043.896000", "095043.907000", "095043.909000", "095043.911000", "095043.914000", "095043.916000", "095043.918000", "095043.921000", "095043.923000", "095043.925000", "095123.873000", "095123.876000", "095123.878000", "095123.880000", "095123.882000", "095123.885000", "095123.887000", "095123.889000", "095123.891000", "095123.894000", "095123.896000", "095123.898000", "095123.900000", "095123.903000", "095123.905000", "095123.907000", "095123.910000", "095123.912000", "095123.914000", "095123.916000", "095203.873000", "095203.875000", "095203.878000", "095203.880000", "095203.882000", "095203.885000", "095203.887000", "095203.889000", "095203.891000", "095203.894000", "095203.896000", "095203.898000", "095203.901000", "095203.903000", "095203.905000", "095203.908000", "095203.910000", "095203.912000", "095203.915000", "095203.917000", "095243.873000", "095243.876000", "095243.878000", "095243.880000", "095243.883000", "095243.885000", "095243.887000", "095243.889000", "095243.892000", "095243.894000", "095243.896000", "095243.898000", "095243.901000", "095243.903000", "095243.905000", "095243.908000", "095243.910000", "095243.912000", "095243.914000", "095243.917000", "095323.874000", "095323.876000", "095323.886000", "095323.888000", "095323.891000", "095323.893000", "095323.895000", "095323.897000", "095323.900000", "095323.902000", "095323.904000", "095323.906000", "095323.920000", "095323.922000", "095323.924000", "095323.926000", "095323.929000", "095323.931000", "095323.933000", "095323.936000", "095403.873000", "095403.876000", "095403.878000", "095403.880000", "095403.882000", "095403.885000", "095403.887000", "095403.889000", "095403.892000", "095403.894000", "095403.896000", "095403.898000", "095403.901000", "095403.903000", "095403.905000", "095403.907000", "095403.910000", "095403.912000", "095403.914000", "095403.916000", "095443.873000", "095443.876000", "095443.878000", "095443.880000", "095443.883000", "095443.885000", "095443.887000", "095443.890000", "095443.892000", "095443.894000", "095443.897000", "095443.899000", "095443.901000", "095443.903000", "095443.906000", "095443.908000", "095443.910000", "095443.913000", "095443.915000", "095443.917000", "095512.418000", "095512.420000", "095512.423000", "095512.425000", "095512.427000", "095512.429000", "095512.432000", "095512.434000", "095512.436000", "095512.439000", "095512.441000", "095512.443000", "095512.446000", "095512.450000", "095512.456000"],
      "InstanceNumber": [1, 2, 3, 4, 5, 6, 7, 8, 9, 10, 11, 12, 13, 14, 15, 16, 17, 18, 19, 20, 21, 22, 23, 24, 25, 26, 27, 28, 29, 30, 31, 32, 33, 34, 35, 36, 37, 38, 39, 40, 41, 42, 43, 44, 45, 46, 47, 48, 49, 50, 51, 52, 53, 54, 55, 56, 57, 58, 59, 60, 61, 62, 63, 64, 65, 66, 67, 68, 69, 70, 71, 72, 73, 74, 75, 76, 77, 78, 79, 80, 81, 82, 83, 84, 85, 86, 87, 88, 89, 90, 91, 92, 93, 94, 95, 96, 97, 98, 99, 100, 101, 102, 103, 104, 105, 106, 107, 108, 109, 110, 111, 112, 113, 114, 115, 116, 117, 118, 119, 120, 121, 122, 123, 124, 125, 126, 127, 128, 129, 130, 131, 132, 133, 134, 135, 136, 137, 138, 139, 140, 141, 142, 143, 144, 145, 146, 147, 148, 149, 150, 151, 152, 153, 154, 155, 156, 157, 158, 159, 160, 161, 162, 163, 164, 165, 166, 167, 168, 169, 170, 171, 172, 173, 174, 175, 176, 177, 178, 179, 180, 181, 182, 183, 184, 185, 186, 187, 188, 189, 190, 191, 192, 193, 194, 195, 196, 197, 198, 199, 200],
      "LargestImagePixelValue": [2148, 2149, 2149, 2148, 2149, 2147, 2150, 2149, 2149, 2149, 2148, 2150, 2148, 2146, 2148, 2147, 2149, 2148, 2147, 2150, 2154, 2149, 2152, 2152, 2151, 2154, 2153, 2151, 2150, 2152, 2150, 2151, 2150, 2146, 2148, 2147, 2149, 2151, 2151, 2151, 2152, 2148, 2149, 2150, 2152, 2150, 2150, 2151, 2152, 2151, 2149, 2150, 2152, 2149, 2147, 2149, 2148, 2146, 2150, 2150, 2148, 2149, 2148, 2146, 2146, 2147, 2147, 2146, 2149, 2148, 2148, 2148, 2147, 2148, 2144, 2148, 2146, 2146, 2150, 2148, 2150, 2149, 2147, 2146, 2149, 2150, 2150, 2149, 2148, 2149, 2148, 2148, 2150, 2152, 2151, 2150, 2149, 2147, 2146, 2149, 2148, 2147, 2147, 2150, 2150, 2147, 2150, 2148, 2148, 2149, 2147, 2150, 2149, 2150, 2149, 2148, 2149, 2149, 2150, 2148, 2147, 2149, 2150, 2149, 2150, 2147, 2147, 2148, 2149, 2151, 2150, 2148, 2148, 2148, 2151, 2148, 2150, 2149, 2148, 2148, 2148, 2150, 2149, 2150, 2150, 2149, 2151, 2149, 2151, 2147, 2150, 2146, 2149, 2152, 2150, 2149, 2150, 2151, 2152, 2152, 2151, 2152, 2153, 2152, 2153, 2152, 2154, 2150, 2151, 2149, 2152, 2150, 2150, 2155, 2151, 2152, 2152, 2151, 2152, 2151, 2152, 2150, 2153, 2152, 2151, 2152, 2151, 2152, 2152, 2151, 2152, 2149, 2148, 2151, 2148, 2149, 2150, 2151, 2151, 2151],
      "WindowCenter": [1018.0, 1018.0, 1019.0, 1017.0, 1019.0, 1018.0, 1018.0, 1018.0, 1018.0, 1018.0, 1018.0, 1019.0, 1018.0, 1018.0, 1018.0, 1018.0, 1019.0, 1018.0, 1018.0, 1017.0, 1017.0, 1017.0, 1018.0, 1018.0, 1019.0, 1017.0, 1019.0, 1017.0, 1017.0, 1017.0, 1017.0, 1019.0, 1017.0, 1018.0, 1018.0, 1018.0, 1017.0, 1017.0, 1018.0, 1017.0, 1018.0, 1017.0, 1018.0, 1017.0, 1018.0, 1017.0, 1018.0, 1017.0, 1017.0, 1017.0, 1017.0, 1017.0, 1016.0, 1018.0, 1017.0, 1017.0, 1017.0, 1018.0, 1018.0, 1016.0, 1019.0, 1018.0, 1019.0, 1017.0, 1017.0, 1017.0, 1016.0, 1018.0, 1017.0, 1017.0, 1018.0, 1017.0, 1017.0, 1017.0, 1018.0, 1017.0, 1017.0, 1017.0, 1017.0, 1017.0, 1018.0, 1017.0, 1017.0, 1017.0, 1018.0, 1018.0, 1017.0, 1018.0, 1017.0, 1017.0, 1017.0, 1017.0, 1017.0, 1017.0, 1018.0, 1017.0, 1017.0, 1017.0, 1017.0, 1018.0, 1017.0, 1018.0, 1017.0, 1017.0, 1016.0, 1017.0, 1016.0, 1017.0, 1017.0, 1017.0, 1017.0, 1017.0, 1017.0, 1017.0, 1017.0, 1016.0, 1016.0, 1016.0, 1016.0, 1016.0, 1016.0, 1016.0, 1017.0, 1017.0, 1016.0, 1017.0, 1016.0, 1016.0, 1016.0, 1016.0, 1016.0, 1016.0, 1016.0, 1015.0, 1017.0, 1017.0, 1016.0, 1017.0, 1017.0, 1016.0, 1017.0, 1014.0, 1018.0, 1016.0, 1016.0, 1016.0, 1016.0, 1017.0, 1017.0, 1017.0, 1016.0, 1016.0, 1016.0, 1017.0, 1016.0, 1016.0, 1016.0, 1016.0, 1016.0, 1017.0, 1016.0, 1016.0, 1016.0, 1016.0, 1017.0, 1017.0, 1017.0, 1016.0, 1016.0, 1016.0, 1017.0, 1016.0, 1018.0, 1016.0, 1016.0, 1017.0, 1016.0, 1017.0, 1017.0, 1016.0, 1016.0, 1018.0, 1016.0, 1016.0, 1016.0, 1016.0, 1016.0, 1017.0, 1016.0, 1017.0, 1017.0, 1017.0, 1016.0, 1016.0, 1015.0, 1018.0, 1016.0, 1016.0, 1016.0, 1016.0],
      "WindowWidth": [2273.0, 2273.0, 2273.0, 2272.0, 2274.0, 2273.0, 2273.0, 2273.0, 2273.0, 2273.0, 2273.0, 2273.0, 2273.0, 2273.0, 2273.0, 2273.0, 2274.0, 2273.0, 2273.0, 2272.0, 2273.0, 2273.0, 2273.0, 2273.0, 2274.0, 2273.0, 2274.0, 2272.0, 2272.0, 2272.0, 2272.0, 2274.0, 2272.0, 2273.0, 2273.0, 2273.0, 2272.0, 2272.0, 2273.0, 2272.0, 2273.0, 2272.0, 2272.0, 2272.0, 2272.0, 2272.0, 2272.0, 2272.0, 2272.0, 2272.0, 2272.0, 2272.0, 2271.0, 2272.0, 2272.0, 2272.0, 2271.0, 2272.0, 2272.0, 2271.0, 2273.0, 2272.0, 2273.0, 2271.0, 2271.0, 2271.0, 2271.0, 2272.0, 2271.0, 2271.0, 2272.0, 2271.0, 2271.0, 2271.0, 2272.0, 2271.0, 2271.0, 2271.0, 2271.0, 2271.0, 2272.0, 2271.0, 2271.0, 2271.0, 2272.0, 2272.0, 2271.0, 2273.0, 2271.0, 2271.0, 2271.0, 2271.0, 2271.0, 2271.0, 2271.0, 2271.0, 2271.0, 2271.0, 2270.0, 2271.0, 2270.0, 2271.0, 2270.0, 2271.0, 2271.0, 2272.0, 2271.0, 2271.0, 2271.0, 2271.0, 2270.0, 2271.0, 2271.0, 2271.0, 2271.0, 2270.0, 2270.0, 2270.0, 2271.0, 2270.0, 2270.0, 2271.0, 2271.0, 2271.0, 2270.0, 2271.0, 2270.0, 2270.0, 2270.0, 2270.0, 2270.0, 2270.0, 2270.0, 2269.0, 2271.0, 2271.0, 2270.0, 2271.0, 2271.0, 2270.0, 2271.0, 2269.0, 2272.0, 2270.0, 2270.0, 2270.0, 2270.0, 2270.0, 2271.0, 2271.0, 2270.0, 2270.0, 2270.0, 2271.0, 2270.0, 2270.0, 2269.0, 2270.0, 2270.0, 2271.0, 2270.0, 2270.0, 2270.0, 2270.0, 2271.0, 2271.0, 2271.0, 2270.0, 2270.0, 2269.0, 2271.0, 2270.0, 2271.0, 2270.0, 2269.0, 2270.0, 2269.0, 2270.0, 2270.0, 2270.0, 2269.0, 2271.0, 2270.0, 2269.0, 2269.0, 2270.0, 2269.0, 2270.0, 2269.0, 2270.0, 2270.0, 2270.0, 2269.0, 2269.0, 2268.0, 2271.0, 2269.0, 2269.0, 2269.0, 2269.0]
    },
    "slices": {}
  }
}