{
  "AcquisitionMatrixPE": 80,
  "AcquisitionNumber": 1,
  "AcquisitionTime": "09:55:19.447500",
  "BandwidthPerPixelPhaseEncode": 25,
  "BaseResolution": 80,
  "BodyPartExamined": "BRAIN",
  "CoilCombinationMethod": "Sum of Squares",
  "ConsistencyInfo": "N4_VE11E_LATEST_20181129",
  "ConversionSoftware": "dcm2niix",
  "ConversionSoftwareVersion": "v1.0.20220720",
  "DerivedVendorReportedEchoSpacing": 0.0005,
  "DeviceSerialNumber": "66112",
  "DwellTime": 2.7e-06,
  "EchoTime": 0.03,
  "EchoTrainLength": 80,
  "EffectiveEchoSpacing": 0.0005,
  "FlipAngle": 10,
  "HeudiconvVersion": "0.13.1",
  "ImageOrientationPatientDICOM": [0.980805, 0.194798, 0.0086933, -0.188163, 0.933819, 0.304264],
  "ImageOrientationText": "Tra>Cor(17.5)>Sag(-2.9)",
  "ImageType": [
    "ORIGINAL",
    "PRIMARY",
    "M",
    "ND",
    "NORM",
    "MOSAIC"
],
  "ImagingFrequency": 123.259,
  "InPlanePhaseEncodingDirectionDICOM": "COL",
  "InstitutionAddress": "Maynard 3,Hanover,NH,US,03755",
  "InstitutionName": "Dartmouth College - PBS",
  "InstitutionalDepartmentName": "Department",
  "MRAcquisitionType": "2D",
  "MagneticFieldStrength": 3,
  "Manufacturer": "Siemens",
  "ManufacturersModelName": "Prisma",
  "MatrixCoilMode": "SENSE",
  "Modality": "MR",
  "NonlinearGradientCorrection": false,
  "PartialFourier": 1,
  "PatientPosition": "HFS",
  "PercentPhaseFOV": 100,
  "PercentSampling": 100,
  "PhaseEncodingDirection": "j-",
  "PhaseEncodingSteps": 80,
  "PhaseResolution": 1,
  "PixelBandwidth": 2315,
  "ProcedureStepDescription": "dbic^QA",
  "ProtocolName": "func-bold_fa-10",
  "PulseSequenceDetails": "%SiemensSeq%\\ep2d_bold",
  "ReceiveCoilActiveElements": "HEA;HEP",
  "ReceiveCoilName": "Head_32",
  "ReconMatrixPE": 80,
  "RepetitionTime": 2,
  "SAR": 0.00990839,
  "ScanOptions": "FS",
  "ScanningSequence": "EP",
  "SequenceName": "*epfid2d1_80",
  "SequenceVariant": "SK",
  "SeriesDescription": "func-bold_fa-10",
  "SeriesNumber": 8,
  "ShimSetting": [4219, -7742, -7501, -32, -152, 1, -26, 54],
  "SliceThickness": 3.5,
  "SliceTiming": [0.99, 0, 1.0575, 0.0675, 1.1225, 0.1325, 1.19, 0.2, 1.255, 0.265, 1.32, 0.33, 1.3875, 0.3975, 1.4525, 0.4625, 1.52, 0.53, 1.585, 0.595, 1.65, 0.66, 1.7175, 0.7275, 1.7825, 0.7925, 1.85, 0.86, 1.915, 0.925],
  "SoftwareVersions": "syngo MR E11",
  "SpacingBetweenSlices": 3.99,
  "StationName": "AWP66112",
  "TotalReadoutTime": 0.0395,
  "TxRefAmp": 222.842,
  "dcmmeta_affine": [
    [-2.9424142837524414, -0.5644896626472473, -0.20409730076789856, 144.11077880859375],
    [-0.5843948721885681, 2.801456928253174, 1.1972379684448242, -98.90768432617188],
    [0.02607988938689232, -0.9127929210662842, 3.800666332244873, -22.709060668945312],
    [0.0, 0.0, 0.0, 1.0]
],
  "dcmmeta_reorient_transform": [
    [0.0, -1.0, 0.0, 79.0],
    [1.0, 0.0, 0.0, 0.0],
    [0.0, 0.0, 1.0, 0.0],
    [0.0, 0.0, 0.0, 1.0]
],
  "dcmmeta_shape": [80, 80, 30, 200],
  "dcmmeta_slice_dim": 2,
  "dcmmeta_version": 0.6,
  "global": {
    "const": {
      "AccessionNumber": "qa",
      "AcquisitionMatrix": [80, 0, 0, 80],
      "AngioFlag": "N",
      "BitsAllocated": 16,
      "BitsStored": 12,
      "BodyPartExamined": "BRAIN",
      "Columns": 480,
      "EchoNumbers": 1,
      "EchoTime": 30.0,
      "EchoTrainLength": 80,
      "FlipAngle": 10.0,
      "HighBit": 11,
      "ImageOrientationPatient": [0.98080479739441, 0.19479829568868, 0.00869329654972, -0.1881632305761, 0.93381894683471, 0.30426431468655],
      "ImagePositionPatient": [-575.10103032018, -799.57775369765, -282.59426967142],
      "ImageType": [
        "ORIGINAL",
        "PRIMARY",
        "M",
        "ND",
        "NORM",
        "MOSAIC"
],
      "ImagedNucleus": "1H",
      "ImagingFrequency": 123.259121,
      "InPlanePhaseEncodingDirection": "COL",
      "MRAcquisitionType": "2D",
      "MagneticFieldStrength": 3.0,
      "Manufacturer": "SIEMENS",
      "ManufacturerModelName": "Prisma",
      "Modality": "MR",
      "NumberOfAverages": 1.0,
      "NumberOfPhaseEncodingSteps": 80,
      "PercentPhaseFieldOfView": 100.0,
      "PercentSampling": 100.0,
      "PerformedProcedureStepStartTime": "092146.717000",
      "PhotometricInterpretation": "MONOCHROME2",
      "PixelBandwidth": 2315.0,
      "PixelRepresentation": 0,
      "PixelSpacing": [3.0, 3.0],
      "ProtocolName": "func-bold_fa-10",
      "RepetitionTime": 2000.0,
      "Rows": 480,
      "SAR": 0.00990838728349,
      "SamplesPerPixel": 1,
      "ScanOptions": "FS",
      "ScanningSequence": "EP",
      "SequenceName": "*epfid2d1_80",
      "SequenceVariant": "SK",
      "SeriesDescription": "func-bold_fa-10",
      "SeriesNumber": 8,
      "SeriesTime": "095603.670000",
      "SliceLocation": -58.681258818496,
      "SliceThickness": 3.5,
      "SmallestImagePixelValue": 0,
      "SoftwareVersions": "syngo MR E11",
      "SpacingBetweenSlices": 3.9899999645114,
      "SpecificCharacterSet": "ISO_IR 100",
      "StudyID": "16",
      "StudyTime": "092146.666000",
      "TransmitCoilName": "Body",
      "VariableFlipAngleFlag": "N",
      "WindowCenterWidthExplanation": "Algo1"
    },
    "slices": {}
  },
  "time": {
    "samples": {
      "AcquisitionNumber": [1, 2, 3, 4, 5, 6, 7, 8, 9, 10, 11, 12, 13, 14, 15, 16, 17, 18, 19, 20, 21, 22, 23, 24, 25, 26, 27, 28, 29, 30, 31, 32, 33, 34, 35, 36, 37, 38, 39, 40, 41, 42, 43, 44, 45, 46, 47, 48, 49, 50, 51, 52, 53, 54, 55, 56, 57, 58, 59, 60, 61, 62, 63, 64, 65, 66, 67, 68, 69, 70, 71, 72, 73, 74, 75, 76, 77, 78, 79, 80, 81, 82, 83, 84, 85, 86, 87, 88, 89, 90, 91, 92, 93, 94, 95, 96, 97, 98, 99, 100, 101, 102, 103, 104, 105, 106, 107, 108, 109, 110, 111, 112, 113, 114, 115, 116, 117, 118, 119, 120, 121, 122, 123, 124, 125, 126, 127, 128, 129, 130, 131, 132, 133, 134, 135, 136, 137, 138, 139, 140, 141, 142, 143, 144, 145, 146, 147, 148, 149, 150, 151, 152, 153, 154, 155, 156, 157, 158, 159, 160, 161, 162, 163, 164, 165, 166, 167, 168, 169, 170, 171, 172, 173, 174, 175, 176, 177, 178, 179, 180, 181, 182, 183, 184, 185, 186, 187, 188, 189, 190, 191, 192, 193, 194, 195, 196, 197, 198, 199, 200],
      "AcquisitionTime": ["095519.447500", "095521.447500", "095523.447500", "095525.447500", "095527.447500", "095529.447500", "095531.447500", "095533.447500", "095535.447500", "095537.447500", "095539.447500", "095541.447500", "095543.447500", "095545.447500", "095547.447500", "095549.447500", "095551.447500", "095553.447500", "095555.447500", "095557.447500", "095559.447500", "095601.447500", "095603.447500", "095605.447500", "095607.447500", "095609.447500", "095611.447500", "095613.447500", "095615.447500", "095617.447500", "095619.447500", "095621.447500", "095623.447500", "095625.447500", "095627.447500", "095629.447500", "095631.447500", "095633.447500", "095635.447500", "095637.447500", "095639.447500", "095641.447500", "095643.447500", "095645.447500", "095647.447500", "095649.447500", "095651.447500", "095653.447500", "095655.447500", "095657.447500", "095659.447500", "095701.447500", "095703.447500", "095705.447500", "095707.447500", "095709.447500", "095711.447500", "095713.447500", "095715.447500", "095717.447500", "095719.447500", "095721.447500", "095723.447500", "095725.447500", "095727.447500", "095729.447500", "095731.447500", "095733.447500", "095735.447500", "095737.447500", "095739.447500", "095741.447500", "095743.447500", "095745.447500", "095747.447500", "095749.447500", "095751.447500", "095753.447500", "095755.447500", "095757.447500", "095759.447500", "095801.447500", "095803.447500", "095805.447500", "095807.447500", "095809.447500", "095811.447500", "095813.447500", "095815.447500", "095817.447500", "095819.447500", "095821.447500", "095823.447500", "095825.447500", "095827.447500", "095829.447500", "095831.447500", "095833.447500", "095835.447500", "095837.447500", "095839.447500", "095841.447500", "095843.447500", "095845.447500", "095847.447500", "095849.447500", "095851.447500", "095853.447500", "095855.447500", "095857.447500", "095859.447500", "095901.447500", "095903.447500", "095905.447500", "095907.447500", "095909.447500", "095911.447500", "095913.447500", "095915.447500", "095917.447500", "095919.447500", "095921.447500", "095923.447500", "095925.447500", "095927.447500", "095929.447500", "095931.447500", "095933.447500", "095935.447500", "095937.447500", "095939.447500", "095941.447500", "095943.447500", "095945.447500", "095947.447500", "095949.447500", "095951.447500", "095953.447500", "095955.447500", "095957.447500", "095959.447500", "100001.447500", "100003.447500", "100005.447500", "100007.447500", "100009.447500", "100011.447500", "100013.447500", "100015.447500", "100017.447500", "100019.447500", "100021.447500", "100023.447500", "100025.447500", "100027.447500", "100029.447500", "100031.447500", "100033.447500", "100035.447500", "100037.447500", "100039.447500", "100041.447500", "100043.447500", "100045.447500", "100047.447500", "100049.447500", "100051.447500", "100053.447500", "100055.447500", "100057.447500", "100059.447500", "100101.447500", "100103.447500", "100105.447500", "100107.447500", "100109.447500", "100111.447500", "100113.447500", "100115.447500", "100117.447500", "100119.447500", "100121.447500", "100123.447500", "100125.447500", "100127.447500", "100129.447500", "100131.447500", "100133.447500", "100135.447500", "100137.447500", "100139.447500", "100141.447500", "100143.447500", "100145.447500", "100147.447500", "100149.447500", "100151.447500", "100153.447500", "100155.447500", "100157.447500"],
      "ContentTime": ["095603.674000", "095603.677000", "095603.679000", "095603.690000", "095603.692000", "095603.695000", "095603.697000", "095603.699000", "095603.701000", "095603.704000", "095603.706000", "095603.708000", "095603.710000", "095603.713000", "095603.715000", "095603.717000", "095603.719000", "095603.724000", "095603.726000", "095603.728000", "095603.730000", "095603.733000", "095643.669000", "095643.672000", "095643.674000", "095643.676000", "095643.678000", "095643.681000", "095643.683000", "095643.685000", "095643.688000", "095643.690000", "095643.692000", "095643.694000", "095643.697000", "095643.699000", "095643.701000", "095643.704000", "095643.706000", "095643.708000", "095643.710000", "095643.713000", "095723.669000", "095723.672000", "095723.674000", "095723.676000", "095723.679000", "095723.681000", "095723.683000", "095723.685000", "095723.688000", "095723.690000", "095723.692000", "095723.695000", "095723.697000", "095723.699000", "095723.709000", "095723.711000", "095723.713000", "095723.716000", "095723.718000", "095723.720000", "095803.670000", "095803.672000", "095803.674000", "095803.677000", "095803.679000", "095803.681000", "095803.683000", "095803.686000", "095803.688000", "095803.690000", "095803.692000", "095803.695000", "095803.697000", "095803.699000", "095803.701000", "095803.704000", "095803.706000", "095803.708000", "095803.710000", "095803.713000", "095823.669000", "095823.672000", "095823.674000", "095823.676000", "095823.678000", "095823.681000", "095823.691000", "095823.693000", "095823.696000", "095823.698000", "095903.669000", "095903.672000", "095903.674000", "095903.676000", "095903.678000", "095903.681000", "095903.683000", "095903.685000", "095903.687000", "095903.690000", "095903.692000", "095903.694000", "095903.696000", "095903.699000", "095903.701000", "095903.703000", "095903.705000", "095903.708000", "095903.710000", "095903.712000", "095943.669000", "095943.672000", "095943.674000", "095943.677000", "095943.679000", "095943.681000", "095943.683000", "095943.686000", "095943.688000", "095943.690000", "095943.692000", "095943.695000", "095943.697000", "095943.699000", "095943.701000", "095943.704000", "095943.706000", "095943.708000", "095943.710000", "095943.712000", "100023.669000", "100023.672000", "100023.674000", "100023.676000", "100023.678000", "100023.681000", "100023.683000", "100023.685000", "100023.688000", "100023.690000", "100023.692000", "100023.694000", "100023.697000", "100023.699000", "100023.701000", "100023.703000", "100023.706000", "100023.708000", "100023.710000", "100023.712000", "100103.669000", "100103.672000", "100103.674000", "100103.677000", "100103.679000", "100103.681000", "100103.683000", "100103.686000", "100103.688000", "100103.690000", "100103.692000", "100103.695000", "100103.697000", "100103.699000", "100103.702000", "100103.704000", "100103.706000", "100103.708000", "100103.711000", "100103.713000", "100143.669000", "100143.672000", "100143.674000", "100143.676000", "100143.679000", "100143.681000", "100143.683000", "100143.685000", "100143.688000", "100143.690000", "100143.692000", "100143.694000", "100143.697000", "100143.699000", "100143.701000", "100143.704000", "100143.706000", "100143.708000", "100143.710000", "100143.713000", "100158.891000", "100158.894000", "100158.896000", "100158.899000", "100158.901000", "100158.903000", "100158.905000", "100158.908000"],
      "InstanceCreationTime": ["095603.674000", "095603.677000", "095603.679000", "095603.690000", "095603.692000", "095603.695000", "095603.697000", "095603.699000", "095603.701000", "095603.704000", "095603.706000", "095603.708000", "095603.710000", "095603.713000", "095603.715000", "095603.717000", "095603.719000", "095603.724000", "095603.726000", "095603.728000", "095603.730000", "095603.733000", "095643.669000", "095643.672000", "095643.674000", "095643.676000", "095643.678000", "095643.681000", "095643.683000", "095643.685000", "095643.688000", "095643.690000", "095643.692000", "095643.694000", "095643.697000", "095643.699000", "095643.701000", "095643.704000", "095643.706000", "095643.708000", "095643.710000", "095643.713000", "095723.669000", "095723.672000", "095723.674000", "095723.676000", "095723.679000", "095723.681000", "095723.683000", "095723.685000", "095723.688000", "095723.690000", "095723.692000", "095723.695000", "095723.697000", "095723.699000", "095723.709000", "095723.711000", "095723.713000", "095723.716000", "095723.718000", "095723.720000", "095803.670000", "095803.672000", "095803.674000", "095803.677000", "095803.679000", "095803.681000", "095803.683000", "095803.686000", "095803.688000", "095803.690000", "095803.692000", "095803.695000", "095803.697000", "095803.699000", "095803.701000", "095803.704000", "095803.706000", "095803.708000", "095803.710000", "095803.713000", "095823.669000", "095823.672000", "095823.674000", "095823.676000", "095823.678000", "095823.681000", "095823.691000", "095823.693000", "095823.696000", "095823.698000", "095903.669000", "095903.672000", "095903.674000", "095903.676000", "095903.678000", "095903.681000", "095903.683000", "095903.685000", "095903.687000", "095903.690000", "095903.692000", "095903.694000", "095903.696000", "095903.699000", "095903.701000", "095903.703000", "095903.705000", "095903.708000", "095903.710000", "095903.712000", "095943.669000", "095943.672000", "095943.674000", "095943.677000", "095943.679000", "095943.681000", "095943.683000", "095943.686000", "095943.688000", "095943.690000", "095943.692000", "095943.695000", "095943.697000", "095943.699000", "095943.701000", "095943.704000", "095943.706000", "095943.708000", "095943.710000", "095943.712000", "100023.669000", "100023.672000", "100023.674000", "100023.676000", "100023.678000", "100023.681000", "100023.683000", "100023.685000", "100023.688000", "100023.690000", "100023.692000", "100023.694000", "100023.697000", "100023.699000", "100023.701000", "100023.703000", "100023.706000", "100023.708000", "100023.710000", "100023.712000", "100103.669000", "100103.672000", "100103.674000", "100103.677000", "100103.679000", "100103.681000", "100103.683000", "100103.686000", "100103.688000", "100103.690000", "100103.692000", "100103.695000", "100103.697000", "100103.699000", "100103.702000", "100103.704000", "100103.706000", "100103.708000", "100103.711000", "100103.713000", "100143.669000", "100143.672000", "100143.674000", "100143.676000", "100143.679000", "100143.681000", "100143.683000", "100143.685000", "100143.688000", "100143.690000", "100143.692000", "100143.694000", "100143.697000", "100143.699000", "100143.701000", "100143.704000", "100143.706000", "100143.708000", "100143.710000", "100143.713000", "100158.891000", "100158.894000", "100158.896000", "100158.899000", "100158.901000", "100158.903000", "100158.905000", "100158.908000"],
      "InstanceNumber": [1, 2, 3, 4, 5, 6, 7, 8, 9, 10, 11, 12, 13, 14, 15, 16, 17, 18, 19, 20, 21, 22, 23, 24, 25, 26, 27, 28, 29, 30, 31, 32, 33, 34, 35, 36, 37, 38, 39, 40, 41, 42, 43, 44, 45, 46, 47, 48, 49, 50, 51, 52, 53, 54, 55, 56, 57, 58, 59, 60, 61, 62, 63, 64, 65, 66, 67, 68, 69, 70, 71, 72, 73, 74, 75, 76, 77, 78, 79, 80, 81, 82, 83, 84, 85, 86, 87, 88, 89, 90, 91, 92, 93, 94, 95, 96, 97, 98, 99, 100, 101, 102, 103, 104, 105, 106, 107, 108, 109, 110, 111, 112, 113, 114, 115, 116, 117, 118, 119, 120, 121, 122, 123, 124, 125, 126, 127, 128, 129, 130, 131, 132, 133, 134, 135, 136, 137, 138, 139, 140, 141, 142, 143, 144, 145, 146, 147, 148, 149, 150, 151, 152, 153, 154, 155, 156, 157, 158, 159, 160, 161, 162, 163, 164, 165, 166, 167, 168, 169, 170, 171, 172, 173, 174, 175, 176, 177, 178, 179, 180, 181, 182, 183, 184, 185, 186, 187, 188, 189, 190, 191, 192, 193, 194, 195, 196, 197, 198, 199, 200],
      "LargestImagePixelValue": [367, 369, 367, 368, 369, 368, 369, 368, 368, 367, 369, 369, 369, 369, 370, 368, 370, 368, 368, 368, 367, 369, 369, 367, 369, 369, 369, 369, 370, 368, 368, 368, 369, 366, 368, 368, 368, 370, 367, 367, 369, 368, 368, 367, 367, 366, 369, 367, 368, 369, 368, 368, 367, 369, 368, 369, 370, 368, 367, 368, 370, 368, 369, 367, 368, 370, 369, 367, 367, 368, 368, 368, 366, 368, 367, 370, 370, 369, 366, 368, 369, 368, 368, 367, 367, 369, 370, 367, 368, 367, 368, 369, 368, 366, 368, 367, 368, 368, 366, 367, 368, 369, 367, 368, 368, 368, 369, 366, 368, 368, 367, 369, 366, 367, 369, 368, 370, 368, 368, 368, 368, 370, 366, 366, 368, 369, 369, 367, 368, 367, 369, 369, 367, 367, 368, 369, 367, 367, 367, 369, 369, 369, 369, 367, 368, 369, 368, 366, 368, 368, 368, 367, 368, 368, 367, 369, 367, 367, 367, 369, 369, 369, 367, 366, 368, 368, 368, 367, 368, 367, 368, 368, 368, 368, 368, 369, 368, 368, 367, 369, 370, 369, 367, 366, 368, 370, 366, 366, 369, 368, 369, 368, 366, 367, 369, 368, 368, 366, 367, 368],
      "WindowCenter": [299.0, 299.0, 299.0, 299.0, 299.0, 299.0, 299.0, 299.0, 299.0, 299.0, 299.0, 299.0, 299.0, 299.0, 300.0, 299.0, 300.0, 299.0, 299.0, 299.0, 299.0, 299.0, 299.0, 299.0, 299.0, 299.0, 299.0, 299.0, 299.0, 299.0, 299.0, 299.0, 299.0, 299.0, 299.0, 299.0, 299.0, 299.0, 299.0, 299.0, 299.0, 299.0, 299.0, 299.0, 299.0, 299.0, 299.0, 299.0, 299.0, 299.0, 299.0, 299.0, 299.0, 299.0, 299.0, 299.0, 299.0, 298.0, 299.0, 299.0, 299.0, 299.0, 299.0, 299.0, 299.0, 300.0, 299.0, 299.0, 299.0, 299.0, 299.0, 299.0, 299.0, 299.0, 299.0, 299.0, 300.0, 299.0, 299.0, 299.0, 299.0, 299.0, 299.0, 299.0, 299.0, 299.0, 299.0, 299.0, 299.0, 299.0, 299.0, 299.0, 299.0, 299.0, 299.0, 299.0, 299.0, 299.0, 298.0, 299.0, 299.0, 299.0, 299.0, 299.0, 298.0, 299.0, 299.0, 299.0, 298.0, 299.0, 299.0, 299.0, 299.0, 298.0, 299.0, 299.0, 299.0, 298.0, 298.0, 299.0, 299.0, 299.0, 299.0, 298.0, 298.0, 299.0, 299.0, 298.0, 298.0, 298.0, 299.0, 298.0, 299.0, 298.0, 298.0, 298.0, 299.0, 298.0, 298.0, 298.0, 299.0, 299.0, 298.0, 298.0, 298.0, 298.0, 298.0, 298.0, 298.0, 298.0, 298.0, 298.0, 298.0, 298.0, 298.0, 298.0, 298.0, 298.0, 298.0, 298.0, 298.0, 298.0, 298.0, 298.0, 298.0, 299.0, 298.0, 298.0, 298.0, 298.0, 298.0, 298.0, 298.0, 298.0, 298.0, 298.0, 298.0, 298.0, 298.0, 298.0, 299.0, 298.0, 298.0, 298.0, 298.0, 299.0, 298.0, 298.0, 298.0, 298.0, 298.0, 298.0, 298.0, 298.0, 298.0, 298.0, 298.0, 298.0, 298.0, 298.0],
      "WindowWidth": [648.0, 649.0, 649.0, 648.0, 648.0, 648.0, 648.0, 648.0, 648.0, 648.0, 648.0, 648.0, 648.0, 648.0, 649.0, 648.0, 649.0, 648.0, 648.0, 648.0, 648.0, 648.0, 648.0, 648.0, 648.0, 648.0, 648.0, 648.0, 649.0, 648.0, 648.0, 648.0, 648.0, 648.0, 648.0, 648.0, 648.0, 649.0, 648.0, 648.0, 648.0, 648.0, 648.0, 648.0, 648.0, 648.0, 648.0, 648.0, 648.0, 648.0, 648.0, 648.0, 648.0, 648.0, 648.0, 648.0, 649.0, 647.0, 648.0, 648.0, 649.0, 648.0, 648.0, 648.0, 648.0, 649.0, 648.0, 648.0, 648.0, 648.0, 648.0, 648.0, 648.0, 648.0, 648.0, 648.0, 649.0, 648.0, 648.0, 648.0, 648.0, 648.0, 648.0, 648.0, 648.0, 648.0, 649.0, 648.0, 648.0, 648.0, 648.0, 648.0, 648.0, 648.0, 648.0, 648.0, 648.0, 648.0, 647.0, 648.0, 648.0, 648.0, 648.0, 648.0, 647.0, 648.0, 648.0, 648.0, 647.0, 648.0, 648.0, 648.0, 648.0, 647.0, 648.0, 648.0, 649.0, 647.0, 647.0, 648.0, 648.0, 649.0, 648.0, 647.0, 647.0, 648.0, 648.0, 647.0, 646.0, 647.0, 648.0, 647.0, 648.0, 647.0, 647.0, 647.0, 648.0, 647.0, 647.0, 646.0, 648.0, 648.0, 647.0, 647.0, 647.0, 647.0, 647.0, 647.0, 647.0, 646.0, 647.0, 647.0, 646.0, 647.0, 647.0, 647.0, 647.0, 647.0, 646.0, 646.0, 647.0, 647.0, 647.0, 647.0, 647.0, 648.0, 647.0, 647.0, 647.0, 646.0, 647.0, 647.0, 647.0, 646.0, 646.0, 647.0, 647.0, 647.0, 646.0, 647.0, 648.0, 647.0, 646.0, 647.0, 646.0, 648.0, 646.0, 646.0, 646.0, 647.0, 647.0, 646.0, 646.0, 647.0, 647.0, 647.0, 647.0, 647.0, 646.0, 646.0]
    },
    "slices": {}
  }
}