{
  "AcquisitionMatrixPE": 80,
  "AcquisitionNumber": 1,
  "AcquisitionTime": "08:37:41.530000",
  "BandwidthPerPixelPhaseEncode": 25,
  "BaseResolution": 80,
  "BodyPartExamined": "BRAIN",
  "CoilCombinationMethod": "Sum of Squares",
  "ConsistencyInfo": "N4_VE11C_LATEST_20160120",
  "ConversionSoftware": "dcm2niix",
  "ConversionSoftwareVersion": "v1.0.20220720",
  "DerivedVendorReportedEchoSpacing": 0.0005,
  "DeviceSerialNumber": "66112",
  "DwellTime": 2.7e-06,
  "EchoTime": 0.03,
  "EchoTrainLength": 80,
  "EffectiveEchoSpacing": 0.0005,
  "FlipAngle": 10,
  "HeudiconvVersion": "0.13.1",
  "ImageOrientationPatientDICOM": [0.99988, 0.0152339, 0.00287973, -0.0153582, 0.947883, 0.318248],
  "ImageOrientationText": "Tra>Cor(18.6)>Sag(-0.1)",
  "ImageType": [
    "ORIGINAL",
    "PRIMARY",
    "M",
    "ND",
    "NORM",
    "MOSAIC"
],
  "ImagingFrequency": 123.252,
  "InPlanePhaseEncodingDirectionDICOM": "COL",
  "InstitutionAddress": "Maynard 3,Hanover,NH,US,03755",
  "InstitutionName": "Dartmouth College - PBS",
  "InstitutionalDepartmentName": "Department",
  "MRAcquisitionType": "2D",
  "MagneticFieldStrength": 3,
  "Manufacturer": "Siemens",
  "ManufacturersModelName": "Prisma",
  "MatrixCoilMode": "SENSE",
  "Modality": "MR",
  "NonlinearGradientCorrection": false,
  "PartialFourier": 1,
  "PatientPosition": "HFS",
  "PercentPhaseFOV": 100,
  "PercentSampling": 100,
  "PhaseEncodingDirection": "j-",
  "PhaseEncodingSteps": 80,
  "PhaseResolution": 1,
  "PixelBandwidth": 2315,
  "ProcedureStepDescription": "dbic^QA",
  "ProtocolName": "func-bold_fa-10",
  "PulseSequenceDetails": "%SiemensSeq%\\ep2d_bold",
  "ReceiveCoilActiveElements": "HC1-7;NC1,2",
  "ReceiveCoilName": "HeadNeck_64",
  "ReconMatrixPE": 80,
  "RepetitionTime": 2,
  "SAR": 0.00760637,
  "ScanOptions": "FS",
  "ScanningSequence": "EP",
  "SequenceName": "*epfid2d1_80",
  "SequenceVariant": "SK",
  "SeriesDescription": "func-bold_fa-10",
  "SeriesNumber": 9,
  "ShimSetting": [4140, -7687, -7504, 170, -72, -303, -16, 71],
  "SliceThickness": 3.5,
  "SliceTiming": [0.99, 0, 1.0575, 0.0675, 1.1225, 0.1325, 1.1875, 0.1975, 1.255, 0.265, 1.32, 0.33, 1.3875, 0.3975, 1.4525, 0.4625, 1.5175, 0.5275, 1.585, 0.595, 1.65, 0.66, 1.7175, 0.7275, 1.7825, 0.7925, 1.8475, 0.8575, 1.915, 0.925],
  "SoftwareVersions": "syngo MR E11",
  "SpacingBetweenSlices": 3.99,
  "StationName": "AWP66112",
  "TotalReadoutTime": 0.0395,
  "TxRefAmp": 214.159,
  "dcmmeta_affine": [
    [-2.9996395111083984, -0.046074725687503815, -0.008452865295112133, 123.15669250488281],
    [-0.04570161551237106, 2.843648910522461, 1.2698349952697754, -111.76862335205078],
    [0.008639177307486534, -0.9547452330589294, 3.782531976699829, -33.70519256591797],
    [0.0, 0.0, 0.0, 1.0]
],
  "dcmmeta_reorient_transform": [
    [0.0, -1.0, 0.0, 79.0],
    [1.0, 0.0, 0.0, 0.0],
    [0.0, 0.0, 1.0, 0.0],
    [0.0, 0.0, 0.0, 1.0]
],
  "dcmmeta_shape": [80, 80, 30, 200],
  "dcmmeta_slice_dim": 2,
  "dcmmeta_version": 0.6,
  "global": {
    "const": {
      "AccessionNumber": "qa64",
      "AcquisitionMatrix": [80, 0, 0, 80],
      "AngioFlag": "N",
      "BitsAllocated": 16,
      "BitsStored": 12,
      "BodyPartExamined": "BRAIN",
      "Columns": 480,
      "EchoNumbers": 1,
      "EchoTime": 30.0,
      "EchoTrainLength": 80,
      "FlipAngle": 10.0,
      "HighBit": 11,
      "ImageOrientationPatient": [0.99987981093265, 0.01523387239563, 0.00287972587655, -0.0153582418818, 0.94788294398822, 0.31824840754121],
      "ImagePositionPatient": [-710.22972934541, -690.74972536725, -301.80694447631],
      "ImageType": [
        "ORIGINAL",
        "PRIMARY",
        "M",
        "ND",
        "NORM",
        "MOSAIC"
],
      "ImagedNucleus": "1H",
      "ImagingFrequency": 123.252331,
      "InPlanePhaseEncodingDirection": "COL",
      "MRAcquisitionType": "2D",
      "MagneticFieldStrength": 3.0,
      "Manufacturer": "SIEMENS",
      "ManufacturerModelName": "Prisma",
      "Modality": "MR",
      "NumberOfAverages": 1.0,
      "NumberOfPhaseEncodingSteps": 80,
      "PercentPhaseFieldOfView": 100.0,
      "PercentSampling": 100.0,
      "PerformedProcedureStepStartTime": "082115.062000",
      "PhotometricInterpretation": "MONOCHROME2",
      "PixelBandwidth": 2315.0,
      "PixelRepresentation": 0,
      "PixelSpacing": [3.0, 3.0],
      "ProtocolName": "func-bold_fa-10",
      "RepetitionTime": 2000.0,
      "Rows": 480,
      "SAR": 0.00760636952694,
      "SamplesPerPixel": 1,
      "ScanOptions": "FS",
      "ScanningSequence": "EP",
      "SequenceName": "*epfid2d1_80",
      "SequenceVariant": "SK",
      "SeriesDescription": "func-bold_fa-10",
      "SeriesNumber": 9,
      "SeriesTime": "083826.383000",
      "SliceLocation": -67.784385577326,
      "SliceThickness": 3.5,
      "SmallestImagePixelValue": 0,
      "SoftwareVersions": "syngo MR E11",
      "SpacingBetweenSlices": 3.9899999665685,
      "SpecificCharacterSet": "ISO_IR 100",
      "StudyID": "55",
      "StudyTime": "082114.915000",
      "TransmitCoilName": "Body",
      "VariableFlipAngleFlag": "N",
      "WindowCenterWidthExplanation": "Algo1",
      "dBdt": 0.0},
    "slices": {}
  },
  "time": {
    "samples": {
      "AcquisitionNumber": [1, 2, 3, 4, 5, 6, 7, 8, 9, 10, 11, 12, 13, 14, 15, 16, 17, 18, 19, 20, 21, 22, 23, 24, 25, 26, 27, 28, 29, 30, 31, 32, 33, 34, 35, 36, 37, 38, 39, 40, 41, 42, 43, 44, 45, 46, 47, 48, 49, 50, 51, 52, 53, 54, 55, 56, 57, 58, 59, 60, 61, 62, 63, 64, 65, 66, 67, 68, 69, 70, 71, 72, 73, 74, 75, 76, 77, 78, 79, 80, 81, 82, 83, 84, 85, 86, 87, 88, 89, 90, 91, 92, 93, 94, 95, 96, 97, 98, 99, 100, 101, 102, 103, 104, 105, 106, 107, 108, 109, 110, 111, 112, 113, 114, 115, 116, 117, 118, 119, 120, 121, 122, 123, 124, 125, 126, 127, 128, 129, 130, 131, 132, 133, 134, 135, 136, 137, 138, 139, 140, 141, 142, 143, 144, 145, 146, 147, 148, 149, 150, 151, 152, 153, 154, 155, 156, 157, 158, 159, 160, 161, 162, 163, 164, 165, 166, 167, 168, 169, 170, 171, 172, 173, 174, 175, 176, 177, 178, 179, 180, 181, 182, 183, 184, 185, 186, 187, 188, 189, 190, 191, 192, 193, 194, 195, 196, 197, 198, 199, 200],
      "AcquisitionTime": ["083741.530000", "083743.530000", "083745.530000", "083747.530000", "083749.530000", "083751.530000", "083753.530000", "083755.530000", "083757.530000", "083759.530000", "083801.530000", "083803.530000", "083805.530000", "083807.530000", "083809.530000", "083811.530000", "083813.530000", "083815.530000", "083817.530000", "083819.530000", "083821.530000", "083823.530000", "083825.530000", "083827.530000", "083829.530000", "083831.530000", "083833.530000", "083835.530000", "083837.530000", "083839.530000", "083841.530000", "083843.530000", "083845.530000", "083847.530000", "083849.530000", "083851.530000", "083853.530000", "083855.530000", "083857.530000", "083859.530000", "083901.530000", "083903.530000", "083905.530000", "083907.530000", "083909.530000", "083911.530000", "083913.530000", "083915.530000", "083917.530000", "083919.530000", "083921.530000", "083923.530000", "083925.530000", "083927.530000", "083929.530000", "083931.530000", "083933.530000", "083935.530000", "083937.530000", "083939.530000", "083941.530000", "083943.530000", "083945.530000", "083947.530000", "083949.530000", "083951.530000", "083953.530000", "083955.530000", "083957.530000", "083959.530000", "084001.530000", "084003.530000", "084005.530000", "084007.530000", "084009.530000", "084011.530000", "084013.530000", "084015.530000", "084017.530000", "084019.530000", "084021.530000", "084023.530000", "084025.530000", "084027.530000", "084029.530000", "084031.530000", "084033.530000", "084035.530000", "084037.530000", "084039.530000", "084041.530000", "084043.530000", "084045.530000", "084047.530000", "084049.530000", "084051.530000", "084053.530000", "084055.530000", "084057.530000", "084059.530000", "084101.530000", "084103.530000", "084105.530000", "084107.530000", "084109.530000", "084111.530000", "084113.530000", "084115.530000", "084117.530000", "084119.530000", "084121.530000", "084123.530000", "084125.530000", "084127.530000", "084129.530000", "084131.530000", "084133.530000", "084135.530000", "084137.530000", "084139.530000", "084141.530000", "084143.530000", "084145.530000", "084147.530000", "084149.530000", "084151.530000", "084153.530000", "084155.530000", "084157.530000", "084159.530000", "084201.530000", "084203.530000", "084205.530000", "084207.530000", "084209.530000", "084211.530000", "084213.530000", "084215.530000", "084217.530000", "084219.530000", "084221.530000", "084223.530000", "084225.530000", "084227.530000", "084229.530000", "084231.530000", "084233.530000", "084235.530000", "084237.530000", "084239.530000", "084241.530000", "084243.530000", "084245.530000", "084247.530000", "084249.530000", "084251.530000", "084253.530000", "084255.530000", "084257.530000", "084259.530000", "084301.530000", "084303.530000", "084305.530000", "084307.530000", "084309.530000", "084311.530000", "084313.530000", "084315.530000", "084317.530000", "084319.530000", "084321.530000", "084323.530000", "084325.530000", "084327.530000", "084329.530000", "084331.530000", "084333.530000", "084335.530000", "084337.530000", "084339.530000", "084341.530000", "084343.530000", "084345.530000", "084347.530000", "084349.530000", "084351.530000", "084353.530000", "084355.530000", "084357.530000", "084359.530000", "084401.530000", "084403.530000", "084405.530000", "084407.530000", "084409.530000", "084411.530000", "084413.530000", "084415.530000", "084417.530000", "084419.530000"],
      "ContentTime": ["083826.386000", "083826.389000", "083826.392000", "083826.394000", "083826.397000", "083826.399000", "083826.402000", "083826.404000", "083826.407000", "083826.409000", "083826.412000", "083826.421000", "083826.424000", "083826.426000", "083826.429000", "083826.431000", "083826.434000", "083826.436000", "083826.442000", "083826.444000", "083826.447000", "083826.449000", "083906.381000", "083906.384000", "083906.387000", "083906.389000", "083906.392000", "083906.394000", "083906.396000", "083906.399000", "083906.401000", "083906.404000", "083906.406000", "083906.409000", "083906.411000", "083906.414000", "083906.416000", "083906.419000", "083906.421000", "083906.424000", "083906.426000", "083906.428000", "083946.381000", "083946.384000", "083946.387000", "083946.389000", "083946.392000", "083946.394000", "083946.397000", "083946.399000", "083946.401000", "083946.404000", "083946.406000", "083946.409000", "083946.411000", "083946.414000", "083946.416000", "083946.419000", "083946.421000", "083946.424000", "083946.426000", "083946.429000", "084026.381000", "084026.384000", "084026.386000", "084026.389000", "084026.391000", "084026.394000", "084026.396000", "084026.399000", "084026.414000", "084026.416000", "084026.419000", "084026.421000", "084026.424000", "084026.426000", "084026.429000", "084026.431000", "084026.434000", "084026.436000", "084026.439000", "084026.441000", "084046.381000", "084046.384000", "084046.387000", "084046.389000", "084046.392000", "084046.394000", "084046.397000", "084046.399000", "084046.402000", "084046.404000", "084126.381000", "084126.384000", "084126.387000", "084126.389000", "084126.392000", "084126.394000", "084126.397000", "084126.399000", "084126.402000", "084126.404000", "084126.407000", "084126.409000", "084126.411000", "084126.425000", "084126.428000", "084126.430000", "084126.433000", "084126.435000", "084126.438000", "084126.440000", "084206.381000", "084206.384000", "084206.387000", "084206.389000", "084206.392000", "084206.394000", "084206.397000", "084206.399000", "084206.402000", "084206.404000", "084206.407000", "084206.409000", "084206.412000", "084206.414000", "084206.417000", "084206.419000", "084206.422000", "084206.424000", "084206.427000", "084206.429000", "084246.381000", "084246.384000", "084246.387000", "084246.389000", "084246.392000", "084246.394000", "084246.396000", "084246.399000", "084246.402000", "084246.404000", "084246.407000", "084246.409000", "084246.411000", "084246.414000", "084246.416000", "084246.419000", "084246.421000", "084246.424000", "084246.426000", "084246.429000", "084326.380000", "084326.383000", "084326.386000", "084326.388000", "084326.391000", "084326.393000", "084326.396000", "084326.398000", "084326.401000", "084326.403000", "084326.406000", "084326.408000", "084326.411000", "084326.413000", "084326.416000", "084326.418000", "084326.421000", "084326.423000", "084326.426000", "084326.429000", "084406.381000", "084406.384000", "084406.387000", "084406.389000", "084406.392000", "084406.394000", "084406.397000", "084406.399000", "084406.402000", "084406.404000", "084406.407000", "084406.409000", "084406.412000", "084406.414000", "084406.417000", "084406.419000", "084406.422000", "084406.424000", "084406.427000", "084406.429000", "084420.704000", "084420.707000", "084420.710000", "084420.712000", "084420.715000", "084420.717000", "084420.720000", "084420.723000"],
      "InstanceCreationTime": ["083826.386000", "083826.389000", "083826.392000", "083826.394000", "083826.397000", "083826.399000", "083826.402000", "083826.404000", "083826.407000", "083826.409000", "083826.412000", "083826.421000", "083826.424000", "083826.426000", "083826.429000", "083826.431000", "083826.434000", "083826.436000", "083826.442000", "083826.444000", "083826.447000", "083826.449000", "083906.381000", "083906.384000", "083906.387000", "083906.389000", "083906.392000", "083906.394000", "083906.396000", "083906.399000", "083906.401000", "083906.404000", "083906.406000", "083906.409000", "083906.411000", "083906.414000", "083906.416000", "083906.419000", "083906.421000", "083906.424000", "083906.426000", "083906.428000", "083946.381000", "083946.384000", "083946.387000", "083946.389000", "083946.392000", "083946.394000", "083946.397000", "083946.399000", "083946.401000", "083946.404000", "083946.406000", "083946.409000", "083946.411000", "083946.414000", "083946.416000", "083946.419000", "083946.421000", "083946.424000", "083946.426000", "083946.429000", "084026.381000", "084026.384000", "084026.386000", "084026.389000", "084026.391000", "084026.394000", "084026.396000", "084026.399000", "084026.414000", "084026.416000", "084026.419000", "084026.421000", "084026.424000", "084026.426000", "084026.429000", "084026.431000", "084026.434000", "084026.436000", "084026.439000", "084026.441000", "084046.381000", "084046.384000", "084046.387000", "084046.389000", "084046.392000", "084046.394000", "084046.397000", "084046.399000", "084046.402000", "084046.404000", "084126.381000", "084126.384000", "084126.387000", "084126.389000", "084126.392000", "084126.394000", "084126.397000", "084126.399000", "084126.402000", "084126.404000", "084126.407000", "084126.409000", "084126.411000", "084126.425000", "084126.428000", "084126.430000", "084126.433000", "084126.435000", "084126.438000", "084126.440000", "084206.381000", "084206.384000", "084206.387000", "084206.389000", "084206.392000", "084206.394000", "084206.397000", "084206.399000", "084206.402000", "084206.404000", "084206.407000", "084206.409000", "084206.412000", "084206.414000", "084206.417000", "084206.419000", "084206.422000", "084206.424000", "084206.427000", "084206.429000", "084246.381000", "084246.384000", "084246.387000", "084246.389000", "084246.392000", "084246.394000", "084246.396000", "084246.399000", "084246.402000", "084246.404000", "084246.407000", "084246.409000", "084246.411000", "084246.414000", "084246.416000", "084246.419000", "084246.421000", "084246.424000", "084246.426000", "084246.429000", "084326.380000", "084326.383000", "084326.386000", "084326.388000", "084326.391000", "084326.393000", "084326.396000", "084326.398000", "084326.401000", "084326.403000", "084326.406000", "084326.408000", "084326.411000", "084326.413000", "084326.416000", "084326.418000", "084326.421000", "084326.423000", "084326.426000", "084326.429000", "084406.381000", "084406.384000", "084406.387000", "084406.389000", "084406.392000", "084406.394000", "084406.397000", "084406.399000", "084406.402000", "084406.404000", "084406.407000", "084406.409000", "084406.412000", "084406.414000", "084406.417000", "084406.419000", "084406.422000", "084406.424000", "084406.427000", "084406.429000", "084420.704000", "084420.707000", "084420.710000", "084420.712000", "084420.715000", "084420.717000", "084420.720000", "084420.723000"],
      "InstanceNumber": [1, 2, 3, 4, 5, 6, 7, 8, 9, 10, 11, 12, 13, 14, 15, 16, 17, 18, 19, 20, 21, 22, 23, 24, 25, 26, 27, 28, 29, 30, 31, 32, 33, 34, 35, 36, 37, 38, 39, 40, 41, 42, 43, 44, 45, 46, 47, 48, 49, 50, 51, 52, 53, 54, 55, 56, 57, 58, 59, 60, 61, 62, 63, 64, 65, 66, 67, 68, 69, 70, 71, 72, 73, 74, 75, 76, 77, 78, 79, 80, 81, 82, 83, 84, 85, 86, 87, 88, 89, 90, 91, 92, 93, 94, 95, 96, 97, 98, 99, 100, 101, 102, 103, 104, 105, 106, 107, 108, 109, 110, 111, 112, 113, 114, 115, 116, 117, 118, 119, 120, 121, 122, 123, 124, 125, 126, 127, 128, 129, 130, 131, 132, 133, 134, 135, 136, 137, 138, 139, 140, 141, 142, 143, 144, 145, 146, 147, 148, 149, 150, 151, 152, 153, 154, 155, 156, 157, 158, 159, 160, 161, 162, 163, 164, 165, 166, 167, 168, 169, 170, 171, 172, 173, 174, 175, 176, 177, 178, 179, 180, 181, 182, 183, 184, 185, 186, 187, 188, 189, 190, 191, 192, 193, 194, 195, 196, 197, 198, 199, 200],
      "LargestImagePixelValue": [625, 628, 624, 623, 624, 624, 624, 624, 624, 627, 627, 625, 624, 626, 625, 628, 624, 623, 625, 625, 626, 624, 626, 625, 626, 628, 625, 625, 626, 623, 626, 625, 625, 626, 626, 625, 624, 627, 623, 626, 624, 627, 626, 624, 623, 625, 625, 624, 625, 626, 626, 625, 625, 624, 625, 624, 626, 624, 625, 624, 627, 624, 627, 625, 626, 625, 626, 626, 627, 626, 624, 623, 622, 624, 624, 626, 625, 625, 626, 623, 627, 622, 627, 625, 624, 626, 625, 624, 623, 626, 623, 623, 626, 624, 626, 624, 624, 624, 625, 625, 625, 623, 626, 623, 623, 624, 623, 625, 622, 626, 624, 624, 622, 625, 625, 624, 626, 625, 623, 623, 622, 625, 623, 627, 624, 624, 627, 622, 627, 625, 624, 625, 625, 622, 627, 625, 624, 621, 623, 625, 623, 626, 625, 625, 622, 624, 622, 626, 621, 623, 622, 624, 625, 622, 622, 623, 624, 621, 624, 622, 624, 625, 625, 622, 625, 625, 622, 622, 625, 624, 621, 623, 624, 623, 620, 625, 623, 623, 624, 624, 623, 624, 624, 622, 621, 623, 624, 623, 622, 623, 625, 623, 623, 625, 625, 624, 623, 623, 623, 622],
      "WindowCenter": [444.0, 443.0, 443.0, 443.0, 443.0, 443.0, 443.0, 443.0, 443.0, 443.0, 443.0, 443.0, 443.0, 443.0, 443.0, 443.0, 443.0, 443.0, 443.0, 443.0, 443.0, 443.0, 443.0, 443.0, 443.0, 443.0, 443.0, 443.0, 443.0, 443.0, 443.0, 443.0, 443.0, 443.0, 443.0, 443.0, 443.0, 443.0, 443.0, 443.0, 443.0, 443.0, 443.0, 443.0, 443.0, 443.0, 443.0, 443.0, 443.0, 443.0, 443.0, 443.0, 443.0, 443.0, 443.0, 443.0, 443.0, 443.0, 443.0, 443.0, 443.0, 443.0, 443.0, 443.0, 443.0, 443.0, 443.0, 443.0, 443.0, 443.0, 443.0, 443.0, 443.0, 443.0, 443.0, 443.0, 443.0, 443.0, 443.0, 443.0, 443.0, 443.0, 443.0, 443.0, 443.0, 443.0, 443.0, 443.0, 443.0, 443.0, 443.0, 443.0, 443.0, 443.0, 443.0, 443.0, 443.0, 443.0, 443.0, 443.0, 443.0, 443.0, 443.0, 443.0, 443.0, 443.0, 443.0, 443.0, 443.0, 443.0, 443.0, 443.0, 443.0, 443.0, 443.0, 443.0, 443.0, 443.0, 443.0, 443.0, 443.0, 443.0, 443.0, 442.0, 443.0, 442.0, 443.0, 443.0, 443.0, 443.0, 442.0, 442.0, 442.0, 442.0, 442.0, 442.0, 443.0, 442.0, 443.0, 443.0, 443.0, 443.0, 442.0, 442.0, 443.0, 442.0, 442.0, 442.0, 442.0, 443.0, 443.0, 443.0, 443.0, 443.0, 443.0, 442.0, 442.0, 443.0, 443.0, 442.0, 443.0, 442.0, 443.0, 442.0, 442.0, 442.0, 442.0, 442.0, 442.0, 442.0, 442.0, 442.0, 442.0, 442.0, 442.0, 442.0, 442.0, 442.0, 442.0, 442.0, 442.0, 442.0, 442.0, 442.0, 442.0, 442.0, 442.0, 442.0, 442.0, 442.0, 442.0, 442.0, 442.0, 442.0, 442.0, 442.0, 442.0, 442.0, 442.0, 442.0],
      "WindowWidth": [923.0, 923.0, 922.0, 923.0, 922.0, 923.0, 922.0, 923.0, 923.0, 923.0, 922.0, 923.0, 923.0, 922.0, 923.0, 923.0, 923.0, 923.0, 923.0, 923.0, 922.0, 922.0, 923.0, 922.0, 923.0, 922.0, 923.0, 922.0, 922.0, 922.0, 922.0, 922.0, 922.0, 923.0, 922.0, 922.0, 922.0, 922.0, 922.0, 922.0, 922.0, 922.0, 922.0, 922.0, 922.0, 922.0, 922.0, 922.0, 922.0, 922.0, 922.0, 922.0, 922.0, 922.0, 922.0, 922.0, 922.0, 922.0, 922.0, 922.0, 922.0, 922.0, 922.0, 922.0, 922.0, 922.0, 922.0, 922.0, 922.0, 922.0, 922.0, 922.0, 922.0, 922.0, 922.0, 922.0, 921.0, 921.0, 922.0, 921.0, 921.0, 921.0, 922.0, 921.0, 921.0, 921.0, 921.0, 921.0, 921.0, 921.0, 921.0, 921.0, 921.0, 921.0, 921.0, 921.0, 921.0, 921.0, 921.0, 921.0, 921.0, 921.0, 921.0, 921.0, 921.0, 921.0, 921.0, 921.0, 921.0, 921.0, 921.0, 921.0, 921.0, 921.0, 921.0, 921.0, 921.0, 921.0, 921.0, 921.0, 921.0, 921.0, 921.0, 920.0, 921.0, 920.0, 921.0, 921.0, 921.0, 921.0, 920.0, 920.0, 920.0, 920.0, 920.0, 920.0, 921.0, 920.0, 921.0, 921.0, 921.0, 921.0, 920.0, 920.0, 921.0, 920.0, 920.0, 920.0, 920.0, 921.0, 921.0, 921.0, 921.0, 921.0, 921.0, 920.0, 920.0, 921.0, 921.0, 920.0, 921.0, 920.0, 921.0, 920.0, 920.0, 920.0, 920.0, 920.0, 920.0, 920.0, 920.0, 920.0, 920.0, 920.0, 920.0, 920.0, 920.0, 920.0, 920.0, 920.0, 920.0, 920.0, 920.0, 920.0, 920.0, 920.0, 920.0, 920.0, 920.0, 920.0, 920.0, 920.0, 920.0, 920.0, 920.0, 920.0, 920.0, 920.0, 920.0, 920.0]
    },
    "slices": {}
  }
}