{
  "AcquisitionMatrixPE": 80,
  "AcquisitionNumber": 1,
  "AcquisitionTime": "08:52:13.810000",
  "BandwidthPerPixelPhaseEncode": 48.077,
  "BaseResolution": 80,
  "BodyPartExamined": "BRAIN",
  "CoilCombinationMethod": "Sum of Squares",
  "ConsistencyInfo": "N4_VE11C_LATEST_20160120",
  "ConversionSoftware": "dcm2niix",
  "ConversionSoftwareVersion": "v1.0.20220720",
  "DerivedVendorReportedEchoSpacing": 0.000519999,
  "DeviceSerialNumber": "66112",
  "DwellTime": 2.7e-06,
  "EchoTime": 0.035,
  "EchoTrainLength": 39,
  "EffectiveEchoSpacing": 0.00026,
  "FlipAngle": 90,
  "HeudiconvVersion": "0.13.1",
  "ImageOrientationPatientDICOM": [0.988541, -0.150951, 3.19426e-05, 0.143156, 0.937558, 0.317003],
  "ImageOrientationText": "Tra>Cor(18.3)>Sag(2.7)",
  "ImageType": [
    "ORIGINAL",
    "PRIMARY",
    "M",
    "ND",
    "NORM",
    "MOSAIC"
],
  "ImagingFrequency": 123.252,
  "InPlanePhaseEncodingDirectionDICOM": "COL",
  "InstitutionAddress": "Maynard 3,Hanover,NH,US,03755",
  "InstitutionName": "Dartmouth College - PBS",
  "InstitutionalDepartmentName": "Department",
  "MRAcquisitionType": "2D",
  "MagneticFieldStrength": 3,
  "Manufacturer": "Siemens",
  "ManufacturersModelName": "Prisma",
  "MatrixCoilMode": "GRAPPA",
  "Modality": "MR",
  "NonlinearGradientCorrection": false,
  "ParallelReductionFactorInPlane": 2,
  "PartialFourier": 1,
  "PatientPosition": "HFS",
  "PercentPhaseFOV": 100,
  "PercentSampling": 100,
  "PhaseEncodingDirection": "j-",
  "PhaseEncodingSteps": 79,
  "PhaseResolution": 1,
  "PixelBandwidth": 2315,
  "ProcedureStepDescription": "dbic^QA",
  "ProtocolName": "func-bold_task-rest_acq-p2",
  "PulseSequenceDetails": "%SiemensSeq%\\ep2d_bold",
  "ReceiveCoilActiveElements": "HC1-7;NC1,2",
  "ReceiveCoilName": "HeadNeck_64",
  "ReconMatrixPE": 80,
  "RefLinesPE": 24,
  "RepetitionTime": 2,
  "SAR": 0.0409571,
  "ScanOptions": "FS",
  "ScanningSequence": "EP",
  "SequenceName": "*epfid2d1_80",
  "SequenceVariant": "SK",
  "SeriesDescription": "func-bold_task-rest_acq-p2",
  "SeriesNumber": 5,
  "ShimSetting": [4141, -7716, -7519, 129, -74, -193, -65, 73],
  "SliceThickness": 3.5,
  "SliceTiming": [0.9875, 0, 1.055, 0.065, 1.12, 0.13, 1.1875, 0.1975, 1.2525, 0.2625, 1.3175, 0.33, 1.385, 0.395, 1.45, 0.46, 1.5175, 0.5275, 1.5825, 0.5925, 1.6475, 0.66, 1.715, 0.725, 1.78, 0.79, 1.8475, 0.8575, 1.9125, 0.9225],
  "SoftwareVersions": "syngo MR E11",
  "SpacingBetweenSlices": 3.99,
  "StationName": "AWP66112",
  "TaskName": "rest",
  "TotalReadoutTime": 0.02054,
  "TxRefAmp": 212.698,
  "dcmmeta_affine": [
    [-2.9656238555908203, 0.42946657538414, 0.19104839861392975, 101.14789581298828],
    [0.45285266637802124, 2.8126752376556396, 1.2503294944763184, -127.95729064941406],
    [9.5827788754832e-05, -0.9510083794593811, 3.7842142581939697, -3.154876947402954],
    [0.0, 0.0, 0.0, 1.0]
],
  "dcmmeta_reorient_transform": [
    [0.0, -1.0, 0.0, 79.0],
    [1.0, 0.0, 0.0, 0.0],
    [0.0, 0.0, 1.0, 0.0],
    [0.0, 0.0, 0.0, 1.0]
],
  "dcmmeta_shape": [80, 80, 30, 200],
  "dcmmeta_slice_dim": 2,
  "dcmmeta_version": 0.6,
  "global": {
    "const": {
      "AccessionNumber": "qa64",
      "AcquisitionMatrix": [80, 0, 0, 80],
      "AngioFlag": "N",
      "BitsAllocated": 16,
      "BitsStored": 12,
      "BodyPartExamined": "BRAIN",
      "Columns": 480,
      "EchoNumbers": 1,
      "EchoTime": 35.0,
      "EchoTrainLength": 39,
      "FlipAngle": 90.0,
      "HighBit": 11,
      "ImageOrientationPatient": [0.98854126276975, -0.1509508886402, 3.194259696e-05, 0.14315552648852, 0.93755838137213, 0.31700280243977],
      "ImagePositionPatient": [-814.09382590786, -566.20854375977, -268.50538813055],
      "ImageType": [
        "ORIGINAL",
        "PRIMARY",
        "M",
        "ND",
        "NORM",
        "MOSAIC"
],
      "ImagedNucleus": "1H",
      "ImagingFrequency": 123.252331,
      "InPlanePhaseEncodingDirection": "COL",
      "MRAcquisitionType": "2D",
      "MagneticFieldStrength": 3.0,
      "Manufacturer": "SIEMENS",
      "ManufacturerModelName": "Prisma",
      "Modality": "MR",
      "NumberOfAverages": 1.0,
      "NumberOfPhaseEncodingSteps": 79,
      "PercentPhaseFieldOfView": 100.0,
      "PercentSampling": 100.0,
      "PerformedProcedureStepStartTime": "084243.889000",
      "PhotometricInterpretation": "MONOCHROME2",
      "PixelBandwidth": 2315.0,
      "PixelRepresentation": 0,
      "PixelSpacing": [3.0, 3.0],
      "ProtocolName": "func-bold_task-rest_acq-p2",
      "RepetitionTime": 2000.0,
      "Rows": 480,
      "SAR": 0.04095713840887,
      "SamplesPerPixel": 1,
      "ScanOptions": "FS",
      "ScanningSequence": "EP",
      "SequenceName": "*epfid2d1_80",
      "SequenceVariant": "SK",
      "SeriesDescription": "func-bold_task-rest_acq-p2",
      "SeriesNumber": 5,
      "SeriesTime": "085307.459000",
      "SliceLocation": -38.246454618069,
      "SliceThickness": 3.5,
      "SmallestImagePixelValue": 0,
      "SoftwareVersions": "syngo MR E11",
      "SpacingBetweenSlices": 3.9899999890727,
      "SpecificCharacterSet": "ISO_IR 100",
      "StudyID": "6",
      "StudyTime": "084243.820000",
      "TransmitCoilName": "Body",
      "VariableFlipAngleFlag": "N",
      "WindowCenterWidthExplanation": "Algo1",
      "dBdt": 0.0},
    "slices": {}
  },
  "time": {
    "samples": {
      "AcquisitionNumber": [1, 2, 3, 4, 5, 6, 7, 8, 9, 10, 11, 12, 13, 14, 15, 16, 17, 18, 19, 20, 21, 22, 23, 24, 25, 26, 27, 28, 29, 30, 31, 32, 33, 34, 35, 36, 37, 38, 39, 40, 41, 42, 43, 44, 45, 46, 47, 48, 49, 50, 51, 52, 53, 54, 55, 56, 57, 58, 59, 60, 61, 62, 63, 64, 65, 66, 67, 68, 69, 70, 71, 72, 73, 74, 75, 76, 77, 78, 79, 80, 81, 82, 83, 84, 85, 86, 87, 88, 89, 90, 91, 92, 93, 94, 95, 96, 97, 98, 99, 100, 101, 102, 103, 104, 105, 106, 107, 108, 109, 110, 111, 112, 113, 114, 115, 116, 117, 118, 119, 120, 121, 122, 123, 124, 125, 126, 127, 128, 129, 130, 131, 132, 133, 134, 135, 136, 137, 138, 139, 140, 141, 142, 143, 144, 145, 146, 147, 148, 149, 150, 151, 152, 153, 154, 155, 156, 157, 158, 159, 160, 161, 162, 163, 164, 165, 166, 167, 168, 169, 170, 171, 172, 173, 174, 175, 176, 177, 178, 179, 180, 181, 182, 183, 184, 185, 186, 187, 188, 189, 190, 191, 192, 193, 194, 195, 196, 197, 198, 199, 200],
      "AcquisitionTime": ["085213.810000", "085215.810000", "085217.810000", "085219.810000", "085221.810000", "085223.810000", "085225.810000", "085227.810000", "085229.810000", "085231.810000", "085233.810000", "085235.810000", "085237.810000", "085239.810000", "085241.810000", "085243.810000", "085245.810000", "085247.810000", "085249.810000", "085251.810000", "085253.810000", "085255.810000", "085257.810000", "085259.810000", "085301.810000", "085303.810000", "085305.810000", "085307.810000", "085309.810000", "085311.810000", "085313.810000", "085315.810000", "085317.810000", "085319.810000", "085321.810000", "085323.810000", "085325.810000", "085327.810000", "085329.810000", "085331.810000", "085333.810000", "085335.810000", "085337.810000", "085339.810000", "085341.810000", "085343.810000", "085345.810000", "085347.810000", "085349.810000", "085351.810000", "085353.810000", "085355.810000", "085357.810000", "085359.810000", "085401.810000", "085403.810000", "085405.810000", "085407.810000", "085409.810000", "085411.810000", "085413.810000", "085415.810000", "085417.810000", "085419.810000", "085421.810000", "085423.810000", "085425.810000", "085427.810000", "085429.810000", "085431.810000", "085433.810000", "085435.810000", "085437.810000", "085439.810000", "085441.810000", "085443.810000", "085445.810000", "085447.810000", "085449.810000", "085451.810000", "085453.810000", "085455.810000", "085457.810000", "085459.810000", "085501.810000", "085503.810000", "085505.810000", "085507.810000", "085509.810000", "085511.810000", "085513.810000", "085515.810000", "085517.810000", "085519.810000", "085521.810000", "085523.810000", "085525.810000", "085527.810000", "085529.810000", "085531.810000", "085533.810000", "085535.810000", "085537.810000", "085539.810000", "085541.810000", "085543.810000", "085545.810000", "085547.810000", "085549.810000", "085551.810000", "085553.810000", "085555.810000", "085557.810000", "085559.810000", "085601.810000", "085603.810000", "085605.810000", "085607.810000", "085609.810000", "085611.810000", "085613.810000", "085615.810000", "085617.810000", "085619.810000", "085621.810000", "085623.810000", "085625.810000", "085627.810000", "085629.810000", "085631.810000", "085633.810000", "085635.810000", "085637.810000", "085639.810000", "085641.810000", "085643.810000", "085645.810000", "085647.810000", "085649.810000", "085651.810000", "085653.810000", "085655.810000", "085657.810000", "085659.810000", "085701.810000", "085703.810000", "085705.810000", "085707.810000", "085709.810000", "085711.810000", "085713.810000", "085715.810000", "085717.810000", "085719.810000", "085721.810000", "085723.810000", "085725.810000", "085727.810000", "085729.810000", "085731.810000", "085733.810000", "085735.810000", "085737.810000", "085739.810000", "085741.810000", "085743.810000", "085745.810000", "085747.810000", "085749.810000", "085751.810000", "085753.810000", "085755.810000", "085757.810000", "085759.810000", "085801.810000", "085803.810000", "085805.810000", "085807.810000", "085809.810000", "085811.810000", "085813.810000", "085815.810000", "085817.810000", "085819.810000", "085821.810000", "085823.810000", "085825.810000", "085827.810000", "085829.810000", "085831.810000", "085833.810000", "085835.810000", "085837.810000", "085839.810000", "085841.810000", "085843.810000", "085845.810000", "085847.810000", "085849.810000", "085851.810000"],
      "ContentTime": ["085307.463000", "085307.466000", "085307.469000", "085307.472000", "085307.474000", "085307.477000", "085307.480000", "085307.482000", "085307.485000", "085307.488000", "085307.490000", "085307.493000", "085307.496000", "085307.498000", "085307.501000", "085307.504000", "085307.506000", "085307.509000", "085307.512000", "085307.514000", "085307.517000", "085307.519000", "085307.522000", "085307.525000", "085307.527000", "085307.530000", "085307.537000", "085347.456000", "085347.460000", "085347.462000", "085347.465000", "085347.468000", "085347.470000", "085347.473000", "085347.476000", "085347.478000", "085347.481000", "085347.484000", "085347.493000", "085347.495000", "085347.498000", "085347.501000", "085347.503000", "085347.506000", "085347.509000", "085347.511000", "085347.514000", "085427.457000", "085427.460000", "085427.462000", "085427.465000", "085427.467000", "085427.470000", "085427.473000", "085427.475000", "085427.478000", "085427.480000", "085427.483000", "085427.486000", "085427.488000", "085427.491000", "085427.494000", "085427.496000", "085427.499000", "085427.501000", "085427.504000", "085427.507000", "085507.457000", "085507.460000", "085507.462000", "085507.465000", "085507.468000", "085507.470000", "085507.473000", "085507.476000", "085507.478000", "085507.481000", "085507.484000", "085507.486000", "085507.489000", "085507.492000", "085507.494000", "085507.506000", "085507.509000", "085507.512000", "085507.514000", "085507.517000", "085547.458000", "085547.461000", "085547.464000", "085547.466000", "085547.469000", "085547.471000", "085547.474000", "085547.477000", "085547.479000", "085547.482000", "085547.485000", "085547.487000", "085547.490000", "085547.493000", "085547.495000", "085547.498000", "085547.501000", "085547.511000", "085547.514000", "085547.517000", "085627.457000", "085627.460000", "085627.462000", "085627.465000", "085627.467000", "085627.470000", "085627.473000", "085627.475000", "085627.478000", "085627.481000", "085627.484000", "085627.486000", "085627.489000", "085627.491000", "085627.494000", "085627.497000", "085627.499000", "085627.502000", "085627.505000", "085627.507000", "085707.457000", "085707.459000", "085707.462000", "085707.465000", "085707.467000", "085707.470000", "085707.473000", "085707.476000", "085707.478000", "085707.481000", "085707.484000", "085707.486000", "085707.489000", "085707.492000", "085707.494000", "085707.497000", "085707.500000", "085707.502000", "085707.505000", "085707.508000", "085747.458000", "085747.461000", "085747.463000", "085747.466000", "085747.468000", "085747.471000", "085747.474000", "085747.476000", "085747.479000", "085747.482000", "085747.484000", "085747.487000", "085747.489000", "085747.492000", "085747.495000", "085747.497000", "085747.500000", "085747.503000", "085747.505000", "085747.508000", "085827.457000", "085827.459000", "085827.462000", "085827.465000", "085827.467000", "085827.470000", "085827.473000", "085827.476000", "085827.478000", "085827.481000", "085827.484000", "085827.486000", "085827.489000", "085827.492000", "085827.495000", "085827.497000", "085827.500000", "085827.503000", "085827.505000", "085827.508000", "085853.110000", "085853.114000", "085853.116000", "085853.119000", "085853.122000", "085853.124000", "085853.127000", "085853.130000", "085853.133000", "085853.136000", "085853.145000", "085853.148000", "085853.151000"],
      "InstanceCreationTime": ["085307.463000", "085307.466000", "085307.469000", "085307.472000", "085307.474000", "085307.477000", "085307.480000", "085307.482000", "085307.485000", "085307.488000", "085307.490000", "085307.493000", "085307.496000", "085307.498000", "085307.501000", "085307.504000", "085307.506000", "085307.509000", "085307.512000", "085307.514000", "085307.517000", "085307.519000", "085307.522000", "085307.525000", "085307.527000", "085307.530000", "085307.537000", "085347.456000", "085347.460000", "085347.462000", "085347.465000", "085347.468000", "085347.470000", "085347.473000", "085347.476000", "085347.478000", "085347.481000", "085347.484000", "085347.493000", "085347.495000", "085347.498000", "085347.501000", "085347.503000", "085347.506000", "085347.509000", "085347.511000", "085347.514000", "085427.457000", "085427.460000", "085427.462000", "085427.465000", "085427.467000", "085427.470000", "085427.473000", "085427.475000", "085427.478000", "085427.480000", "085427.483000", "085427.486000", "085427.488000", "085427.491000", "085427.494000", "085427.496000", "085427.499000", "085427.501000", "085427.504000", "085427.507000", "085507.457000", "085507.460000", "085507.462000", "085507.465000", "085507.468000", "085507.470000", "085507.473000", "085507.476000", "085507.478000", "085507.481000", "085507.484000", "085507.486000", "085507.489000", "085507.492000", "085507.494000", "085507.506000", "085507.509000", "085507.512000", "085507.514000", "085507.517000", "085547.458000", "085547.461000", "085547.464000", "085547.466000", "085547.469000", "085547.471000", "085547.474000", "085547.477000", "085547.479000", "085547.482000", "085547.485000", "085547.487000", "085547.490000", "085547.493000", "085547.495000", "085547.498000", "085547.501000", "085547.511000", "085547.514000", "085547.517000", "085627.457000", "085627.460000", "085627.462000", "085627.465000", "085627.467000", "085627.470000", "085627.473000", "085627.475000", "085627.478000", "085627.481000", "085627.484000", "085627.486000", "085627.489000", "085627.491000", "085627.494000", "085627.497000", "085627.499000", "085627.502000", "085627.505000", "085627.507000", "085707.457000", "085707.459000", "085707.462000", "085707.465000", "085707.467000", "085707.470000", "085707.473000", "085707.476000", "085707.478000", "085707.481000", "085707.484000", "085707.486000", "085707.489000", "085707.492000", "085707.494000", "085707.497000", "085707.500000", "085707.502000", "085707.505000", "085707.508000", "085747.458000", "085747.461000", "085747.463000", "085747.466000", "085747.468000", "085747.471000", "085747.474000", "085747.476000", "085747.479000", "085747.482000", "085747.484000", "085747.487000", "085747.489000", "085747.492000", "085747.495000", "085747.497000", "085747.500000", "085747.503000", "085747.505000", "085747.508000", "085827.457000", "085827.459000", "085827.462000", "085827.465000", "085827.467000", "085827.470000", "085827.473000", "085827.476000", "085827.478000", "085827.481000", "085827.484000", "085827.486000", "085827.489000", "085827.492000", "085827.495000", "085827.497000", "085827.500000", "085827.503000", "085827.505000", "085827.508000", "085853.110000", "085853.114000", "085853.116000", "085853.119000", "085853.122000", "085853.124000", "085853.127000", "085853.130000", "085853.133000", "085853.136000", "085853.145000", "085853.148000", "085853.151000"],
      "InstanceNumber": [1, 2, 3, 4, 5, 6, 7, 8, 9, 10, 11, 12, 13, 14, 15, 16, 17, 18, 19, 20, 21, 22, 23, 24, 25, 26, 27, 28, 29, 30, 31, 32, 33, 34, 35, 36, 37, 38, 39, 40, 41, 42, 43, 44, 45, 46, 47, 48, 49, 50, 51, 52, 53, 54, 55, 56, 57, 58, 59, 60, 61, 62, 63, 64, 65, 66, 67, 68, 69, 70, 71, 72, 73, 74, 75, 76, 77, 78, 79, 80, 81, 82, 83, 84, 85, 86, 87, 88, 89, 90, 91, 92, 93, 94, 95, 96, 97, 98, 99, 100, 101, 102, 103, 104, 105, 106, 107, 108, 109, 110, 111, 112, 113, 114, 115, 116, 117, 118, 119, 120, 121, 122, 123, 124, 125, 126, 127, 128, 129, 130, 131, 132, 133, 134, 135, 136, 137, 138, 139, 140, 141, 142, 143, 144, 145, 146, 147, 148, 149, 150, 151, 152, 153, 154, 155, 156, 157, 158, 159, 160, 161, 162, 163, 164, 165, 166, 167, 168, 169, 170, 171, 172, 173, 174, 175, 176, 177, 178, 179, 180, 181, 182, 183, 184, 185, 186, 187, 188, 189, 190, 191, 192, 193, 194, 195, 196, 197, 198, 199, 200],
      "LargestImagePixelValue": [3940, 3932, 3950, 3933, 3941, 3950, 3938, 3946, 3944, 3945, 3937, 3950, 3943, 3949, 3967, 3952, 3960, 3940, 3955, 3943, 3944, 3965, 3938, 3937, 3948, 3945, 3954, 3959, 3946, 3946, 3942, 3954, 3950, 3939, 3935, 3947, 3939, 3946, 3944, 3946, 3939, 3932, 3939, 3930, 3927, 3950, 3939, 3948, 3931, 3952, 3947, 3945, 3939, 3945, 3950, 3944, 3948, 3935, 3934, 3952, 3945, 3925, 3946, 3934, 3933, 3945, 3931, 3934, 3938, 3930, 3948, 3939, 3942, 3932, 3938, 3941, 3927, 3943, 3939, 3939, 3941, 3950, 3934, 3944, 3939, 3946, 3946, 3928, 3948, 3943, 3948, 3942, 3944, 3928, 3942, 3943, 3931, 3937, 3934, 3931, 3949, 3939, 3945, 3957, 3943, 3944, 3947, 3948, 3926, 3945, 3944, 3933, 3919, 3941, 3936, 3938, 3931, 3941, 3942, 3937, 3933, 3930, 3935, 3934, 3929, 3942, 3955, 3939, 3942, 3937, 3940, 3930, 3936, 3923, 3940, 3921, 3939, 3939, 3931, 3953, 3942, 3935, 3934, 3936, 3940, 3942, 3957, 3933, 3945, 3941, 3932, 3932, 3945, 3938, 3932, 3945, 3934, 3936, 3932, 3931, 3936, 3937, 3921, 3951, 3927, 3922, 3932, 3938, 3939, 3937, 3947, 3938, 3932, 3923, 3924, 3938, 3935, 3939, 3925, 3926, 3929, 3945, 3935, 3924, 3930, 3933, 3925, 3936, 3939, 3932, 3933, 3920, 3944, 3944, 3945, 3932, 3928, 3930, 3931, 3933],
      "WindowCenter": [1410.0, 1409.0, 1410.0, 1410.0, 1410.0, 1410.0, 1410.0, 1409.0, 1410.0, 1410.0, 1410.0, 1409.0, 1409.0, 1409.0, 1409.0, 1409.0, 1409.0, 1410.0, 1410.0, 1410.0, 1410.0, 1409.0, 1409.0, 1409.0, 1409.0, 1409.0, 1409.0, 1409.0, 1410.0, 1409.0, 1410.0, 1409.0, 1409.0, 1408.0, 1409.0, 1409.0, 1409.0, 1409.0, 1409.0, 1408.0, 1409.0, 1409.0, 1409.0, 1409.0, 1408.0, 1409.0, 1409.0, 1408.0, 1408.0, 1409.0, 1409.0, 1408.0, 1408.0, 1408.0, 1408.0, 1409.0, 1408.0, 1408.0, 1408.0, 1408.0, 1408.0, 1408.0, 1408.0, 1409.0, 1408.0, 1408.0, 1408.0, 1408.0, 1409.0, 1408.0, 1408.0, 1408.0, 1408.0, 1408.0, 1408.0, 1408.0, 1408.0, 1408.0, 1407.0, 1408.0, 1407.0, 1408.0, 1408.0, 1408.0, 1407.0, 1408.0, 1408.0, 1408.0, 1408.0, 1407.0, 1407.0, 1408.0, 1408.0, 1407.0, 1408.0, 1408.0, 1407.0, 1407.0, 1407.0, 1408.0, 1407.0, 1407.0, 1407.0, 1407.0, 1407.0, 1408.0, 1407.0, 1407.0, 1407.0, 1406.0, 1406.0, 1407.0, 1407.0, 1406.0, 1407.0, 1407.0, 1407.0, 1407.0, 1407.0, 1407.0, 1407.0, 1407.0, 1407.0, 1407.0, 1407.0, 1407.0, 1407.0, 1407.0, 1407.0, 1406.0, 1407.0, 1407.0, 1406.0, 1407.0, 1407.0, 1407.0, 1406.0, 1407.0, 1406.0, 1406.0, 1407.0, 1406.0, 1406.0, 1406.0, 1407.0, 1407.0, 1407.0, 1406.0, 1407.0, 1406.0, 1406.0, 1406.0, 1406.0, 1406.0, 1406.0, 1406.0, 1406.0, 1406.0, 1406.0, 1406.0, 1406.0, 1406.0, 1406.0, 1405.0, 1406.0, 1406.0, 1406.0, 1406.0, 1406.0, 1406.0, 1406.0, 1406.0, 1406.0, 1406.0, 1406.0, 1406.0, 1405.0, 1406.0, 1406.0, 1406.0, 1406.0, 1406.0, 1405.0, 1406.0, 1406.0, 1406.0, 1405.0, 1405.0, 1406.0, 1406.0, 1406.0, 1405.0, 1405.0, 1406.0, 1405.0, 1405.0, 1406.0, 1405.0, 1405.0, 1406.0],
      "WindowWidth": [3260.0, 3259.0, 3258.0, 3259.0, 3259.0, 3258.0, 3258.0, 3259.0, 3258.0, 3258.0, 3258.0, 3259.0, 3259.0, 3258.0, 3259.0, 3258.0, 3258.0, 3258.0, 3259.0, 3259.0, 3259.0, 3259.0, 3259.0, 3259.0, 3259.0, 3259.0, 3258.0, 3258.0, 3258.0, 3258.0, 3258.0, 3258.0, 3258.0, 3258.0, 3258.0, 3258.0, 3258.0, 3258.0, 3258.0, 3258.0, 3257.0, 3258.0, 3257.0, 3258.0, 3258.0, 3257.0, 3258.0, 3258.0, 3258.0, 3257.0, 3257.0, 3258.0, 3258.0, 3258.0, 3258.0, 3257.0, 3258.0, 3257.0, 3257.0, 3257.0, 3258.0, 3257.0, 3257.0, 3257.0, 3257.0, 3257.0, 3257.0, 3256.0, 3257.0, 3257.0, 3257.0, 3257.0, 3257.0, 3257.0, 3256.0, 3257.0, 3256.0, 3257.0, 3257.0, 3257.0, 3257.0, 3256.0, 3257.0, 3256.0, 3256.0, 3256.0, 3256.0, 3256.0, 3256.0, 3256.0, 3256.0, 3256.0, 3256.0, 3256.0, 3256.0, 3256.0, 3256.0, 3256.0, 3256.0, 3256.0, 3257.0, 3256.0, 3256.0, 3256.0, 3256.0, 3256.0, 3256.0, 3255.0, 3256.0, 3256.0, 3256.0, 3256.0, 3255.0, 3256.0, 3256.0, 3256.0, 3257.0, 3257.0, 3257.0, 3257.0, 3256.0, 3255.0, 3255.0, 3255.0, 3255.0, 3255.0, 3255.0, 3255.0, 3255.0, 3256.0, 3255.0, 3255.0, 3256.0, 3255.0, 3255.0, 3255.0, 3256.0, 3255.0, 3255.0, 3255.0, 3255.0, 3255.0, 3255.0, 3255.0, 3255.0, 3255.0, 3255.0, 3255.0, 3255.0, 3255.0, 3255.0, 3255.0, 3255.0, 3255.0, 3254.0, 3255.0, 3255.0, 3255.0, 3254.0, 3254.0, 3255.0, 3255.0, 3254.0, 3255.0, 3254.0, 3254.0, 3254.0, 3254.0, 3254.0, 3255.0, 3255.0, 3254.0, 3254.0, 3254.0, 3254.0, 3254.0, 3255.0, 3254.0, 3254.0, 3254.0, 3254.0, 3254.0, 3254.0, 3254.0, 3254.0, 3254.0, 3254.0, 3255.0, 3254.0, 3254.0, 3254.0, 3254.0, 3254.0, 3254.0, 3254.0, 3254.0, 3254.0, 3254.0, 3254.0, 3254.0]
    },
    "slices": {}
  }
}