{
  "AcquisitionMatrixPE": 80,
  "AcquisitionNumber": 1,
  "AcquisitionTime": "09:05:51.520000",
  "BandwidthPerPixelPhaseEncode": 25,
  "BaseResolution": 80,
  "BodyPartExamined": "BRAIN",
  "CoilCombinationMethod": "Sum of Squares",
  "ConsistencyInfo": "N4_VE11C_LATEST_20160120",
  "ConversionSoftware": "dcm2niix",
  "ConversionSoftwareVersion": "v1.0.20220720",
  "DerivedVendorReportedEchoSpacing": 0.0005,
  "DeviceSerialNumber": "66112",
  "DwellTime": 2.7e-06,
  "EchoTime": 0.03,
  "EchoTrainLength": 80,
  "EffectiveEchoSpacing": 0.0005,
  "FlipAngle": 10,
  "HeudiconvVersion": "0.13.1",
  "ImageOrientationPatientDICOM": [0.988541, -0.150951, 3.19426e-05, 0.143156, 0.937558, 0.317003],
  "ImageOrientationText": "Tra>Cor(18.3)>Sag(2.7)",
  "ImageType": [
    "ORIGINAL",
    "PRIMARY",
    "M",
    "ND",
    "NORM",
    "MOSAIC"
],
  "ImagingFrequency": 123.252,
  "InPlanePhaseEncodingDirectionDICOM": "COL",
  "InstitutionAddress": "Maynard 3,Hanover,NH,US,03755",
  "InstitutionName": "Dartmouth College - PBS",
  "InstitutionalDepartmentName": "Department",
  "MRAcquisitionType": "2D",
  "MagneticFieldStrength": 3,
  "Manufacturer": "Siemens",
  "ManufacturersModelName": "Prisma",
  "MatrixCoilMode": "SENSE",
  "Modality": "MR",
  "NonlinearGradientCorrection": false,
  "PartialFourier": 1,
  "PatientPosition": "HFS",
  "PercentPhaseFOV": 100,
  "PercentSampling": 100,
  "PhaseEncodingDirection": "j-",
  "PhaseEncodingSteps": 80,
  "PhaseResolution": 1,
  "PixelBandwidth": 2315,
  "ProcedureStepDescription": "dbic^QA",
  "ProtocolName": "func-bold_fa-10",
  "PulseSequenceDetails": "%SiemensSeq%\\ep2d_bold",
  "ReceiveCoilActiveElements": "HC1-7;NC1,2",
  "ReceiveCoilName": "HeadNeck_64",
  "ReconMatrixPE": 80,
  "RepetitionTime": 2,
  "SAR": 0.00863391,
  "ScanOptions": "FS",
  "ScanningSequence": "EP",
  "SequenceName": "*epfid2d1_80",
  "SequenceVariant": "SK",
  "SeriesDescription": "func-bold_fa-10",
  "SeriesNumber": 9,
  "ShimSetting": [4141, -7716, -7519, 131, -74, -194, -64, 73],
  "SliceThickness": 3.5,
  "SliceTiming": [0.99, 0, 1.055, 0.065, 1.12, 0.13, 1.1875, 0.1975, 1.2525, 0.2625, 1.32, 0.33, 1.385, 0.395, 1.45, 0.46, 1.5175, 0.5275, 1.5825, 0.5925, 1.65, 0.66, 1.715, 0.725, 1.78, 0.79, 1.8475, 0.8575, 1.9125, 0.9225],
  "SoftwareVersions": "syngo MR E11",
  "SpacingBetweenSlices": 3.99,
  "StationName": "AWP66112",
  "TotalReadoutTime": 0.0395,
  "TxRefAmp": 212.698,
  "dcmmeta_affine": [
    [-2.9656238555908203, 0.42946657538414, 0.19104838371276855, 99.58609771728516],
    [0.45285266637802124, 2.8126752376556396, 1.2503293752670288, -125.46598815917969],
    [9.5827788754832e-05, -0.9510083794593811, 3.7842140197753906, -2.5514414310455322],
    [0.0, 0.0, 0.0, 1.0]
],
  "dcmmeta_reorient_transform": [
    [0.0, -1.0, 0.0, 79.0],
    [1.0, 0.0, 0.0, 0.0],
    [0.0, 0.0, 1.0, 0.0],
    [0.0, 0.0, 0.0, 1.0]
],
  "dcmmeta_shape": [80, 80, 30, 200],
  "dcmmeta_slice_dim": 2,
  "dcmmeta_version": 0.6,
  "global": {
    "const": {
      "AccessionNumber": "qa64",
      "AcquisitionMatrix": [80, 0, 0, 80],
      "AngioFlag": "N",
      "BitsAllocated": 16,
      "BitsStored": 12,
      "BodyPartExamined": "BRAIN",
      "Columns": 480,
      "EchoNumbers": 1,
      "EchoTime": 30.0,
      "EchoTrainLength": 80,
      "FlipAngle": 10.0,
      "HighBit": 11,
      "ImageOrientationPatient": [0.98854126276975, -0.1509508886402, 3.194259696e-05, 0.14315552648852, 0.93755838137213, 0.31700280243977],
      "ImagePositionPatient": [-812.53202900425, -568.69984085578, -267.90195261419],
      "ImageType": [
        "ORIGINAL",
        "PRIMARY",
        "M",
        "ND",
        "NORM",
        "MOSAIC"
],
      "ImagedNucleus": "1H",
      "ImagingFrequency": 123.252331,
      "InPlanePhaseEncodingDirection": "COL",
      "MRAcquisitionType": "2D",
      "MagneticFieldStrength": 3.0,
      "Manufacturer": "SIEMENS",
      "ManufacturerModelName": "Prisma",
      "Modality": "MR",
      "NumberOfAverages": 1.0,
      "NumberOfPhaseEncodingSteps": 80,
      "PercentPhaseFieldOfView": 100.0,
      "PercentSampling": 100.0,
      "PerformedProcedureStepStartTime": "084243.889000",
      "PhotometricInterpretation": "MONOCHROME2",
      "PixelBandwidth": 2315.0,
      "PixelRepresentation": 0,
      "PixelSpacing": [3.0, 3.0],
      "ProtocolName": "func-bold_fa-10",
      "RepetitionTime": 2000.0,
      "Rows": 480,
      "SAR": 0.00863390930079,
      "SamplesPerPixel": 1,
      "ScanOptions": "FS",
      "ScanningSequence": "EP",
      "SequenceName": "*epfid2d1_80",
      "SequenceVariant": "SK",
      "SeriesDescription": "func-bold_fa-10",
      "SeriesNumber": 9,
      "SeriesTime": "090607.388000",
      "SliceLocation": -36.968235928665,
      "SliceThickness": 3.5,
      "SmallestImagePixelValue": 0,
      "SoftwareVersions": "syngo MR E11",
      "SpacingBetweenSlices": 3.9899998817773,
      "SpecificCharacterSet": "ISO_IR 100",
      "StudyID": "6",
      "StudyTime": "084243.820000",
      "TransmitCoilName": "Body",
      "VariableFlipAngleFlag": "N",
      "WindowCenterWidthExplanation": "Algo1",
      "dBdt": 0.0},
    "slices": {}
  },
  "time": {
    "samples": {
      "AcquisitionNumber": [1, 2, 3, 4, 5, 6, 7, 8, 9, 10, 11, 12, 13, 14, 15, 16, 17, 18, 19, 20, 21, 22, 23, 24, 25, 26, 27, 28, 29, 30, 31, 32, 33, 34, 35, 36, 37, 38, 39, 40, 41, 42, 43, 44, 45, 46, 47, 48, 49, 50, 51, 52, 53, 54, 55, 56, 57, 58, 59, 60, 61, 62, 63, 64, 65, 66, 67, 68, 69, 70, 71, 72, 73, 74, 75, 76, 77, 78, 79, 80, 81, 82, 83, 84, 85, 86, 87, 88, 89, 90, 91, 92, 93, 94, 95, 96, 97, 98, 99, 100, 101, 102, 103, 104, 105, 106, 107, 108, 109, 110, 111, 112, 113, 114, 115, 116, 117, 118, 119, 120, 121, 122, 123, 124, 125, 126, 127, 128, 129, 130, 131, 132, 133, 134, 135, 136, 137, 138, 139, 140, 141, 142, 143, 144, 145, 146, 147, 148, 149, 150, 151, 152, 153, 154, 155, 156, 157, 158, 159, 160, 161, 162, 163, 164, 165, 166, 167, 168, 169, 170, 171, 172, 173, 174, 175, 176, 177, 178, 179, 180, 181, 182, 183, 184, 185, 186, 187, 188, 189, 190, 191, 192, 193, 194, 195, 196, 197, 198, 199, 200],
      "AcquisitionTime": ["090551.520000", "090553.520000", "090555.520000", "090557.520000", "090559.520000", "090601.520000", "090603.520000", "090605.520000", "090607.520000", "090609.520000", "090611.520000", "090613.520000", "090615.520000", "090617.520000", "090619.520000", "090621.520000", "090623.520000", "090625.520000", "090627.520000", "090629.520000", "090631.520000", "090633.520000", "090635.520000", "090637.520000", "090639.520000", "090641.520000", "090643.520000", "090645.520000", "090647.520000", "090649.520000", "090651.520000", "090653.520000", "090655.520000", "090657.520000", "090659.520000", "090701.520000", "090703.520000", "090705.520000", "090707.520000", "090709.520000", "090711.520000", "090713.520000", "090715.520000", "090717.520000", "090719.520000", "090721.520000", "090723.520000", "090725.520000", "090727.520000", "090729.520000", "090731.520000", "090733.520000", "090735.520000", "090737.520000", "090739.520000", "090741.520000", "090743.520000", "090745.520000", "090747.520000", "090749.520000", "090751.520000", "090753.520000", "090755.520000", "090757.520000", "090759.520000", "090801.520000", "090803.520000", "090805.520000", "090807.520000", "090809.520000", "090811.520000", "090813.520000", "090815.520000", "090817.520000", "090819.520000", "090821.520000", "090823.520000", "090825.520000", "090827.520000", "090829.520000", "090831.520000", "090833.520000", "090835.520000", "090837.520000", "090839.520000", "090841.520000", "090843.520000", "090845.520000", "090847.520000", "090849.520000", "090851.520000", "090853.520000", "090855.520000", "090857.520000", "090859.520000", "090901.520000", "090903.520000", "090905.520000", "090907.520000", "090909.520000", "090911.520000", "090913.520000", "090915.520000", "090917.520000", "090919.520000", "090921.520000", "090923.520000", "090925.520000", "090927.520000", "090929.520000", "090931.520000", "090933.520000", "090935.520000", "090937.520000", "090939.520000", "090941.520000", "090943.520000", "090945.520000", "090947.520000", "090949.520000", "090951.520000", "090953.520000", "090955.520000", "090957.520000", "090959.520000", "091001.520000", "091003.520000", "091005.520000", "091007.520000", "091009.520000", "091011.520000", "091013.520000", "091015.520000", "091017.520000", "091019.520000", "091021.520000", "091023.520000", "091025.520000", "091027.520000", "091029.520000", "091031.520000", "091033.520000", "091035.520000", "091037.520000", "091039.520000", "091041.520000", "091043.520000", "091045.520000", "091047.520000", "091049.520000", "091051.520000", "091053.520000", "091055.520000", "091057.520000", "091059.520000", "091101.520000", "091103.520000", "091105.520000", "091107.520000", "091109.520000", "091111.520000", "091113.520000", "091115.520000", "091117.520000", "091119.520000", "091121.520000", "091123.520000", "091125.520000", "091127.520000", "091129.520000", "091131.520000", "091133.520000", "091135.520000", "091137.520000", "091139.520000", "091141.520000", "091143.520000", "091145.520000", "091147.520000", "091149.520000", "091151.520000", "091153.520000", "091155.520000", "091157.520000", "091159.520000", "091201.520000", "091203.520000", "091205.520000", "091207.520000", "091209.520000", "091211.520000", "091213.520000", "091215.520000", "091217.520000", "091219.520000", "091221.520000", "091223.520000", "091225.520000", "091227.520000", "091229.520000"],
      "ContentTime": ["090607.391000", "090607.395000", "090607.397000", "090607.400000", "090607.403000", "090607.405000", "090607.408000", "090607.410000", "090647.387000", "090647.394000", "090647.396000", "090647.399000", "090647.401000", "090647.404000", "090647.406000", "090647.409000", "090647.412000", "090647.414000", "090647.417000", "090647.419000", "090647.422000", "090647.424000", "090647.427000", "090647.429000", "090647.432000", "090647.435000", "090647.437000", "090647.440000", "090727.388000", "090727.390000", "090727.393000", "090727.396000", "090727.398000", "090727.401000", "090727.403000", "090727.406000", "090727.409000", "090727.411000", "090727.414000", "090727.416000", "090727.419000", "090727.421000", "090727.424000", "090727.426000", "090727.429000", "090727.432000", "090727.434000", "090727.437000", "090807.387000", "090807.389000", "090807.392000", "090807.395000", "090807.397000", "090807.400000", "090807.403000", "090807.405000", "090807.408000", "090807.410000", "090807.413000", "090807.415000", "090807.424000", "090807.427000", "090807.429000", "090807.432000", "090807.435000", "090807.437000", "090807.440000", "090807.442000", "090847.386000", "090847.393000", "090847.395000", "090847.398000", "090847.400000", "090847.403000", "090847.406000", "090847.408000", "090847.411000", "090847.413000", "090847.416000", "090847.419000", "090847.421000", "090847.424000", "090847.426000", "090847.429000", "090847.432000", "090847.434000", "090847.437000", "090847.439000", "090927.388000", "090927.390000", "090927.393000", "090927.396000", "090927.398000", "090927.401000", "090927.403000", "090927.406000", "090927.408000", "090927.411000", "090927.414000", "090927.416000", "090927.419000", "090927.421000", "090927.424000", "090927.427000", "090927.429000", "090927.432000", "090927.434000", "090927.437000", "091007.387000", "091007.390000", "091007.392000", "091007.395000", "091007.397000", "091007.400000", "091007.402000", "091007.405000", "091007.408000", "091007.410000", "091007.413000", "091007.415000", "091007.418000", "091007.420000", "091007.423000", "091007.426000", "091007.428000", "091007.431000", "091007.433000", "091007.436000", "091047.387000", "091047.389000", "091047.392000", "091047.395000", "091047.397000", "091047.400000", "091047.403000", "091047.405000", "091047.408000", "091047.410000", "091047.413000", "091047.415000", "091047.418000", "091047.421000", "091047.423000", "091047.426000", "091047.428000", "091047.431000", "091047.433000", "091047.436000", "091127.388000", "091127.390000", "091127.393000", "091127.396000", "091127.398000", "091127.401000", "091127.404000", "091127.406000", "091127.409000", "091127.411000", "091127.414000", "091127.417000", "091127.419000", "091127.422000", "091127.424000", "091127.427000", "091127.430000", "091127.433000", "091127.435000", "091127.438000", "091207.387000", "091207.389000", "091207.392000", "091207.395000", "091207.397000", "091207.400000", "091207.402000", "091207.405000", "091207.408000", "091207.410000", "091207.413000", "091207.416000", "091207.418000", "091207.421000", "091207.423000", "091207.426000", "091207.428000", "091207.431000", "091207.434000", "091207.436000", "091231.011000", "091231.014000", "091231.017000", "091231.019000", "091231.022000", "091231.025000", "091231.027000", "091231.030000", "091231.032000", "091231.035000", "091231.038000", "091231.040000"],
      "InstanceCreationTime": ["090607.391000", "090607.395000", "090607.397000", "090607.400000", "090607.403000", "090607.405000", "090607.408000", "090607.410000", "090647.387000", "090647.394000", "090647.396000", "090647.399000", "090647.401000", "090647.404000", "090647.406000", "090647.409000", "090647.412000", "090647.414000", "090647.417000", "090647.419000", "090647.422000", "090647.424000", "090647.427000", "090647.429000", "090647.432000", "090647.435000", "090647.437000", "090647.440000", "090727.388000", "090727.390000", "090727.393000", "090727.396000", "090727.398000", "090727.401000", "090727.403000", "090727.406000", "090727.409000", "090727.411000", "090727.414000", "090727.416000", "090727.419000", "090727.421000", "090727.424000", "090727.426000", "090727.429000", "090727.432000", "090727.434000", "090727.437000", "090807.387000", "090807.389000", "090807.392000", "090807.395000", "090807.397000", "090807.400000", "090807.403000", "090807.405000", "090807.408000", "090807.410000", "090807.413000", "090807.415000", "090807.424000", "090807.427000", "090807.429000", "090807.432000", "090807.435000", "090807.437000", "090807.440000", "090807.442000", "090847.386000", "090847.393000", "090847.395000", "090847.398000", "090847.400000", "090847.403000", "090847.406000", "090847.408000", "090847.411000", "090847.413000", "090847.416000", "090847.419000", "090847.421000", "090847.424000", "090847.426000", "090847.429000", "090847.432000", "090847.434000", "090847.437000", "090847.439000", "090927.388000", "090927.390000", "090927.393000", "090927.396000", "090927.398000", "090927.401000", "090927.403000", "090927.406000", "090927.408000", "090927.411000", "090927.414000", "090927.416000", "090927.419000", "090927.421000", "090927.424000", "090927.427000", "090927.429000", "090927.432000", "090927.434000", "090927.437000", "091007.387000", "091007.390000", "091007.392000", "091007.395000", "091007.397000", "091007.400000", "091007.402000", "091007.405000", "091007.408000", "091007.410000", "091007.413000", "091007.415000", "091007.418000", "091007.420000", "091007.423000", "091007.426000", "091007.428000", "091007.431000", "091007.433000", "091007.436000", "091047.387000", "091047.389000", "091047.392000", "091047.395000", "091047.397000", "091047.400000", "091047.403000", "091047.405000", "091047.408000", "091047.410000", "091047.413000", "091047.415000", "091047.418000", "091047.421000", "091047.423000", "091047.426000", "091047.428000", "091047.431000", "091047.433000", "091047.436000", "091127.388000", "091127.390000", "091127.393000", "091127.396000", "091127.398000", "091127.401000", "091127.404000", "091127.406000", "091127.409000", "091127.411000", "091127.414000", "091127.417000", "091127.419000", "091127.422000", "091127.424000", "091127.427000", "091127.430000", "091127.433000", "091127.435000", "091127.438000", "091207.387000", "091207.389000", "091207.392000", "091207.395000", "091207.397000", "091207.400000", "091207.402000", "091207.405000", "091207.408000", "091207.410000", "091207.413000", "091207.416000", "091207.418000", "091207.421000", "091207.423000", "091207.426000", "091207.428000", "091207.431000", "091207.434000", "091207.436000", "091231.011000", "091231.014000", "091231.017000", "091231.019000", "091231.022000", "091231.025000", "091231.027000", "091231.030000", "091231.032000", "091231.035000", "091231.038000", "091231.040000"],
      "InstanceNumber": [1, 2, 3, 4, 5, 6, 7, 8, 9, 10, 11, 12, 13, 14, 15, 16, 17, 18, 19, 20, 21, 22, 23, 24, 25, 26, 27, 28, 29, 30, 31, 32, 33, 34, 35, 36, 37, 38, 39, 40, 41, 42, 43, 44, 45, 46, 47, 48, 49, 50, 51, 52, 53, 54, 55, 56, 57, 58, 59, 60, 61, 62, 63, 64, 65, 66, 67, 68, 69, 70, 71, 72, 73, 74, 75, 76, 77, 78, 79, 80, 81, 82, 83, 84, 85, 86, 87, 88, 89, 90, 91, 92, 93, 94, 95, 96, 97, 98, 99, 100, 101, 102, 103, 104, 105, 106, 107, 108, 109, 110, 111, 112, 113, 114, 115, 116, 117, 118, 119, 120, 121, 122, 123, 124, 125, 126, 127, 128, 129, 130, 131, 132, 133, 134, 135, 136, 137, 138, 139, 140, 141, 142, 143, 144, 145, 146, 147, 148, 149, 150, 151, 152, 153, 154, 155, 156, 157, 158, 159, 160, 161, 162, 163, 164, 165, 166, 167, 168, 169, 170, 171, 172, 173, 174, 175, 176, 177, 178, 179, 180, 181, 182, 183, 184, 185, 186, 187, 188, 189, 190, 191, 192, 193, 194, 195, 196, 197, 198, 199, 200],
      "LargestImagePixelValue": [643, 648, 643, 642, 644, 647, 645, 643, 645, 647, 644, 644, 646, 644, 645, 645, 645, 647, 640, 647, 645, 645, 647, 645, 645, 644, 646, 644, 645, 646, 644, 644, 648, 644, 644, 642, 645, 646, 645, 642, 645, 647, 645, 645, 646, 646, 645, 645, 640, 647, 643, 641, 648, 644, 645, 644, 646, 644, 645, 646, 646, 644, 644, 643, 646, 644, 647, 648, 643, 644, 644, 645, 645, 643, 645, 645, 644, 643, 640, 644, 648, 645, 645, 648, 646, 644, 644, 644, 645, 640, 644, 642, 640, 645, 641, 645, 643, 644, 645, 642, 642, 642, 642, 643, 645, 642, 645, 643, 642, 643, 640, 647, 645, 645, 641, 642, 646, 645, 646, 644, 644, 644, 641, 645, 642, 641, 640, 644, 643, 646, 643, 646, 644, 643, 643, 644, 643, 648, 644, 648, 644, 643, 642, 643, 644, 644, 645, 644, 642, 642, 645, 646, 648, 644, 643, 643, 643, 644, 647, 641, 643, 642, 649, 644, 647, 644, 641, 642, 644, 645, 647, 649, 642, 642, 644, 641, 644, 642, 642, 642, 641, 640, 649, 643, 642, 643, 641, 646, 644, 647, 640, 638, 641, 645, 643, 643, 644, 646, 642, 644],
      "WindowCenter": [444.0, 444.0, 444.0, 444.0, 444.0, 444.0, 444.0, 444.0, 444.0, 444.0, 444.0, 444.0, 444.0, 444.0, 444.0, 444.0, 444.0, 444.0, 444.0, 444.0, 444.0, 444.0, 444.0, 444.0, 444.0, 444.0, 444.0, 444.0, 444.0, 444.0, 444.0, 444.0, 444.0, 444.0, 444.0, 444.0, 444.0, 444.0, 444.0, 444.0, 444.0, 444.0, 444.0, 444.0, 444.0, 444.0, 444.0, 444.0, 444.0, 444.0, 444.0, 444.0, 444.0, 444.0, 444.0, 443.0, 443.0, 444.0, 444.0, 443.0, 443.0, 443.0, 443.0, 443.0, 444.0, 443.0, 443.0, 443.0, 443.0, 443.0, 443.0, 443.0, 443.0, 443.0, 444.0, 443.0, 443.0, 443.0, 443.0, 443.0, 443.0, 443.0, 443.0, 444.0, 443.0, 443.0, 443.0, 443.0, 443.0, 443.0, 443.0, 443.0, 443.0, 443.0, 443.0, 443.0, 443.0, 443.0, 443.0, 443.0, 443.0, 443.0, 443.0, 443.0, 443.0, 443.0, 443.0, 443.0, 443.0, 443.0, 443.0, 443.0, 443.0, 443.0, 443.0, 443.0, 443.0, 443.0, 443.0, 443.0, 443.0, 443.0, 443.0, 443.0, 443.0, 443.0, 443.0, 443.0, 443.0, 443.0, 443.0, 443.0, 443.0, 443.0, 443.0, 443.0, 443.0, 443.0, 443.0, 443.0, 443.0, 443.0, 443.0, 443.0, 443.0, 443.0, 443.0, 443.0, 443.0, 443.0, 443.0, 443.0, 443.0, 443.0, 443.0, 443.0, 443.0, 443.0, 443.0, 443.0, 443.0, 443.0, 443.0, 443.0, 443.0, 443.0, 443.0, 443.0, 443.0, 443.0, 443.0, 443.0, 443.0, 443.0, 443.0, 443.0, 443.0, 443.0, 443.0, 443.0, 443.0, 443.0, 443.0, 443.0, 443.0, 443.0, 443.0, 443.0, 443.0, 443.0, 443.0, 443.0, 443.0, 443.0, 443.0, 443.0, 443.0, 443.0, 443.0, 443.0],
      "WindowWidth": [924.0, 925.0, 924.0, 924.0, 924.0, 924.0, 924.0, 924.0, 924.0, 924.0, 924.0, 924.0, 924.0, 924.0, 924.0, 925.0, 924.0, 924.0, 924.0, 924.0, 924.0, 924.0, 924.0, 924.0, 924.0, 924.0, 924.0, 924.0, 924.0, 924.0, 924.0, 924.0, 924.0, 924.0, 924.0, 924.0, 924.0, 924.0, 924.0, 924.0, 924.0, 924.0, 923.0, 923.0, 923.0, 924.0, 923.0, 923.0, 924.0, 923.0, 923.0, 924.0, 924.0, 924.0, 924.0, 923.0, 923.0, 924.0, 924.0, 923.0, 923.0, 923.0, 923.0, 923.0, 924.0, 923.0, 923.0, 923.0, 923.0, 923.0, 923.0, 923.0, 923.0, 923.0, 924.0, 923.0, 923.0, 923.0, 923.0, 923.0, 923.0, 923.0, 923.0, 924.0, 923.0, 923.0, 923.0, 923.0, 923.0, 923.0, 923.0, 923.0, 923.0, 923.0, 923.0, 923.0, 923.0, 923.0, 923.0, 923.0, 923.0, 923.0, 923.0, 923.0, 923.0, 923.0, 923.0, 923.0, 923.0, 923.0, 923.0, 923.0, 923.0, 923.0, 923.0, 923.0, 923.0, 923.0, 923.0, 923.0, 923.0, 923.0, 923.0, 923.0, 923.0, 923.0, 923.0, 923.0, 923.0, 923.0, 923.0, 923.0, 923.0, 923.0, 923.0, 923.0, 923.0, 923.0, 923.0, 923.0, 923.0, 923.0, 923.0, 923.0, 923.0, 923.0, 923.0, 922.0, 923.0, 922.0, 923.0, 923.0, 923.0, 923.0, 923.0, 923.0, 922.0, 923.0, 923.0, 923.0, 923.0, 922.0, 922.0, 923.0, 923.0, 922.0, 923.0, 922.0, 923.0, 922.0, 922.0, 922.0, 922.0, 922.0, 922.0, 922.0, 922.0, 922.0, 922.0, 922.0, 922.0, 922.0, 922.0, 922.0, 922.0, 922.0, 922.0, 922.0, 922.0, 922.0, 922.0, 922.0, 922.0, 922.0, 922.0, 922.0, 922.0, 922.0, 922.0, 922.0]
    },
    "slices": {}
  }
}