{
  "AcquisitionMatrixPE": 80,
  "AcquisitionNumber": 1,
  "AcquisitionTime": "11:13:55.787500",
  "BandwidthPerPixelPhaseEncode": 48.077,
  "BaseResolution": 80,
  "BodyPartExamined": "BRAIN",
  "CoilCombinationMethod": "Sum of Squares",
  "ConsistencyInfo": "N4_VE11C_LATEST_20160120",
  "ConversionSoftware": "dcm2niix",
  "ConversionSoftwareVersion": "v1.0.20220720",
  "DerivedVendorReportedEchoSpacing": 0.000519999,
  "DeviceSerialNumber": "66112",
  "DwellTime": 2.7e-06,
  "EchoTime": 0.035,
  "EchoTrainLength": 39,
  "EffectiveEchoSpacing": 0.00026,
  "FlipAngle": 90,
  "HeudiconvVersion": "0.13.1",
  "ImageOrientationPatientDICOM": [0.990986, -0.133895, 0.00428734, 0.126069, 0.942937, 0.308184],
  "ImageOrientationText": "Tra>Cor(17.8)>Sag(2.6)",
  "ImageType": [
    "ORIGINAL",
    "PRIMARY",
    "M",
    "ND",
    "NORM",
    "MOSAIC"
],
  "ImagingFrequency": 123.252,
  "InPlanePhaseEncodingDirectionDICOM": "COL",
  "InstitutionAddress": "Maynard 3,Hanover,NH,US,03755",
  "InstitutionName": "Dartmouth College - PBS",
  "InstitutionalDepartmentName": "Department",
  "MRAcquisitionType": "2D",
  "MagneticFieldStrength": 3,
  "Manufacturer": "Siemens",
  "ManufacturersModelName": "Prisma",
  "MatrixCoilMode": "GRAPPA",
  "Modality": "MR",
  "NonlinearGradientCorrection": false,
  "ParallelReductionFactorInPlane": 2,
  "PartialFourier": 1,
  "PatientPosition": "HFS",
  "PercentPhaseFOV": 100,
  "PercentSampling": 100,
  "PhaseEncodingDirection": "j-",
  "PhaseEncodingSteps": 79,
  "PhaseResolution": 1,
  "PixelBandwidth": 2315,
  "ProcedureStepDescription": "dbic^QA",
  "ProtocolName": "func-bold_task-rest_acq-p2",
  "PulseSequenceDetails": "%SiemensSeq%\\ep2d_bold",
  "ReceiveCoilActiveElements": "HEA;HEP",
  "ReceiveCoilName": "Head_32",
  "ReconMatrixPE": 80,
  "RefLinesPE": 24,
  "RepetitionTime": 2,
  "SAR": 0.047445,
  "ScanOptions": "FS",
  "ScanningSequence": "EP",
  "SequenceName": "*epfid2d1_80",
  "SequenceVariant": "SK",
  "SeriesDescription": "func-bold_task-rest_acq-p2",
  "SeriesNumber": 5,
  "ShimSetting": [4152, -7696, -7524, 265, -47, -130, -27, 133],
  "SliceThickness": 3.5,
  "SliceTiming": [0.99, 0, 1.055, 0.065, 1.12, 0.1325, 1.1875, 0.1975, 1.2525, 0.2625, 1.32, 0.33, 1.385, 0.395, 1.45, 0.4625, 1.5175, 0.5275, 1.5825, 0.5925, 1.65, 0.66, 1.715, 0.725, 1.78, 0.7925, 1.8475, 0.8575, 1.9125, 0.9225],
  "SoftwareVersions": "syngo MR E11",
  "SpacingBetweenSlices": 3.99,
  "StationName": "AWP66112",
  "TaskName": "rest",
  "TotalReadoutTime": 0.02054,
  "TxRefAmp": 221.329,
  "dcmmeta_affine": [
    [-2.97295880317688, 0.37820807099342346, 0.18077445030212402, 102.70355987548828],
    [0.40168437361717224, 2.8288097381591797, 1.2164125442504883, -147.08042907714844],
    [0.012862022034823895, -0.9245510697364807, 3.795755624771118, -22.861907958984375],
    [0.0, 0.0, 0.0, 1.0]
],
  "dcmmeta_reorient_transform": [
    [0.0, -1.0, 0.0, 79.0],
    [1.0, 0.0, 0.0, 0.0],
    [0.0, 0.0, 1.0, 0.0],
    [0.0, 0.0, 0.0, 1.0]
],
  "dcmmeta_shape": [80, 80, 30, 200],
  "dcmmeta_slice_dim": 2,
  "dcmmeta_version": 0.6,
  "global": {
    "const": {
      "AccessionNumber": "qa",
      "AcquisitionMatrix": [80, 0, 0, 80],
      "AngioFlag": "N",
      "BitsAllocated": 16,
      "BitsStored": 12,
      "BodyPartExamined": "BRAIN",
      "Columns": 480,
      "EchoNumbers": 1,
      "EchoTime": 35.0,
      "EchoTrainLength": 39,
      "FlipAngle": 90.0,
      "HighBit": 11,
      "ImageOrientationPatient": [0.99098627807029, -0.1338947922251, 0.00428734083213, 0.12606935842117, 0.94293654526843, 0.30818369272969],
      "ImagePositionPatient": [-802.81537855583, -561.82058045599, -283.38406283516],
      "ImageType": [
        "ORIGINAL",
        "PRIMARY",
        "M",
        "ND",
        "NORM",
        "MOSAIC"
],
      "ImagedNucleus": "1H",
      "ImagingFrequency": 123.252351,
      "InPlanePhaseEncodingDirection": "COL",
      "MRAcquisitionType": "2D",
      "MagneticFieldStrength": 3.0,
      "Manufacturer": "SIEMENS",
      "ManufacturerModelName": "Prisma",
      "Modality": "MR",
      "NumberOfAverages": 1.0,
      "NumberOfPhaseEncodingSteps": 79,
      "PercentPhaseFieldOfView": 100.0,
      "PercentSampling": 100.0,
      "PerformedProcedureStepStartTime": "111009.628000",
      "PhotometricInterpretation": "MONOCHROME2",
      "PixelBandwidth": 2315.0,
      "PixelRepresentation": 0,
      "PixelSpacing": [3.0, 3.0],
      "ProtocolName": "func-bold_task-rest_acq-p2",
      "RepetitionTime": 2000.0,
      "Rows": 480,
      "SAR": 0.04744502671315,
      "SamplesPerPixel": 1,
      "ScanOptions": "FS",
      "ScanningSequence": "EP",
      "SequenceName": "*epfid2d1_80",
      "SequenceVariant": "SK",
      "SeriesDescription": "func-bold_task-rest_acq-p2",
      "SeriesNumber": 5,
      "SeriesTime": "111450.628000",
      "SliceLocation": -61.935469462426,
      "SliceThickness": 3.5,
      "SmallestImagePixelValue": 0,
      "SoftwareVersions": "syngo MR E11",
      "SpacingBetweenSlices": 3.9899999268873,
      "SpecificCharacterSet": "ISO_IR 100",
      "StudyID": "27",
      "StudyTime": "111009.587000",
      "TransmitCoilName": "Body",
      "VariableFlipAngleFlag": "N",
      "WindowCenterWidthExplanation": "Algo1",
      "dBdt": 0.0},
    "slices": {}
  },
  "time": {
    "samples": {
      "AcquisitionNumber": [1, 2, 3, 4, 5, 6, 7, 8, 9, 10, 11, 12, 13, 14, 15, 16, 17, 18, 19, 20, 21, 22, 23, 24, 25, 26, 27, 28, 29, 30, 31, 32, 33, 34, 35, 36, 37, 38, 39, 40, 41, 42, 43, 44, 45, 46, 47, 48, 49, 50, 51, 52, 53, 54, 55, 56, 57, 58, 59, 60, 61, 62, 63, 64, 65, 66, 67, 68, 69, 70, 71, 72, 73, 74, 75, 76, 77, 78, 79, 80, 81, 82, 83, 84, 85, 86, 87, 88, 89, 90, 91, 92, 93, 94, 95, 96, 97, 98, 99, 100, 101, 102, 103, 104, 105, 106, 107, 108, 109, 110, 111, 112, 113, 114, 115, 116, 117, 118, 119, 120, 121, 122, 123, 124, 125, 126, 127, 128, 129, 130, 131, 132, 133, 134, 135, 136, 137, 138, 139, 140, 141, 142, 143, 144, 145, 146, 147, 148, 149, 150, 151, 152, 153, 154, 155, 156, 157, 158, 159, 160, 161, 162, 163, 164, 165, 166, 167, 168, 169, 170, 171, 172, 173, 174, 175, 176, 177, 178, 179, 180, 181, 182, 183, 184, 185, 186, 187, 188, 189, 190, 191, 192, 193, 194, 195, 196, 197, 198, 199, 200],
      "AcquisitionTime": ["111355.787500", "111357.787500", "111359.787500", "111401.787500", "111403.787500", "111405.787500", "111407.787500", "111409.787500", "111411.787500", "111413.787500", "111415.787500", "111417.787500", "111419.787500", "111421.787500", "111423.787500", "111425.787500", "111427.787500", "111429.787500", "111431.787500", "111433.787500", "111435.787500", "111437.787500", "111439.787500", "111441.787500", "111443.787500", "111445.787500", "111447.787500", "111449.787500", "111451.787500", "111453.787500", "111455.787500", "111457.787500", "111459.787500", "111501.787500", "111503.787500", "111505.787500", "111507.787500", "111509.787500", "111511.787500", "111513.787500", "111515.787500", "111517.787500", "111519.787500", "111521.787500", "111523.787500", "111525.787500", "111527.787500", "111529.787500", "111531.787500", "111533.787500", "111535.787500", "111537.787500", "111539.787500", "111541.787500", "111543.787500", "111545.787500", "111547.787500", "111549.787500", "111551.787500", "111553.787500", "111555.787500", "111557.787500", "111559.787500", "111601.787500", "111603.787500", "111605.787500", "111607.787500", "111609.787500", "111611.787500", "111613.787500", "111615.787500", "111617.787500", "111619.787500", "111621.787500", "111623.787500", "111625.787500", "111627.787500", "111629.787500", "111631.787500", "111633.787500", "111635.787500", "111637.787500", "111639.787500", "111641.787500", "111643.787500", "111645.787500", "111647.787500", "111649.787500", "111651.787500", "111653.787500", "111655.787500", "111657.787500", "111659.787500", "111701.787500", "111703.787500", "111705.787500", "111707.787500", "111709.787500", "111711.787500", "111713.787500", "111715.787500", "111717.787500", "111719.787500", "111721.787500", "111723.787500", "111725.787500", "111727.787500", "111729.787500", "111731.787500", "111733.787500", "111735.787500", "111737.787500", "111739.787500", "111741.787500", "111743.787500", "111745.787500", "111747.787500", "111749.787500", "111751.787500", "111753.787500", "111755.787500", "111757.787500", "111759.787500", "111801.787500", "111803.787500", "111805.787500", "111807.787500", "111809.787500", "111811.787500", "111813.787500", "111815.787500", "111817.787500", "111819.787500", "111821.787500", "111823.787500", "111825.787500", "111827.787500", "111829.787500", "111831.787500", "111833.787500", "111835.787500", "111837.787500", "111839.787500", "111841.787500", "111843.787500", "111845.787500", "111847.787500", "111849.787500", "111851.787500", "111853.787500", "111855.787500", "111857.787500", "111859.787500", "111901.787500", "111903.787500", "111905.787500", "111907.787500", "111909.787500", "111911.787500", "111913.787500", "111915.787500", "111917.787500", "111919.787500", "111921.787500", "111923.787500", "111925.787500", "111927.787500", "111929.787500", "111931.787500", "111933.787500", "111935.787500", "111937.787500", "111939.787500", "111941.787500", "111943.787500", "111945.787500", "111947.787500", "111949.787500", "111951.787500", "111953.787500", "111955.787500", "111957.787500", "111959.787500", "112001.787500", "112003.787500", "112005.787500", "112007.787500", "112009.787500", "112011.787500", "112013.787500", "112015.787500", "112017.787500", "112019.787500", "112021.787500", "112023.787500", "112025.787500", "112027.787500", "112029.787500", "112031.787500", "112033.787500"],
      "ContentTime": ["111450.631000", "111450.635000", "111450.637000", "111450.640000", "111450.642000", "111450.645000", "111450.647000", "111450.650000", "111450.652000", "111450.655000", "111450.657000", "111450.660000", "111450.662000", "111450.665000", "111450.667000", "111450.670000", "111450.677000", "111450.679000", "111450.682000", "111450.684000", "111450.687000", "111450.689000", "111450.692000", "111450.694000", "111450.697000", "111450.699000", "111450.702000", "111530.628000", "111530.631000", "111530.633000", "111530.636000", "111530.638000", "111530.641000", "111530.643000", "111530.646000", "111530.648000", "111530.651000", "111530.653000", "111530.656000", "111530.665000", "111530.668000", "111530.670000", "111530.673000", "111530.675000", "111530.678000", "111530.680000", "111530.683000", "111550.627000", "111550.630000", "111550.633000", "111550.635000", "111550.638000", "111550.640000", "111550.643000", "111550.645000", "111550.648000", "111550.650000", "111630.626000", "111630.629000", "111630.632000", "111630.634000", "111630.637000", "111630.639000", "111630.642000", "111630.644000", "111630.647000", "111630.649000", "111630.652000", "111630.654000", "111630.657000", "111630.660000", "111630.662000", "111630.665000", "111630.667000", "111630.670000", "111630.672000", "111630.675000", "111710.626000", "111710.629000", "111710.632000", "111710.634000", "111710.637000", "111710.640000", "111710.642000", "111710.645000", "111710.647000", "111710.650000", "111710.652000", "111710.655000", "111710.657000", "111710.660000", "111710.662000", "111710.665000", "111710.667000", "111710.670000", "111710.672000", "111710.675000", "111750.628000", "111750.630000", "111750.633000", "111750.635000", "111750.638000", "111750.641000", "111750.643000", "111750.646000", "111750.648000", "111750.651000", "111750.653000", "111750.656000", "111750.658000", "111750.661000", "111750.663000", "111750.666000", "111750.668000", "111750.671000", "111750.673000", "111750.676000", "111830.627000", "111830.630000", "111830.633000", "111830.635000", "111830.638000", "111830.641000", "111830.643000", "111830.646000", "111830.649000", "111830.651000", "111830.654000", "111830.656000", "111830.659000", "111830.661000", "111830.664000", "111830.666000", "111830.669000", "111830.671000", "111830.674000", "111830.676000", "111910.626000", "111910.629000", "111910.632000", "111910.634000", "111910.637000", "111910.639000", "111910.642000", "111910.644000", "111910.647000", "111910.650000", "111910.652000", "111910.655000", "111910.657000", "111910.660000", "111910.662000", "111910.665000", "111910.667000", "111910.670000", "111910.672000", "111910.675000", "111950.626000", "111950.629000", "111950.632000", "111950.634000", "111950.637000", "111950.639000", "111950.642000", "111950.645000", "111950.647000", "111950.650000", "111950.652000", "111950.655000", "111950.657000", "111950.660000", "111950.662000", "111950.665000", "111950.667000", "111950.670000", "111950.672000", "111950.675000", "112030.628000", "112030.631000", "112030.634000", "112030.636000", "112030.639000", "112030.641000", "112030.644000", "112030.646000", "112030.649000", "112030.652000", "112030.654000", "112030.657000", "112030.659000", "112030.662000", "112030.664000", "112030.667000", "112030.669000", "112030.672000", "112030.674000", "112030.677000", "112034.883000", "112034.886000", "112034.888000"],
      "InstanceCreationTime": ["111450.631000", "111450.635000", "111450.637000", "111450.640000", "111450.642000", "111450.645000", "111450.647000", "111450.650000", "111450.652000", "111450.655000", "111450.657000", "111450.660000", "111450.662000", "111450.665000", "111450.667000", "111450.670000", "111450.677000", "111450.679000", "111450.682000", "111450.684000", "111450.687000", "111450.689000", "111450.692000", "111450.694000", "111450.697000", "111450.699000", "111450.702000", "111530.628000", "111530.631000", "111530.633000", "111530.636000", "111530.638000", "111530.641000", "111530.643000", "111530.646000", "111530.648000", "111530.651000", "111530.653000", "111530.656000", "111530.665000", "111530.668000", "111530.670000", "111530.673000", "111530.675000", "111530.678000", "111530.680000", "111530.683000", "111550.627000", "111550.630000", "111550.633000", "111550.635000", "111550.638000", "111550.640000", "111550.643000", "111550.645000", "111550.648000", "111550.650000", "111630.626000", "111630.629000", "111630.632000", "111630.634000", "111630.637000", "111630.639000", "111630.642000", "111630.644000", "111630.647000", "111630.649000", "111630.652000", "111630.654000", "111630.657000", "111630.660000", "111630.662000", "111630.665000", "111630.667000", "111630.670000", "111630.672000", "111630.675000", "111710.626000", "111710.629000", "111710.632000", "111710.634000", "111710.637000", "111710.640000", "111710.642000", "111710.645000", "111710.647000", "111710.650000", "111710.652000", "111710.655000", "111710.657000", "111710.660000", "111710.662000", "111710.665000", "111710.667000", "111710.670000", "111710.672000", "111710.675000", "111750.628000", "111750.630000", "111750.633000", "111750.635000", "111750.638000", "111750.641000", "111750.643000", "111750.646000", "111750.648000", "111750.651000", "111750.653000", "111750.656000", "111750.658000", "111750.661000", "111750.663000", "111750.666000", "111750.668000", "111750.671000", "111750.673000", "111750.676000", "111830.627000", "111830.630000", "111830.633000", "111830.635000", "111830.638000", "111830.641000", "111830.643000", "111830.646000", "111830.649000", "111830.651000", "111830.654000", "111830.656000", "111830.659000", "111830.661000", "111830.664000", "111830.666000", "111830.669000", "111830.671000", "111830.674000", "111830.676000", "111910.626000", "111910.629000", "111910.632000", "111910.634000", "111910.637000", "111910.639000", "111910.642000", "111910.644000", "111910.647000", "111910.650000", "111910.652000", "111910.655000", "111910.657000", "111910.660000", "111910.662000", "111910.665000", "111910.667000", "111910.670000", "111910.672000", "111910.675000", "111950.626000", "111950.629000", "111950.632000", "111950.634000", "111950.637000", "111950.639000", "111950.642000", "111950.645000", "111950.647000", "111950.650000", "111950.652000", "111950.655000", "111950.657000", "111950.660000", "111950.662000", "111950.665000", "111950.667000", "111950.670000", "111950.672000", "111950.675000", "112030.628000", "112030.631000", "112030.634000", "112030.636000", "112030.639000", "112030.641000", "112030.644000", "112030.646000", "112030.649000", "112030.652000", "112030.654000", "112030.657000", "112030.659000", "112030.662000", "112030.664000", "112030.667000", "112030.669000", "112030.672000", "112030.674000", "112030.677000", "112034.883000", "112034.886000", "112034.888000"],
      "InstanceNumber": [1, 2, 3, 4, 5, 6, 7, 8, 9, 10, 11, 12, 13, 14, 15, 16, 17, 18, 19, 20, 21, 22, 23, 24, 25, 26, 27, 28, 29, 30, 31, 32, 33, 34, 35, 36, 37, 38, 39, 40, 41, 42, 43, 44, 45, 46, 47, 48, 49, 50, 51, 52, 53, 54, 55, 56, 57, 58, 59, 60, 61, 62, 63, 64, 65, 66, 67, 68, 69, 70, 71, 72, 73, 74, 75, 76, 77, 78, 79, 80, 81, 82, 83, 84, 85, 86, 87, 88, 89, 90, 91, 92, 93, 94, 95, 96, 97, 98, 99, 100, 101, 102, 103, 104, 105, 106, 107, 108, 109, 110, 111, 112, 113, 114, 115, 116, 117, 118, 119, 120, 121, 122, 123, 124, 125, 126, 127, 128, 129, 130, 131, 132, 133, 134, 135, 136, 137, 138, 139, 140, 141, 142, 143, 144, 145, 146, 147, 148, 149, 150, 151, 152, 153, 154, 155, 156, 157, 158, 159, 160, 161, 162, 163, 164, 165, 166, 167, 168, 169, 170, 171, 172, 173, 174, 175, 176, 177, 178, 179, 180, 181, 182, 183, 184, 185, 186, 187, 188, 189, 190, 191, 192, 193, 194, 195, 196, 197, 198, 199, 200],
      "LargestImagePixelValue": [2303, 2303, 2303, 2303, 2303, 2307, 2308, 2304, 2305, 2304, 2308, 2305, 2306, 2303, 2303, 2306, 2304, 2302, 2303, 2305, 2301, 2305, 2305, 2307, 2307, 2305, 2304, 2304, 2305, 2311, 2303, 2306, 2303, 2303, 2306, 2302, 2304, 2302, 2305, 2303, 2303, 2303, 2306, 2307, 2304, 2303, 2305, 2304, 2300, 2306, 2306, 2303, 2304, 2304, 2304, 2304, 2305, 2307, 2305, 2304, 2303, 2305, 2303, 2304, 2303, 2307, 2307, 2304, 2305, 2304, 2306, 2303, 2304, 2307, 2305, 2306, 2303, 2303, 2306, 2302, 2304, 2304, 2306, 2305, 2305, 2305, 2305, 2306, 2304, 2307, 2304, 2308, 2305, 2307, 2306, 2305, 2307, 2306, 2304, 2308, 2303, 2306, 2304, 2303, 2303, 2304, 2306, 2304, 2301, 2302, 2306, 2308, 2307, 2307, 2303, 2306, 2303, 2301, 2304, 2305, 2307, 2307, 2303, 2302, 2305, 2303, 2305, 2308, 2304, 2303, 2305, 2305, 2305, 2306, 2302, 2305, 2303, 2308, 2306, 2307, 2304, 2304, 2309, 2307, 2306, 2307, 2304, 2306, 2303, 2304, 2305, 2305, 2308, 2307, 2305, 2306, 2304, 2305, 2306, 2305, 2304, 2306, 2305, 2303, 2304, 2305, 2303, 2303, 2306, 2306, 2305, 2304, 2304, 2306, 2305, 2305, 2304, 2304, 2306, 2304, 2307, 2307, 2304, 2304, 2306, 2305, 2305, 2301, 2305, 2307, 2306, 2303, 2309, 2306, 2304, 2305, 2307, 2303, 2307, 2304],
      "WindowCenter": [1053.0, 1053.0, 1053.0, 1053.0, 1053.0, 1053.0, 1053.0, 1053.0, 1053.0, 1053.0, 1053.0, 1053.0, 1053.0, 1053.0, 1053.0, 1053.0, 1053.0, 1053.0, 1053.0, 1053.0, 1053.0, 1053.0, 1053.0, 1053.0, 1053.0, 1053.0, 1053.0, 1053.0, 1053.0, 1053.0, 1053.0, 1053.0, 1053.0, 1053.0, 1053.0, 1053.0, 1053.0, 1053.0, 1053.0, 1053.0, 1053.0, 1053.0, 1053.0, 1053.0, 1053.0, 1053.0, 1053.0, 1053.0, 1053.0, 1053.0, 1053.0, 1053.0, 1053.0, 1053.0, 1053.0, 1053.0, 1053.0, 1053.0, 1053.0, 1053.0, 1053.0, 1053.0, 1053.0, 1053.0, 1052.0, 1053.0, 1052.0, 1052.0, 1053.0, 1052.0, 1052.0, 1053.0, 1053.0, 1053.0, 1053.0, 1052.0, 1053.0, 1052.0, 1052.0, 1052.0, 1052.0, 1052.0, 1052.0, 1052.0, 1052.0, 1052.0, 1053.0, 1052.0, 1052.0, 1052.0, 1053.0, 1052.0, 1052.0, 1052.0, 1052.0, 1052.0, 1052.0, 1052.0, 1052.0, 1052.0, 1052.0, 1052.0, 1052.0, 1052.0, 1052.0, 1052.0, 1052.0, 1052.0, 1052.0, 1052.0, 1052.0, 1052.0, 1052.0, 1052.0, 1052.0, 1052.0, 1052.0, 1052.0, 1052.0, 1052.0, 1052.0, 1052.0, 1052.0, 1052.0, 1052.0, 1052.0, 1052.0, 1052.0, 1052.0, 1052.0, 1052.0, 1052.0, 1052.0, 1052.0, 1052.0, 1052.0, 1052.0, 1052.0, 1052.0, 1052.0, 1052.0, 1052.0, 1052.0, 1052.0, 1052.0, 1052.0, 1052.0, 1052.0, 1052.0, 1052.0, 1052.0, 1052.0, 1052.0, 1052.0, 1052.0, 1052.0, 1052.0, 1052.0, 1052.0, 1052.0, 1052.0, 1052.0, 1052.0, 1052.0, 1052.0, 1052.0, 1052.0, 1052.0, 1052.0, 1052.0, 1052.0, 1052.0, 1052.0, 1052.0, 1052.0, 1052.0, 1052.0, 1052.0, 1052.0, 1052.0, 1052.0, 1052.0, 1052.0, 1052.0, 1052.0, 1052.0, 1052.0, 1052.0, 1052.0, 1052.0, 1052.0, 1052.0, 1052.0, 1052.0, 1052.0, 1052.0, 1052.0, 1052.0, 1052.0, 1052.0],
      "WindowWidth": [2360.0, 2361.0, 2360.0, 2360.0, 2360.0, 2360.0, 2360.0, 2360.0, 2360.0, 2360.0, 2360.0, 2360.0, 2360.0, 2360.0, 2360.0, 2360.0, 2360.0, 2360.0, 2360.0, 2360.0, 2359.0, 2360.0, 2359.0, 2360.0, 2360.0, 2360.0, 2360.0, 2360.0, 2360.0, 2360.0, 2360.0, 2360.0, 2360.0, 2360.0, 2359.0, 2359.0, 2360.0, 2359.0, 2359.0, 2359.0, 2359.0, 2359.0, 2360.0, 2359.0, 2359.0, 2359.0, 2359.0, 2359.0, 2359.0, 2359.0, 2359.0, 2359.0, 2359.0, 2359.0, 2359.0, 2359.0, 2359.0, 2359.0, 2359.0, 2359.0, 2359.0, 2359.0, 2359.0, 2358.0, 2359.0, 2359.0, 2359.0, 2359.0, 2359.0, 2359.0, 2359.0, 2358.0, 2358.0, 2359.0, 2358.0, 2359.0, 2358.0, 2359.0, 2358.0, 2359.0, 2359.0, 2359.0, 2359.0, 2358.0, 2359.0, 2359.0, 2358.0, 2358.0, 2359.0, 2359.0, 2358.0, 2359.0, 2359.0, 2358.0, 2358.0, 2358.0, 2358.0, 2358.0, 2358.0, 2358.0, 2358.0, 2358.0, 2358.0, 2358.0, 2358.0, 2358.0, 2358.0, 2358.0, 2358.0, 2359.0, 2358.0, 2358.0, 2359.0, 2359.0, 2358.0, 2359.0, 2358.0, 2358.0, 2358.0, 2358.0, 2358.0, 2358.0, 2358.0, 2358.0, 2358.0, 2358.0, 2358.0, 2358.0, 2358.0, 2358.0, 2358.0, 2358.0, 2358.0, 2358.0, 2358.0, 2358.0, 2358.0, 2358.0, 2358.0, 2358.0, 2358.0, 2358.0, 2358.0, 2358.0, 2358.0, 2358.0, 2358.0, 2358.0, 2358.0, 2358.0, 2358.0, 2358.0, 2358.0, 2358.0, 2358.0, 2358.0, 2358.0, 2358.0, 2358.0, 2358.0, 2358.0, 2357.0, 2357.0, 2358.0, 2358.0, 2358.0, 2358.0, 2357.0, 2358.0, 2358.0, 2358.0, 2357.0, 2358.0, 2358.0, 2357.0, 2357.0, 2358.0, 2358.0, 2357.0, 2358.0, 2357.0, 2357.0, 2357.0, 2358.0, 2357.0, 2358.0, 2358.0, 2357.0, 2358.0, 2358.0, 2358.0, 2357.0, 2358.0, 2358.0, 2358.0, 2357.0, 2357.0, 2357.0, 2357.0, 2357.0]
    },
    "slices": {}
  }
}