{
  "AcquisitionMatrixPE": 80,
  "AcquisitionNumber": 1,
  "AcquisitionTime": "11:27:39.492500",
  "BandwidthPerPixelPhaseEncode": 25,
  "BaseResolution": 80,
  "BodyPartExamined": "BRAIN",
  "CoilCombinationMethod": "Sum of Squares",
  "ConsistencyInfo": "N4_VE11C_LATEST_20160120",
  "ConversionSoftware": "dcm2niix",
  "ConversionSoftwareVersion": "v1.0.20220720",
  "DerivedVendorReportedEchoSpacing": 0.0005,
  "DeviceSerialNumber": "66112",
  "DwellTime": 2.7e-06,
  "EchoTime": 0.03,
  "EchoTrainLength": 80,
  "EffectiveEchoSpacing": 0.0005,
  "FlipAngle": 77,
  "HeudiconvVersion": "0.13.1",
  "ImageOrientationPatientDICOM": [0.990986, -0.133895, 0.00428734, 0.126069, 0.942937, 0.308184],
  "ImageOrientationText": "Tra>Cor(17.8)>Sag(2.6)",
  "ImageType": [
    "ORIGINAL",
    "PRIMARY",
    "M",
    "ND",
    "NORM",
    "MOSAIC"
],
  "ImagingFrequency": 123.252,
  "InPlanePhaseEncodingDirectionDICOM": "COL",
  "InstitutionAddress": "Maynard 3,Hanover,NH,US,03755",
  "InstitutionName": "Dartmouth College - PBS",
  "InstitutionalDepartmentName": "Department",
  "MRAcquisitionType": "2D",
  "MagneticFieldStrength": 3,
  "Manufacturer": "Siemens",
  "ManufacturersModelName": "Prisma",
  "MatrixCoilMode": "SENSE",
  "Modality": "MR",
  "NonlinearGradientCorrection": false,
  "PartialFourier": 1,
  "PatientPosition": "HFS",
  "PercentPhaseFOV": 100,
  "PercentSampling": 100,
  "PhaseEncodingDirection": "j-",
  "PhaseEncodingSteps": 80,
  "PhaseResolution": 1,
  "PixelBandwidth": 2315,
  "ProcedureStepDescription": "dbic^QA",
  "ProtocolName": "func-bold_fa-77",
  "PulseSequenceDetails": "%SiemensSeq%\\ep2d_bold",
  "ReceiveCoilActiveElements": "HEA;HEP",
  "ReceiveCoilName": "Head_32",
  "ReconMatrixPE": 80,
  "RepetitionTime": 2,
  "SAR": 0.0372847,
  "ScanOptions": "FS",
  "ScanningSequence": "EP",
  "SequenceName": "*epfid2d1_80",
  "SequenceVariant": "SK",
  "SeriesDescription": "func-bold_fa-77",
  "SeriesNumber": 8,
  "ShimSetting": [4152, -7696, -7524, 264, -45, -128, -22, 131],
  "SliceThickness": 3.5,
  "SliceTiming": [0.99, 0, 1.055, 0.065, 1.1225, 0.1325, 1.1875, 0.1975, 1.2525, 0.2625, 1.32, 0.33, 1.385, 0.395, 1.45, 0.4625, 1.5175, 0.5275, 1.5825, 0.5925, 1.65, 0.66, 1.715, 0.725, 1.78, 0.7925, 1.8475, 0.8575, 1.9125, 0.9225],
  "SoftwareVersions": "syngo MR E11",
  "SpacingBetweenSlices": 3.99,
  "StationName": "AWP66112",
  "TotalReadoutTime": 0.0395,
  "TxRefAmp": 221.329,
  "dcmmeta_affine": [
    [-2.97295880317688, 0.37820807099342346, 0.18077445030212402, 103.11499786376953],
    [0.40168437361717224, 2.8288097381591797, 1.2164125442504883, -144.31744384765625],
    [0.012862022034823895, -0.9245510697364807, 3.795755624771118, -18.374866485595703],
    [0.0, 0.0, 0.0, 1.0]
],
  "dcmmeta_reorient_transform": [
    [0.0, -1.0, 0.0, 79.0],
    [1.0, 0.0, 0.0, 0.0],
    [0.0, 0.0, 1.0, 0.0],
    [0.0, 0.0, 0.0, 1.0]
],
  "dcmmeta_shape": [80, 80, 30, 200],
  "dcmmeta_slice_dim": 2,
  "dcmmeta_version": 0.6,
  "global": {
    "const": {
      "AccessionNumber": "qa",
      "AcquisitionMatrix": [80, 0, 0, 80],
      "AngioFlag": "N",
      "BitsAllocated": 16,
      "BitsStored": 12,
      "BodyPartExamined": "BRAIN",
      "Columns": 480,
      "EchoNumbers": 1,
      "EchoTime": 30.0,
      "EchoTrainLength": 80,
      "FlipAngle": 77.0,
      "HighBit": 11,
      "ImageOrientationPatient": [0.99098627807029, -0.1338947922251, 0.00428734083213, 0.12606935842117, 0.94293654526843, 0.30818369272969],
      "ImagePositionPatient": [-803.22681976277, -564.58356568548, -278.89702136178],
      "ImageType": [
        "ORIGINAL",
        "PRIMARY",
        "M",
        "ND",
        "NORM",
        "MOSAIC"
],
      "ImagedNucleus": "1H",
      "ImagingFrequency": 123.252353,
      "InPlanePhaseEncodingDirection": "COL",
      "MRAcquisitionType": "2D",
      "MagneticFieldStrength": 3.0,
      "Manufacturer": "SIEMENS",
      "ManufacturerModelName": "Prisma",
      "Modality": "MR",
      "NumberOfAverages": 1.0,
      "NumberOfPhaseEncodingSteps": 80,
      "PercentPhaseFieldOfView": 100.0,
      "PercentSampling": 100.0,
      "PerformedProcedureStepStartTime": "111009.628000",
      "PhotometricInterpretation": "MONOCHROME2",
      "PixelBandwidth": 2315.0,
      "PixelRepresentation": 0,
      "PixelSpacing": [3.0, 3.0],
      "ProtocolName": "func-bold_fa-77",
      "RepetitionTime": 2000.0,
      "Rows": 480,
      "SAR": 0.03728467071096,
      "SamplesPerPixel": 1,
      "ScanOptions": "FS",
      "ScanningSequence": "EP",
      "SequenceName": "*epfid2d1_80",
      "SequenceVariant": "SK",
      "SeriesDescription": "func-bold_fa-77",
      "SeriesNumber": 8,
      "SeriesTime": "112830.769000",
      "SliceLocation": -56.80589023376,
      "SliceThickness": 3.5,
      "SmallestImagePixelValue": 0,
      "SoftwareVersions": "syngo MR E11",
      "SpacingBetweenSlices": 3.9899999274461,
      "SpecificCharacterSet": "ISO_IR 100",
      "StudyID": "27",
      "StudyTime": "111009.587000",
      "TransmitCoilName": "Body",
      "VariableFlipAngleFlag": "N",
      "WindowCenterWidthExplanation": "Algo1",
      "dBdt": 0.0},
    "slices": {}
  },
  "time": {
    "samples": {
      "AcquisitionNumber": [1, 2, 3, 4, 5, 6, 7, 8, 9, 10, 11, 12, 13, 14, 15, 16, 17, 18, 19, 20, 21, 22, 23, 24, 25, 26, 27, 28, 29, 30, 31, 32, 33, 34, 35, 36, 37, 38, 39, 40, 41, 42, 43, 44, 45, 46, 47, 48, 49, 50, 51, 52, 53, 54, 55, 56, 57, 58, 59, 60, 61, 62, 63, 64, 65, 66, 67, 68, 69, 70, 71, 72, 73, 74, 75, 76, 77, 78, 79, 80, 81, 82, 83, 84, 85, 86, 87, 88, 89, 90, 91, 92, 93, 94, 95, 96, 97, 98, 99, 100, 101, 102, 103, 104, 105, 106, 107, 108, 109, 110, 111, 112, 113, 114, 115, 116, 117, 118, 119, 120, 121, 122, 123, 124, 125, 126, 127, 128, 129, 130, 131, 132, 133, 134, 135, 136, 137, 138, 139, 140, 141, 142, 143, 144, 145, 146, 147, 148, 149, 150, 151, 152, 153, 154, 155, 156, 157, 158, 159, 160, 161, 162, 163, 164, 165, 166, 167, 168, 169, 170, 171, 172, 173, 174, 175, 176, 177, 178, 179, 180, 181, 182, 183, 184, 185, 186, 187, 188, 189, 190, 191, 192, 193, 194, 195, 196, 197, 198, 199, 200],
      "AcquisitionTime": ["112739.492500", "112741.492500", "112743.492500", "112745.492500", "112747.492500", "112749.492500", "112751.492500", "112753.492500", "112755.492500", "112757.492500", "112759.492500", "112801.492500", "112803.492500", "112805.492500", "112807.492500", "112809.492500", "112811.492500", "112813.492500", "112815.492500", "112817.492500", "112819.492500", "112821.492500", "112823.492500", "112825.492500", "112827.492500", "112829.492500", "112831.492500", "112833.492500", "112835.492500", "112837.492500", "112839.492500", "112841.492500", "112843.492500", "112845.492500", "112847.492500", "112849.492500", "112851.492500", "112853.492500", "112855.492500", "112857.492500", "112859.492500", "112901.492500", "112903.492500", "112905.492500", "112907.492500", "112909.492500", "112911.492500", "112913.492500", "112915.492500", "112917.492500", "112919.492500", "112921.492500", "112923.492500", "112925.492500", "112927.492500", "112929.492500", "112931.492500", "112933.492500", "112935.492500", "112937.492500", "112939.492500", "112941.492500", "112943.492500", "112945.492500", "112947.492500", "112949.492500", "112951.492500", "112953.492500", "112955.492500", "112957.492500", "112959.492500", "113001.492500", "113003.492500", "113005.492500", "113007.492500", "113009.492500", "113011.492500", "113013.492500", "113015.492500", "113017.492500", "113019.492500", "113021.492500", "113023.492500", "113025.492500", "113027.492500", "113029.492500", "113031.492500", "113033.492500", "113035.492500", "113037.492500", "113039.492500", "113041.492500", "113043.492500", "113045.492500", "113047.492500", "113049.492500", "113051.492500", "113053.492500", "113055.492500", "113057.492500", "113059.492500", "113101.492500", "113103.492500", "113105.492500", "113107.492500", "113109.492500", "113111.492500", "113113.492500", "113115.492500", "113117.492500", "113119.492500", "113121.492500", "113123.492500", "113125.492500", "113127.492500", "113129.492500", "113131.492500", "113133.492500", "113135.492500", "113137.492500", "113139.492500", "113141.492500", "113143.492500", "113145.492500", "113147.492500", "113149.492500", "113151.492500", "113153.492500", "113155.492500", "113157.492500", "113159.492500", "113201.492500", "113203.492500", "113205.492500", "113207.492500", "113209.492500", "113211.492500", "113213.492500", "113215.492500", "113217.492500", "113219.492500", "113221.492500", "113223.492500", "113225.492500", "113227.492500", "113229.492500", "113231.492500", "113233.492500", "113235.492500", "113237.492500", "113239.492500", "113241.492500", "113243.492500", "113245.492500", "113247.492500", "113249.492500", "113251.492500", "113253.492500", "113255.492500", "113257.492500", "113259.492500", "113301.492500", "113303.492500", "113305.492500", "113307.492500", "113309.492500", "113311.492500", "113313.492500", "113315.492500", "113317.492500", "113319.492500", "113321.492500", "113323.492500", "113325.492500", "113327.492500", "113329.492500", "113331.492500", "113333.492500", "113335.492500", "113337.492500", "113339.492500", "113341.492500", "113343.492500", "113345.492500", "113347.492500", "113349.492500", "113351.492500", "113353.492500", "113355.492500", "113357.492500", "113359.492500", "113401.492500", "113403.492500", "113405.492500", "113407.492500", "113409.492500", "113411.492500", "113413.492500", "113415.492500", "113417.492500"],
      "ContentTime": ["112830.772000", "112830.776000", "112830.778000", "112830.781000", "112830.783000", "112830.786000", "112830.788000", "112830.790000", "112830.793000", "112830.795000", "112830.798000", "112830.800000", "112830.803000", "112830.812000", "112830.815000", "112830.817000", "112830.820000", "112830.822000", "112830.825000", "112830.827000", "112830.830000", "112830.833000", "112830.835000", "112830.838000", "112830.840000", "112910.767000", "112910.770000", "112910.773000", "112910.775000", "112910.778000", "112910.780000", "112910.783000", "112910.785000", "112910.788000", "112910.790000", "112910.793000", "112910.795000", "112910.798000", "112910.800000", "112910.803000", "112910.805000", "112910.808000", "112910.810000", "112910.813000", "112910.815000", "112950.768000", "112950.771000", "112950.774000", "112950.776000", "112950.779000", "112950.781000", "112950.784000", "112950.786000", "112950.789000", "112950.791000", "112950.794000", "112950.796000", "112950.799000", "112950.801000", "112950.804000", "112950.806000", "112950.809000", "112950.811000", "112950.814000", "112950.816000", "113030.768000", "113030.770000", "113030.773000", "113030.775000", "113030.778000", "113030.780000", "113030.783000", "113030.785000", "113030.788000", "113030.790000", "113030.793000", "113030.795000", "113030.798000", "113030.800000", "113030.803000", "113030.805000", "113030.808000", "113030.810000", "113030.813000", "113030.815000", "113110.767000", "113110.770000", "113110.773000", "113110.775000", "113110.778000", "113110.780000", "113110.783000", "113110.785000", "113110.788000", "113110.790000", "113110.793000", "113110.795000", "113110.798000", "113110.800000", "113110.803000", "113110.805000", "113110.808000", "113110.810000", "113110.813000", "113110.815000", "113150.769000", "113150.771000", "113150.774000", "113150.776000", "113150.779000", "113150.782000", "113150.784000", "113150.787000", "113150.789000", "113150.791000", "113150.794000", "113150.796000", "113150.799000", "113150.801000", "113150.804000", "113150.806000", "113150.809000", "113150.811000", "113150.814000", "113150.816000", "113230.768000", "113230.771000", "113230.774000", "113230.776000", "113230.779000", "113230.781000", "113230.784000", "113230.786000", "113230.789000", "113230.791000", "113230.794000", "113230.796000", "113230.799000", "113230.801000", "113230.804000", "113230.806000", "113230.809000", "113230.812000", "113230.814000", "113230.817000", "113310.767000", "113310.770000", "113310.773000", "113310.775000", "113310.778000", "113310.780000", "113310.783000", "113310.786000", "113310.788000", "113310.791000", "113310.793000", "113310.796000", "113310.798000", "113310.801000", "113310.803000", "113310.806000", "113310.808000", "113310.811000", "113310.813000", "113310.815000", "113350.768000", "113350.770000", "113350.773000", "113350.775000", "113350.778000", "113350.780000", "113350.783000", "113350.785000", "113350.788000", "113350.790000", "113350.793000", "113350.796000", "113350.798000", "113350.801000", "113350.803000", "113350.805000", "113350.808000", "113350.810000", "113350.813000", "113350.815000", "113419.321000", "113419.324000", "113419.326000", "113419.329000", "113419.331000", "113419.334000", "113419.337000", "113419.339000", "113419.342000", "113419.344000", "113419.347000", "113419.349000", "113419.362000", "113419.366000", "113419.372000"],
      "InstanceCreationTime": ["112830.772000", "112830.776000", "112830.778000", "112830.781000", "112830.783000", "112830.786000", "112830.788000", "112830.790000", "112830.793000", "112830.795000", "112830.798000", "112830.800000", "112830.803000", "112830.812000", "112830.815000", "112830.817000", "112830.820000", "112830.822000", "112830.825000", "112830.827000", "112830.830000", "112830.833000", "112830.835000", "112830.838000", "112830.840000", "112910.767000", "112910.770000", "112910.773000", "112910.775000", "112910.778000", "112910.780000", "112910.783000", "112910.785000", "112910.788000", "112910.790000", "112910.793000", "112910.795000", "112910.798000", "112910.800000", "112910.803000", "112910.805000", "112910.808000", "112910.810000", "112910.813000", "112910.815000", "112950.768000", "112950.771000", "112950.774000", "112950.776000", "112950.779000", "112950.781000", "112950.784000", "112950.786000", "112950.789000", "112950.791000", "112950.794000", "112950.796000", "112950.799000", "112950.801000", "112950.804000", "112950.806000", "112950.809000", "112950.811000", "112950.814000", "112950.816000", "113030.768000", "113030.770000", "113030.773000", "113030.775000", "113030.778000", "113030.780000", "113030.783000", "113030.785000", "113030.788000", "113030.790000", "113030.793000", "113030.795000", "113030.798000", "113030.800000", "113030.803000", "113030.805000", "113030.808000", "113030.810000", "113030.813000", "113030.815000", "113110.767000", "113110.770000", "113110.773000", "113110.775000", "113110.778000", "113110.780000", "113110.783000", "113110.785000", "113110.788000", "113110.790000", "113110.793000", "113110.795000", "113110.798000", "113110.800000", "113110.803000", "113110.805000", "113110.808000", "113110.810000", "113110.813000", "113110.815000", "113150.769000", "113150.771000", "113150.774000", "113150.776000", "113150.779000", "113150.782000", "113150.784000", "113150.787000", "113150.789000", "113150.791000", "113150.794000", "113150.796000", "113150.799000", "113150.801000", "113150.804000", "113150.806000", "113150.809000", "113150.811000", "113150.814000", "113150.816000", "113230.768000", "113230.771000", "113230.774000", "113230.776000", "113230.779000", "113230.781000", "113230.784000", "113230.786000", "113230.789000", "113230.791000", "113230.794000", "113230.796000", "113230.799000", "113230.801000", "113230.804000", "113230.806000", "113230.809000", "113230.812000", "113230.814000", "113230.817000", "113310.767000", "113310.770000", "113310.773000", "113310.775000", "113310.778000", "113310.780000", "113310.783000", "113310.786000", "113310.788000", "113310.791000", "113310.793000", "113310.796000", "113310.798000", "113310.801000", "113310.803000", "113310.806000", "113310.808000", "113310.811000", "113310.813000", "113310.815000", "113350.768000", "113350.770000", "113350.773000", "113350.775000", "113350.778000", "113350.780000", "113350.783000", "113350.785000", "113350.788000", "113350.790000", "113350.793000", "113350.796000", "113350.798000", "113350.801000", "113350.803000", "113350.805000", "113350.808000", "113350.810000", "113350.813000", "113350.815000", "113419.321000", "113419.324000", "113419.326000", "113419.329000", "113419.331000", "113419.334000", "113419.337000", "113419.339000", "113419.342000", "113419.344000", "113419.347000", "113419.349000", "113419.362000", "113419.366000", "113419.372000"],
      "InstanceNumber": [1, 2, 3, 4, 5, 6, 7, 8, 9, 10, 11, 12, 13, 14, 15, 16, 17, 18, 19, 20, 21, 22, 23, 24, 25, 26, 27, 28, 29, 30, 31, 32, 33, 34, 35, 36, 37, 38, 39, 40, 41, 42, 43, 44, 45, 46, 47, 48, 49, 50, 51, 52, 53, 54, 55, 56, 57, 58, 59, 60, 61, 62, 63, 64, 65, 66, 67, 68, 69, 70, 71, 72, 73, 74, 75, 76, 77, 78, 79, 80, 81, 82, 83, 84, 85, 86, 87, 88, 89, 90, 91, 92, 93, 94, 95, 96, 97, 98, 99, 100, 101, 102, 103, 104, 105, 106, 107, 108, 109, 110, 111, 112, 113, 114, 115, 116, 117, 118, 119, 120, 121, 122, 123, 124, 125, 126, 127, 128, 129, 130, 131, 132, 133, 134, 135, 136, 137, 138, 139, 140, 141, 142, 143, 144, 145, 146, 147, 148, 149, 150, 151, 152, 153, 154, 155, 156, 157, 158, 159, 160, 161, 162, 163, 164, 165, 166, 167, 168, 169, 170, 171, 172, 173, 174, 175, 176, 177, 178, 179, 180, 181, 182, 183, 184, 185, 186, 187, 188, 189, 190, 191, 192, 193, 194, 195, 196, 197, 198, 199, 200],
      "LargestImagePixelValue": [2360, 2361, 2362, 2359, 2360, 2359, 2363, 2359, 2362, 2361, 2361, 2361, 2361, 2361, 2357, 2359, 2358, 2358, 2359, 2360, 2359, 2360, 2359, 2360, 2356, 2356, 2356, 2355, 2361, 2357, 2357, 2356, 2356, 2355, 2356, 2357, 2359, 2360, 2357, 2356, 2355, 2356, 2356, 2359, 2357, 2358, 2358, 2358, 2358, 2359, 2357, 2358, 2358, 2356, 2358, 2357, 2356, 2357, 2359, 2356, 2355, 2358, 2354, 2358, 2358, 2358, 2360, 2357, 2358, 2359, 2359, 2359, 2357, 2360, 2359, 2359, 2359, 2359, 2358, 2358, 2358, 2358, 2361, 2359, 2359, 2359, 2359, 2358, 2359, 2359, 2359, 2357, 2359, 2358, 2357, 2357, 2358, 2361, 2357, 2359, 2358, 2358, 2358, 2358, 2359, 2356, 2360, 2360, 2357, 2358, 2357, 2358, 2360, 2357, 2359, 2358, 2358, 2361, 2359, 2360, 2359, 2359, 2360, 2359, 2359, 2359, 2360, 2359, 2359, 2357, 2357, 2359, 2357, 2358, 2357, 2358, 2357, 2356, 2357, 2357, 2357, 2357, 2360, 2356, 2358, 2358, 2360, 2356, 2359, 2359, 2357, 2357, 2359, 2357, 2359, 2358, 2357, 2358, 2359, 2358, 2358, 2358, 2359, 2359, 2357, 2360, 2356, 2359, 2356, 2355, 2354, 2355, 2357, 2357, 2358, 2354, 2354, 2357, 2355, 2356, 2357, 2356, 2357, 2357, 2358, 2356, 2355, 2357, 2358, 2356, 2355, 2354, 2356, 2356, 2355, 2357, 2357, 2355, 2358, 2356],
      "WindowCenter": [1036.0, 1036.0, 1036.0, 1035.0, 1036.0, 1035.0, 1036.0, 1036.0, 1035.0, 1035.0, 1035.0, 1035.0, 1035.0, 1035.0, 1035.0, 1035.0, 1035.0, 1035.0, 1035.0, 1035.0, 1035.0, 1035.0, 1035.0, 1035.0, 1035.0, 1035.0, 1035.0, 1035.0, 1035.0, 1035.0, 1035.0, 1035.0, 1035.0, 1035.0, 1035.0, 1035.0, 1035.0, 1035.0, 1035.0, 1035.0, 1035.0, 1035.0, 1035.0, 1035.0, 1035.0, 1035.0, 1035.0, 1036.0, 1035.0, 1035.0, 1035.0, 1035.0, 1035.0, 1035.0, 1035.0, 1035.0, 1035.0, 1035.0, 1035.0, 1035.0, 1035.0, 1034.0, 1035.0, 1034.0, 1035.0, 1035.0, 1035.0, 1035.0, 1035.0, 1035.0, 1035.0, 1035.0, 1035.0, 1035.0, 1035.0, 1036.0, 1035.0, 1035.0, 1035.0, 1035.0, 1035.0, 1035.0, 1035.0, 1035.0, 1035.0, 1035.0, 1035.0, 1035.0, 1035.0, 1035.0, 1035.0, 1035.0, 1035.0, 1035.0, 1035.0, 1035.0, 1035.0, 1035.0, 1035.0, 1034.0, 1034.0, 1034.0, 1034.0, 1035.0, 1034.0, 1034.0, 1035.0, 1034.0, 1034.0, 1034.0, 1034.0, 1034.0, 1034.0, 1035.0, 1034.0, 1035.0, 1035.0, 1035.0, 1035.0, 1034.0, 1036.0, 1035.0, 1034.0, 1034.0, 1034.0, 1034.0, 1034.0, 1034.0, 1034.0, 1034.0, 1034.0, 1034.0, 1034.0, 1034.0, 1034.0, 1034.0, 1034.0, 1034.0, 1034.0, 1034.0, 1034.0, 1034.0, 1034.0, 1035.0, 1035.0, 1034.0, 1034.0, 1034.0, 1034.0, 1034.0, 1034.0, 1034.0, 1035.0, 1034.0, 1034.0, 1034.0, 1034.0, 1034.0, 1034.0, 1034.0, 1034.0, 1034.0, 1034.0, 1034.0, 1034.0, 1034.0, 1034.0, 1034.0, 1034.0, 1034.0, 1034.0, 1034.0, 1034.0, 1034.0, 1034.0, 1034.0, 1035.0, 1034.0, 1034.0, 1034.0, 1034.0, 1034.0, 1034.0, 1034.0, 1034.0, 1034.0, 1034.0, 1034.0, 1034.0, 1034.0, 1034.0, 1034.0, 1034.0, 1034.0, 1034.0, 1034.0, 1034.0, 1034.0, 1034.0, 1034.0],
      "WindowWidth": [2331.0, 2332.0, 2331.0, 2331.0, 2331.0, 2331.0, 2332.0, 2331.0, 2331.0, 2331.0, 2331.0, 2331.0, 2331.0, 2331.0, 2331.0, 2331.0, 2331.0, 2331.0, 2331.0, 2331.0, 2331.0, 2330.0, 2330.0, 2330.0, 2330.0, 2330.0, 2330.0, 2330.0, 2331.0, 2330.0, 2330.0, 2330.0, 2330.0, 2330.0, 2330.0, 2330.0, 2330.0, 2329.0, 2329.0, 2330.0, 2330.0, 2330.0, 2330.0, 2330.0, 2330.0, 2330.0, 2330.0, 2331.0, 2330.0, 2330.0, 2330.0, 2330.0, 2330.0, 2330.0, 2330.0, 2330.0, 2330.0, 2330.0, 2330.0, 2330.0, 2330.0, 2330.0, 2330.0, 2330.0, 2329.0, 2330.0, 2330.0, 2330.0, 2330.0, 2330.0, 2330.0, 2330.0, 2331.0, 2330.0, 2330.0, 2331.0, 2330.0, 2330.0, 2330.0, 2330.0, 2330.0, 2330.0, 2330.0, 2330.0, 2330.0, 2330.0, 2330.0, 2330.0, 2330.0, 2330.0, 2330.0, 2330.0, 2330.0, 2330.0, 2330.0, 2330.0, 2330.0, 2330.0, 2330.0, 2330.0, 2330.0, 2330.0, 2330.0, 2330.0, 2330.0, 2330.0, 2330.0, 2330.0, 2330.0, 2330.0, 2330.0, 2330.0, 2330.0, 2330.0, 2330.0, 2330.0, 2330.0, 2330.0, 2330.0, 2330.0, 2331.0, 2330.0, 2330.0, 2330.0, 2330.0, 2330.0, 2330.0, 2330.0, 2330.0, 2330.0, 2330.0, 2330.0, 2330.0, 2330.0, 2330.0, 2330.0, 2330.0, 2330.0, 2330.0, 2330.0, 2330.0, 2330.0, 2330.0, 2330.0, 2330.0, 2330.0, 2330.0, 2330.0, 2330.0, 2330.0, 2329.0, 2330.0, 2330.0, 2330.0, 2330.0, 2330.0, 2330.0, 2330.0, 2330.0, 2330.0, 2330.0, 2330.0, 2330.0, 2330.0, 2330.0, 2330.0, 2330.0, 2330.0, 2330.0, 2330.0, 2329.0, 2329.0, 2330.0, 2329.0, 2329.0, 2329.0, 2330.0, 2329.0, 2329.0, 2329.0, 2329.0, 2330.0, 2329.0, 2329.0, 2329.0, 2329.0, 2329.0, 2329.0, 2329.0, 2329.0, 2329.0, 2329.0, 2329.0, 2329.0, 2329.0, 2330.0, 2329.0, 2329.0, 2329.0, 2329.0]
    },
    "slices": {}
  }
}