{
  "AcquisitionMatrixPE": 80,
  "AcquisitionNumber": 1,
  "AcquisitionTime": "11:20:50.247500",
  "BandwidthPerPixelPhaseEncode": 44.643,
  "BaseResolution": 80,
  "BodyPartExamined": "BRAIN",
  "CoilCombinationMethod": "Sum of Squares",
  "ConsistencyInfo": "N4_VE11C_LATEST_20160120",
  "ConversionSoftware": "dcm2niix",
  "ConversionSoftwareVersion": "v1.0.20220720",
  "DerivedVendorReportedEchoSpacing": 0.000559998,
  "DeviceSerialNumber": "66112",
  "DwellTime": 2.7e-06,
  "EchoTime": 0.035,
  "EchoTrainLength": 39,
  "EffectiveEchoSpacing": 0.000279999,
  "FlipAngle": 90,
  "HeudiconvVersion": "0.13.1",
  "ImageOrientationPatientDICOM": [0.990986, -0.133895, 0.00428734, 0.126069, 0.942937, 0.308184],
  "ImageOrientationText": "Tra>Cor(17.8)>Sag(2.6)",
  "ImageType": [
    "ORIGINAL",
    "PRIMARY",
    "M",
    "ND",
    "NORM",
    "MOSAIC"
],
  "ImagingFrequency": 123.252,
  "InPlanePhaseEncodingDirectionDICOM": "COL",
  "InstitutionAddress": "Maynard 3,Hanover,NH,US,03755",
  "InstitutionName": "Dartmouth College - PBS",
  "InstitutionalDepartmentName": "Department",
  "MRAcquisitionType": "2D",
  "MagneticFieldStrength": 3,
  "Manufacturer": "Siemens",
  "ManufacturersModelName": "Prisma",
  "Modality": "MR",
  "MultibandAccelerationFactor": 4,
  "NonlinearGradientCorrection": false,
  "ParallelReductionFactorInPlane": 2,
  "PartialFourier": 1,
  "PatientPosition": "HFS",
  "PercentPhaseFOV": 100,
  "PercentSampling": 100,
  "PhaseEncodingDirection": "j-",
  "PhaseEncodingSteps": 79,
  "PhaseResolution": 1,
  "PixelBandwidth": 2315,
  "ProcedureStepDescription": "dbic^QA",
  "ProtocolName": "func-bold_task-rest_acq-p2-s4-3.5mm",
  "PulseSequenceDetails": "%SiemensSeq%\\ep2d_bold",
  "ReceiveCoilActiveElements": "HEA;HEP",
  "ReceiveCoilName": "Head_32",
  "ReconMatrixPE": 80,
  "RefLinesPE": 24,
  "RepetitionTime": 2,
  "SAR": 0.0178407,
  "ScanOptions": "FS",
  "ScanningSequence": "EP",
  "SequenceName": "*epfid2d1_80",
  "SequenceVariant": "SK",
  "SeriesDescription": "func-bold_task-rest_acq-p2-s4-3.5mm",
  "SeriesNumber": 7,
  "ShimSetting": [4152, -7697, -7523, 269, -47, -130, -23, 131],
  "SliceThickness": 3.5,
  "SliceTiming": [1.485, 0, 0.99, 0.2475, 1.2375, 0.7425, 1.7325, 0.495, 1.485, 0, 0.99, 0.2475, 1.2375, 0.7425, 1.7325, 0.495, 1.485, 0, 0.99, 0.2475, 1.2375, 0.7425, 1.7325, 0.495, 1.485, 0, 0.99, 0.2475, 1.2375, 0.7425, 1.7325, 0.495],
  "SoftwareVersions": "syngo MR E11",
  "SpacingBetweenSlices": 3.99,
  "StationName": "AWP66112",
  "TaskName": "rest",
  "TotalReadoutTime": 0.0221199,
  "TxRefAmp": 221.329,
  "dcmmeta_affine": [
    [-2.97295880317688, 0.37820807099342346, 0.18077446520328522, 102.52278137207031],
    [0.40168437361717224, 2.8288097381591797, 1.2164125442504883, -148.29684448242188],
    [0.012862022034823895, -0.9245510697364807, 3.795755624771118, -26.657665252685547],
    [0.0, 0.0, 0.0, 1.0]
],
  "dcmmeta_reorient_transform": [
    [0.0, -1.0, 0.0, 79.0],
    [1.0, 0.0, 0.0, 0.0],
    [0.0, 0.0, 1.0, 0.0],
    [0.0, 0.0, 0.0, 1.0]
],
  "dcmmeta_shape": [80, 80, 32, 200],
  "dcmmeta_slice_dim": 2,
  "dcmmeta_version": 0.6,
  "global": {
    "const": {
      "AccessionNumber": "qa",
      "AcquisitionMatrix": [80, 0, 0, 80],
      "AngioFlag": "N",
      "BitsAllocated": 16,
      "BitsStored": 12,
      "BodyPartExamined": "BRAIN",
      "Columns": 480,
      "EchoNumbers": 1,
      "EchoTime": 35.0,
      "EchoTrainLength": 39,
      "FlipAngle": 90.0,
      "HighBit": 11,
      "ImageOrientationPatient": [0.99098627807029, -0.1338947922251, 0.00428734083213, 0.12606935842117, 0.94293654526843, 0.30818369272969],
      "ImagePositionPatient": [-802.63460398632, -560.60416695806, -287.17982012887],
      "ImageType": [
        "ORIGINAL",
        "PRIMARY",
        "M",
        "ND",
        "NORM",
        "MOSAIC"
],
      "ImagedNucleus": "1H",
      "ImagingFrequency": 123.252353,
      "InPlanePhaseEncodingDirection": "COL",
      "MRAcquisitionType": "2D",
      "MagneticFieldStrength": 3.0,
      "Manufacturer": "SIEMENS",
      "ManufacturerModelName": "Prisma",
      "Modality": "MR",
      "NumberOfAverages": 1.0,
      "NumberOfPhaseEncodingSteps": 79,
      "PercentPhaseFieldOfView": 100.0,
      "PercentSampling": 100.0,
      "PerformedProcedureStepStartTime": "111009.628000",
      "PhotometricInterpretation": "MONOCHROME2",
      "PixelBandwidth": 2315.0,
      "PixelRepresentation": 0,
      "PixelSpacing": [3.0, 3.0],
      "ProtocolName": "func-bold_task-rest_acq-p2-s4-3.5mm",
      "RepetitionTime": 2000.0,
      "Rows": 480,
      "SAR": 0.01784071339769,
      "SamplesPerPixel": 1,
      "ScanOptions": "FS",
      "ScanningSequence": "EP",
      "SequenceName": "*epfid2d1_80",
      "SequenceVariant": "SK",
      "SeriesDescription": "func-bold_task-rest_acq-p2-s4-3.5mm",
      "SeriesNumber": 7,
      "SeriesTime": "112130.699000",
      "SliceLocation": -65.925471301474,
      "SliceThickness": 3.5,
      "SmallestImagePixelValue": 0,
      "SoftwareVersions": "syngo MR E11",
      "SpacingBetweenSlices": 3.9900000500783,
      "SpecificCharacterSet": "ISO_IR 100",
      "StudyID": "27",
      "StudyTime": "111009.587000",
      "TransmitCoilName": "Body",
      "VariableFlipAngleFlag": "N",
      "WindowCenterWidthExplanation": "Algo1",
      "dBdt": 0.0},
    "slices": {}
  },
  "time": {
    "samples": {
      "AcquisitionNumber": [1, 2, 3, 4, 5, 6, 7, 8, 9, 10, 11, 12, 13, 14, 15, 16, 17, 18, 19, 20, 21, 22, 23, 24, 25, 26, 27, 28, 29, 30, 31, 32, 33, 34, 35, 36, 37, 38, 39, 40, 41, 42, 43, 44, 45, 46, 47, 48, 49, 50, 51, 52, 53, 54, 55, 56, 57, 58, 59, 60, 61, 62, 63, 64, 65, 66, 67, 68, 69, 70, 71, 72, 73, 74, 75, 76, 77, 78, 79, 80, 81, 82, 83, 84, 85, 86, 87, 88, 89, 90, 91, 92, 93, 94, 95, 96, 97, 98, 99, 100, 101, 102, 103, 104, 105, 106, 107, 108, 109, 110, 111, 112, 113, 114, 115, 116, 117, 118, 119, 120, 121, 122, 123, 124, 125, 126, 127, 128, 129, 130, 131, 132, 133, 134, 135, 136, 137, 138, 139, 140, 141, 142, 143, 144, 145, 146, 147, 148, 149, 150, 151, 152, 153, 154, 155, 156, 157, 158, 159, 160, 161, 162, 163, 164, 165, 166, 167, 168, 169, 170, 171, 172, 173, 174, 175, 176, 177, 178, 179, 180, 181, 182, 183, 184, 185, 186, 187, 188, 189, 190, 191, 192, 193, 194, 195, 196, 197, 198, 199, 200],
      "AcquisitionTime": ["112050.247500", "112052.247500", "112054.247500", "112056.247500", "112058.247500", "112100.247500", "112102.247500", "112104.247500", "112106.247500", "112108.247500", "112110.247500", "112112.247500", "112114.247500", "112116.247500", "112118.247500", "112120.247500", "112122.247500", "112124.247500", "112126.247500", "112128.247500", "112130.247500", "112132.247500", "112134.247500", "112136.247500", "112138.247500", "112140.247500", "112142.247500", "112144.247500", "112146.247500", "112148.247500", "112150.247500", "112152.247500", "112154.247500", "112156.247500", "112158.247500", "112200.247500", "112202.247500", "112204.247500", "112206.247500", "112208.247500", "112210.247500", "112212.247500", "112214.247500", "112216.247500", "112218.247500", "112220.247500", "112222.247500", "112224.247500", "112226.247500", "112228.247500", "112230.247500", "112232.247500", "112234.247500", "112236.247500", "112238.247500", "112240.247500", "112242.247500", "112244.247500", "112246.247500", "112248.247500", "112250.247500", "112252.247500", "112254.247500", "112256.247500", "112258.247500", "112300.247500", "112302.247500", "112304.247500", "112306.247500", "112308.247500", "112310.247500", "112312.247500", "112314.247500", "112316.247500", "112318.247500", "112320.247500", "112322.247500", "112324.247500", "112326.247500", "112328.247500", "112330.247500", "112332.247500", "112334.247500", "112336.247500", "112338.247500", "112340.247500", "112342.247500", "112344.247500", "112346.247500", "112348.247500", "112350.247500", "112352.247500", "112354.247500", "112356.247500", "112358.247500", "112400.247500", "112402.247500", "112404.247500", "112406.247500", "112408.247500", "112410.247500", "112412.247500", "112414.247500", "112416.247500", "112418.247500", "112420.247500", "112422.247500", "112424.247500", "112426.247500", "112428.247500", "112430.247500", "112432.247500", "112434.247500", "112436.247500", "112438.247500", "112440.247500", "112442.247500", "112444.247500", "112446.247500", "112448.247500", "112450.247500", "112452.247500", "112454.247500", "112456.247500", "112458.247500", "112500.247500", "112502.247500", "112504.247500", "112506.247500", "112508.247500", "112510.247500", "112512.247500", "112514.247500", "112516.247500", "112518.247500", "112520.247500", "112522.247500", "112524.247500", "112526.247500", "112528.247500", "112530.247500", "112532.247500", "112534.247500", "112536.247500", "112538.247500", "112540.247500", "112542.247500", "112544.247500", "112546.247500", "112548.247500", "112550.247500", "112552.247500", "112554.247500", "112556.247500", "112558.247500", "112600.247500", "112602.247500", "112604.247500", "112606.247500", "112608.247500", "112610.247500", "112612.247500", "112614.247500", "112616.247500", "112618.247500", "112620.247500", "112622.247500", "112624.247500", "112626.247500", "112628.247500", "112630.247500", "112632.247500", "112634.247500", "112636.247500", "112638.247500", "112640.247500", "112642.247500", "112644.247500", "112646.247500", "112648.247500", "112650.247500", "112652.247500", "112654.247500", "112656.247500", "112658.247500", "112700.247500", "112702.247500", "112704.247500", "112706.247500", "112708.247500", "112710.247500", "112712.247500", "112714.247500", "112716.247500", "112718.247500", "112720.247500", "112722.247500", "112724.247500", "112726.247500", "112728.247500"],
      "ContentTime": ["112130.702000", "112130.706000", "112130.708000", "112130.711000", "112130.713000", "112130.716000", "112130.718000", "112130.721000", "112130.723000", "112130.726000", "112130.728000", "112130.731000", "112130.733000", "112130.736000", "112130.738000", "112130.747000", "112130.750000", "112130.752000", "112130.755000", "112130.757000", "112210.697000", "112210.700000", "112210.703000", "112210.705000", "112210.708000", "112210.710000", "112210.713000", "112210.716000", "112210.718000", "112210.721000", "112210.723000", "112210.726000", "112210.728000", "112210.731000", "112210.733000", "112210.736000", "112210.738000", "112210.741000", "112210.743000", "112210.746000", "112250.698000", "112250.701000", "112250.704000", "112250.706000", "112250.709000", "112250.711000", "112250.714000", "112250.716000", "112250.719000", "112250.722000", "112250.724000", "112250.727000", "112250.733000", "112250.736000", "112250.738000", "112250.741000", "112250.743000", "112250.746000", "112250.748000", "112250.751000", "112330.697000", "112330.700000", "112330.703000", "112330.705000", "112330.708000", "112330.711000", "112330.713000", "112330.716000", "112330.718000", "112330.721000", "112330.723000", "112330.726000", "112330.728000", "112330.731000", "112330.733000", "112330.736000", "112330.738000", "112330.741000", "112330.743000", "112330.746000", "112410.697000", "112410.700000", "112410.703000", "112410.705000", "112410.708000", "112410.710000", "112410.713000", "112410.723000", "112410.725000", "112410.728000", "112410.730000", "112410.733000", "112410.735000", "112410.738000", "112410.740000", "112410.743000", "112410.746000", "112410.748000", "112410.751000", "112410.753000", "112450.698000", "112450.701000", "112450.704000", "112450.706000", "112450.709000", "112450.711000", "112450.714000", "112450.717000", "112450.719000", "112450.722000", "112450.724000", "112450.727000", "112450.729000", "112450.732000", "112450.734000", "112450.737000", "112450.739000", "112450.742000", "112450.744000", "112450.747000", "112530.699000", "112530.701000", "112530.704000", "112530.706000", "112530.709000", "112530.711000", "112530.714000", "112530.717000", "112530.719000", "112530.722000", "112530.724000", "112530.727000", "112530.729000", "112530.732000", "112530.734000", "112530.737000", "112530.739000", "112530.742000", "112530.744000", "112530.747000", "112610.697000", "112610.700000", "112610.703000", "112610.705000", "112610.708000", "112610.710000", "112610.713000", "112610.715000", "112610.718000", "112610.721000", "112610.723000", "112610.726000", "112610.728000", "112610.731000", "112610.733000", "112610.736000", "112610.738000", "112610.741000", "112610.743000", "112610.746000", "112650.697000", "112650.700000", "112650.703000", "112650.705000", "112650.708000", "112650.710000", "112650.713000", "112650.716000", "112650.718000", "112650.721000", "112650.723000", "112650.726000", "112650.728000", "112650.731000", "112650.733000", "112650.736000", "112650.738000", "112650.741000", "112650.743000", "112650.746000", "112728.998000", "112729.002000", "112729.004000", "112729.007000", "112729.010000", "112729.012000", "112729.015000", "112729.017000", "112729.020000", "112729.022000", "112729.025000", "112729.028000", "112729.035000", "112729.040000", "112729.046000", "112729.051000", "112729.055000", "112729.058000", "112729.061000", "112729.065000"],
      "InstanceCreationTime": ["112130.702000", "112130.706000", "112130.708000", "112130.711000", "112130.713000", "112130.716000", "112130.718000", "112130.721000", "112130.723000", "112130.726000", "112130.728000", "112130.731000", "112130.733000", "112130.736000", "112130.738000", "112130.747000", "112130.750000", "112130.752000", "112130.755000", "112130.757000", "112210.697000", "112210.700000", "112210.703000", "112210.705000", "112210.708000", "112210.710000", "112210.713000", "112210.716000", "112210.718000", "112210.721000", "112210.723000", "112210.726000", "112210.728000", "112210.731000", "112210.733000", "112210.736000", "112210.738000", "112210.741000", "112210.743000", "112210.746000", "112250.698000", "112250.701000", "112250.704000", "112250.706000", "112250.709000", "112250.711000", "112250.714000", "112250.716000", "112250.719000", "112250.722000", "112250.724000", "112250.727000", "112250.733000", "112250.736000", "112250.738000", "112250.741000", "112250.743000", "112250.746000", "112250.748000", "112250.751000", "112330.697000", "112330.700000", "112330.703000", "112330.705000", "112330.708000", "112330.711000", "112330.713000", "112330.716000", "112330.718000", "112330.721000", "112330.723000", "112330.726000", "112330.728000", "112330.731000", "112330.733000", "112330.736000", "112330.738000", "112330.741000", "112330.743000", "112330.746000", "112410.697000", "112410.700000", "112410.703000", "112410.705000", "112410.708000", "112410.710000", "112410.713000", "112410.723000", "112410.725000", "112410.728000", "112410.730000", "112410.733000", "112410.735000", "112410.738000", "112410.740000", "112410.743000", "112410.746000", "112410.748000", "112410.751000", "112410.753000", "112450.698000", "112450.701000", "112450.704000", "112450.706000", "112450.709000", "112450.711000", "112450.714000", "112450.717000", "112450.719000", "112450.722000", "112450.724000", "112450.727000", "112450.729000", "112450.732000", "112450.734000", "112450.737000", "112450.739000", "112450.742000", "112450.744000", "112450.747000", "112530.699000", "112530.701000", "112530.704000", "112530.706000", "112530.709000", "112530.711000", "112530.714000", "112530.717000", "112530.719000", "112530.722000", "112530.724000", "112530.727000", "112530.729000", "112530.732000", "112530.734000", "112530.737000", "112530.739000", "112530.742000", "112530.744000", "112530.747000", "112610.697000", "112610.700000", "112610.703000", "112610.705000", "112610.708000", "112610.710000", "112610.713000", "112610.715000", "112610.718000", "112610.721000", "112610.723000", "112610.726000", "112610.728000", "112610.731000", "112610.733000", "112610.736000", "112610.738000", "112610.741000", "112610.743000", "112610.746000", "112650.697000", "112650.700000", "112650.703000", "112650.705000", "112650.708000", "112650.710000", "112650.713000", "112650.716000", "112650.718000", "112650.721000", "112650.723000", "112650.726000", "112650.728000", "112650.731000", "112650.733000", "112650.736000", "112650.738000", "112650.741000", "112650.743000", "112650.746000", "112728.998000", "112729.002000", "112729.004000", "112729.007000", "112729.010000", "112729.012000", "112729.015000", "112729.017000", "112729.020000", "112729.022000", "112729.025000", "112729.028000", "112729.035000", "112729.040000", "112729.046000", "112729.051000", "112729.055000", "112729.058000", "112729.061000", "112729.065000"],
      "InstanceNumber": [1, 2, 3, 4, 5, 6, 7, 8, 9, 10, 11, 12, 13, 14, 15, 16, 17, 18, 19, 20, 21, 22, 23, 24, 25, 26, 27, 28, 29, 30, 31, 32, 33, 34, 35, 36, 37, 38, 39, 40, 41, 42, 43, 44, 45, 46, 47, 48, 49, 50, 51, 52, 53, 54, 55, 56, 57, 58, 59, 60, 61, 62, 63, 64, 65, 66, 67, 68, 69, 70, 71, 72, 73, 74, 75, 76, 77, 78, 79, 80, 81, 82, 83, 84, 85, 86, 87, 88, 89, 90, 91, 92, 93, 94, 95, 96, 97, 98, 99, 100, 101, 102, 103, 104, 105, 106, 107, 108, 109, 110, 111, 112, 113, 114, 115, 116, 117, 118, 119, 120, 121, 122, 123, 124, 125, 126, 127, 128, 129, 130, 131, 132, 133, 134, 135, 136, 137, 138, 139, 140, 141, 142, 143, 144, 145, 146, 147, 148, 149, 150, 151, 152, 153, 154, 155, 156, 157, 158, 159, 160, 161, 162, 163, 164, 165, 166, 167, 168, 169, 170, 171, 172, 173, 174, 175, 176, 177, 178, 179, 180, 181, 182, 183, 184, 185, 186, 187, 188, 189, 190, 191, 192, 193, 194, 195, 196, 197, 198, 199, 200],
      "LargestImagePixelValue": [2321, 2322, 2321, 2322, 2325, 2324, 2326, 2324, 2322, 2323, 2323, 2320, 2325, 2323, 2324, 2324, 2322, 2325, 2324, 2324, 2323, 2323, 2324, 2324, 2328, 2324, 2321, 2323, 2325, 2322, 2324, 2330, 2322, 2323, 2324, 2327, 2324, 2326, 2325, 2322, 2325, 2323, 2329, 2323, 2326, 2325, 2323, 2327, 2326, 2324, 2325, 2323, 2321, 2327, 2326, 2324, 2324, 2323, 2324, 2323, 2325, 2325, 2325, 2328, 2326, 2321, 2325, 2325, 2322, 2326, 2329, 2323, 2327, 2324, 2322, 2329, 2325, 2321, 2327, 2325, 2326, 2323, 2327, 2324, 2321, 2326, 2323, 2326, 2324, 2326, 2326, 2329, 2327, 2323, 2327, 2326, 2328, 2323, 2327, 2326, 2323, 2329, 2329, 2324, 2323, 2325, 2324, 2325, 2323, 2326, 2326, 2324, 2327, 2330, 2327, 2322, 2322, 2323, 2322, 2325, 2326, 2325, 2325, 2327, 2326, 2325, 2326, 2332, 2323, 2324, 2326, 2328, 2321, 2326, 2326, 2329, 2324, 2327, 2325, 2326, 2325, 2324, 2321, 2328, 2327, 2329, 2325, 2324, 2326, 2329, 2328, 2328, 2325, 2326, 2327, 2325, 2327, 2331, 2327, 2329, 2325, 2324, 2327, 2325, 2325, 2326, 2325, 2328, 2326, 2325, 2327, 2328, 2328, 2324, 2324, 2329, 2325, 2323, 2326, 2324, 2327, 2327, 2327, 2326, 2325, 2326, 2326, 2326, 2326, 2325, 2323, 2319, 2323, 2327, 2329, 2328, 2325, 2323, 2322, 2328],
      "WindowCenter": [973.0, 973.0, 972.0, 972.0, 972.0, 973.0, 973.0, 972.0, 973.0, 973.0, 972.0, 972.0, 972.0, 972.0, 972.0, 973.0, 973.0, 973.0, 973.0, 972.0, 972.0, 972.0, 972.0, 972.0, 972.0, 972.0, 972.0, 972.0, 972.0, 972.0, 972.0, 972.0, 972.0, 972.0, 973.0, 973.0, 972.0, 973.0, 973.0, 973.0, 972.0, 972.0, 972.0, 973.0, 972.0, 973.0, 972.0, 973.0, 973.0, 973.0, 972.0, 973.0, 973.0, 973.0, 973.0, 973.0, 973.0, 972.0, 972.0, 973.0, 972.0, 972.0, 973.0, 972.0, 972.0, 972.0, 973.0, 973.0, 972.0, 973.0, 973.0, 973.0, 973.0, 973.0, 973.0, 973.0, 973.0, 973.0, 973.0, 973.0, 973.0, 972.0, 973.0, 973.0, 973.0, 972.0, 972.0, 973.0, 973.0, 973.0, 973.0, 973.0, 973.0, 972.0, 973.0, 973.0, 973.0, 973.0, 973.0, 973.0, 973.0, 973.0, 972.0, 973.0, 972.0, 973.0, 973.0, 973.0, 973.0, 973.0, 973.0, 973.0, 973.0, 973.0, 973.0, 973.0, 973.0, 973.0, 973.0, 972.0, 973.0, 973.0, 973.0, 973.0, 973.0, 973.0, 973.0, 973.0, 973.0, 973.0, 973.0, 973.0, 973.0, 973.0, 973.0, 973.0, 973.0, 973.0, 973.0, 973.0, 973.0, 973.0, 973.0, 973.0, 973.0, 973.0, 973.0, 973.0, 973.0, 973.0, 973.0, 973.0, 973.0, 973.0, 973.0, 973.0, 973.0, 972.0, 973.0, 973.0, 973.0, 972.0, 973.0, 973.0, 973.0, 973.0, 973.0, 972.0, 973.0, 973.0, 973.0, 973.0, 973.0, 973.0, 973.0, 973.0, 973.0, 973.0, 973.0, 972.0, 973.0, 973.0, 973.0, 973.0, 972.0, 972.0, 973.0, 972.0, 972.0, 973.0, 972.0, 973.0, 972.0, 972.0, 973.0, 972.0, 972.0, 972.0, 972.0, 973.0],
      "WindowWidth": [2290.0, 2290.0, 2290.0, 2290.0, 2290.0, 2290.0, 2290.0, 2290.0, 2290.0, 2290.0, 2290.0, 2290.0, 2290.0, 2290.0, 2290.0, 2290.0, 2290.0, 2290.0, 2290.0, 2290.0, 2290.0, 2290.0, 2290.0, 2290.0, 2290.0, 2290.0, 2290.0, 2290.0, 2290.0, 2290.0, 2290.0, 2290.0, 2290.0, 2290.0, 2290.0, 2290.0, 2290.0, 2290.0, 2290.0, 2290.0, 2290.0, 2290.0, 2290.0, 2290.0, 2290.0, 2290.0, 2290.0, 2290.0, 2290.0, 2290.0, 2290.0, 2290.0, 2290.0, 2290.0, 2290.0, 2290.0, 2290.0, 2290.0, 2290.0, 2290.0, 2290.0, 2290.0, 2290.0, 2290.0, 2290.0, 2290.0, 2290.0, 2290.0, 2290.0, 2290.0, 2290.0, 2290.0, 2290.0, 2290.0, 2290.0, 2290.0, 2290.0, 2290.0, 2290.0, 2290.0, 2290.0, 2290.0, 2290.0, 2290.0, 2290.0, 2290.0, 2290.0, 2290.0, 2290.0, 2290.0, 2290.0, 2290.0, 2290.0, 2290.0, 2290.0, 2290.0, 2290.0, 2290.0, 2290.0, 2290.0, 2290.0, 2290.0, 2290.0, 2290.0, 2290.0, 2290.0, 2290.0, 2290.0, 2290.0, 2290.0, 2290.0, 2290.0, 2290.0, 2290.0, 2290.0, 2290.0, 2290.0, 2290.0, 2290.0, 2290.0, 2290.0, 2290.0, 2290.0, 2290.0, 2290.0, 2290.0, 2290.0, 2290.0, 2290.0, 2290.0, 2290.0, 2290.0, 2290.0, 2290.0, 2290.0, 2290.0, 2290.0, 2290.0, 2290.0, 2290.0, 2290.0, 2290.0, 2290.0, 2290.0, 2290.0, 2290.0, 2290.0, 2290.0, 2290.0, 2290.0, 2290.0, 2290.0, 2290.0, 2290.0, 2290.0, 2290.0, 2290.0, 2290.0, 2290.0, 2290.0, 2290.0, 2290.0, 2290.0, 2290.0, 2290.0, 2290.0, 2290.0, 2290.0, 2290.0, 2290.0, 2290.0, 2290.0, 2290.0, 2290.0, 2290.0, 2290.0, 2290.0, 2290.0, 2290.0, 2290.0, 2290.0, 2290.0, 2289.0, 2290.0, 2290.0, 2290.0, 2290.0, 2290.0, 2290.0, 2289.0, 2290.0, 2289.0, 2290.0, 2290.0, 2290.0, 2290.0, 2290.0, 2289.0, 2289.0, 2290.0]
    },
    "slices": {}
  }
}