{
  "AcquisitionMatrixPE": 80,
  "AcquisitionNumber": 1,
  "AcquisitionTime": "09:45:38.420000",
  "BandwidthPerPixelPhaseEncode": 25,
  "BaseResolution": 80,
  "BodyPartExamined": "BRAIN",
  "CoilCombinationMethod": "Sum of Squares",
  "ConsistencyInfo": "N4_VE11E_LATEST_20181129",
  "ConversionSoftware": "dcm2niix",
  "ConversionSoftwareVersion": "v1.0.20220720",
  "DerivedVendorReportedEchoSpacing": 0.0005,
  "DeviceSerialNumber": "66112",
  "DwellTime": 2.7e-06,
  "EchoTime": 0.03,
  "EchoTrainLength": 80,
  "EffectiveEchoSpacing": 0.0005,
  "FlipAngle": 77,
  "HeudiconvVersion": "0.13.1",
  "ImageOrientationPatientDICOM": [0.996487, -0.0836339, 0.00445874, 0.0784253, 0.950462, 0.300784],
  "ImageOrientationText": "Tra>Cor(17.4)>Sag(1.7)",
  "ImageType": [
    "ORIGINAL",
    "PRIMARY",
    "M",
    "ND",
    "NORM",
    "MOSAIC"
],
  "ImagingFrequency": 123.261,
  "InPlanePhaseEncodingDirectionDICOM": "COL",
  "InstitutionAddress": "Maynard 3,Hanover,NH,US,03755",
  "InstitutionName": "Dartmouth College - PBS",
  "InstitutionalDepartmentName": "Department",
  "MRAcquisitionType": "2D",
  "MagneticFieldStrength": 3,
  "Manufacturer": "Siemens",
  "ManufacturersModelName": "Prisma",
  "MatrixCoilMode": "SENSE",
  "Modality": "MR",
  "NonlinearGradientCorrection": false,
  "PartialFourier": 1,
  "PatientPosition": "HFS",
  "PercentPhaseFOV": 100,
  "PercentSampling": 100,
  "PhaseEncodingDirection": "j-",
  "PhaseEncodingSteps": 80,
  "PhaseResolution": 1,
  "PixelBandwidth": 2315,
  "ProcedureStepDescription": "dbic^QA",
  "ProtocolName": "func-bold_fa-77",
  "PulseSequenceDetails": "%SiemensSeq%\\ep2d_bold",
  "ReceiveCoilActiveElements": "HEA;HEP",
  "ReceiveCoilName": "Head_32",
  "ReconMatrixPE": 80,
  "RepetitionTime": 2,
  "SAR": 0.0367754,
  "ScanOptions": "FS",
  "ScanningSequence": "EP",
  "SequenceName": "*epfid2d1_80",
  "SequenceVariant": "SK",
  "SeriesDescription": "func-bold_fa-77",
  "SeriesNumber": 7,
  "ShimSetting": [4244, -7733, -7489, -22, -187, -66, -9, 77],
  "SliceThickness": 3.5,
  "SliceTiming": [0.99, 0, 1.0575, 0.0675, 1.1225, 0.1325, 1.1875, 0.1975, 1.255, 0.265, 1.32, 0.33, 1.3875, 0.3975, 1.4525, 0.4625, 1.5175, 0.5275, 1.585, 0.595, 1.65, 0.66, 1.7175, 0.7275, 1.7825, 0.7925, 1.8475, 0.8575, 1.915, 0.925],
  "SoftwareVersions": "syngo MR E11",
  "SpacingBetweenSlices": 3.99,
  "StationName": "AWP66112",
  "TotalReadoutTime": 0.0395,
  "TxRefAmp": 220.43,
  "dcmmeta_affine": [
    [-2.989459753036499, 0.23527579009532928, 0.11728032678365707, 109.90830993652344],
    [0.25090160965919495, 2.8513870239257812, 1.1945148706436157, -138.13343811035156],
    [0.013376228511333466, -0.902350902557373, 3.8051910400390625, -20.44976234436035],
    [0.0, 0.0, 0.0, 1.0]
],
  "dcmmeta_reorient_transform": [
    [0.0, -1.0, 0.0, 79.0],
    [1.0, 0.0, 0.0, 0.0],
    [0.0, 0.0, 1.0, 0.0],
    [0.0, 0.0, 0.0, 1.0]
],
  "dcmmeta_shape": [80, 80, 30, 200],
  "dcmmeta_slice_dim": 2,
  "dcmmeta_version": 0.6,
  "global": {
    "const": {
      "AccessionNumber": "qa",
      "AcquisitionMatrix": [80, 0, 0, 80],
      "AngioFlag": "N",
      "BitsAllocated": 16,
      "BitsStored": 12,
      "BodyPartExamined": "BRAIN",
      "Columns": 480,
      "EchoNumbers": 1,
      "EchoTime": 30.0,
      "EchoTrainLength": 80,
      "FlipAngle": 77.0,
      "HighBit": 11,
      "ImageOrientationPatient": [0.99648657598646, -0.0836338656925, 0.00445874288467, 0.07842526498037, 0.95046235171076, 0.30078363617926],
      "ImagePositionPatient": [-773.44220268952, -607.22322608915, -274.88091246216],
      "ImageType": [
        "ORIGINAL",
        "PRIMARY",
        "M",
        "ND",
        "NORM",
        "MOSAIC"
],
      "ImagedNucleus": "1H",
      "ImagingFrequency": 123.261225,
      "InPlanePhaseEncodingDirection": "COL",
      "MRAcquisitionType": "2D",
      "MagneticFieldStrength": 3.0,
      "Manufacturer": "SIEMENS",
      "ManufacturerModelName": "Prisma",
      "Modality": "MR",
      "NumberOfAverages": 1.0,
      "NumberOfPhaseEncodingSteps": 80,
      "PercentPhaseFieldOfView": 100.0,
      "PercentSampling": 100.0,
      "PerformedProcedureStepStartTime": "092410.729000",
      "PhotometricInterpretation": "MONOCHROME2",
      "PixelBandwidth": 2315.0,
      "PixelRepresentation": 0,
      "PixelSpacing": [3.0, 3.0],
      "ProtocolName": "func-bold_fa-77",
      "RepetitionTime": 2000.0,
      "Rows": 480,
      "SAR": 0.03677535406309,
      "SamplesPerPixel": 1,
      "ScanOptions": "FS",
      "ScanningSequence": "EP",
      "SequenceName": "*epfid2d1_80",
      "SequenceVariant": "SK",
      "SeriesDescription": "func-bold_fa-77",
      "SeriesNumber": 7,
      "SeriesTime": "094621.017000",
      "SliceLocation": -57.625973908197,
      "SliceThickness": 3.5,
      "SmallestImagePixelValue": 0,
      "SoftwareVersions": "syngo MR E11",
      "SpacingBetweenSlices": 3.9899999193046,
      "SpecificCharacterSet": "ISO_IR 100",
      "StudyID": "48",
      "StudyTime": "092410.661000",
      "TransmitCoilName": "Body",
      "VariableFlipAngleFlag": "N",
      "WindowCenterWidthExplanation": "Algo1"
    },
    "slices": {}
  },
  "time": {
    "samples": {
      "AcquisitionNumber": [1, 2, 3, 4, 5, 6, 7, 8, 9, 10, 11, 12, 13, 14, 15, 16, 17, 18, 19, 20, 21, 22, 23, 24, 25, 26, 27, 28, 29, 30, 31, 32, 33, 34, 35, 36, 37, 38, 39, 40, 41, 42, 43, 44, 45, 46, 47, 48, 49, 50, 51, 52, 53, 54, 55, 56, 57, 58, 59, 60, 61, 62, 63, 64, 65, 66, 67, 68, 69, 70, 71, 72, 73, 74, 75, 76, 77, 78, 79, 80, 81, 82, 83, 84, 85, 86, 87, 88, 89, 90, 91, 92, 93, 94, 95, 96, 97, 98, 99, 100, 101, 102, 103, 104, 105, 106, 107, 108, 109, 110, 111, 112, 113, 114, 115, 116, 117, 118, 119, 120, 121, 122, 123, 124, 125, 126, 127, 128, 129, 130, 131, 132, 133, 134, 135, 136, 137, 138, 139, 140, 141, 142, 143, 144, 145, 146, 147, 148, 149, 150, 151, 152, 153, 154, 155, 156, 157, 158, 159, 160, 161, 162, 163, 164, 165, 166, 167, 168, 169, 170, 171, 172, 173, 174, 175, 176, 177, 178, 179, 180, 181, 182, 183, 184, 185, 186, 187, 188, 189, 190, 191, 192, 193, 194, 195, 196, 197, 198, 199, 200],
      "AcquisitionTime": ["094538.420000", "094540.420000", "094542.420000", "094544.420000", "094546.420000", "094548.420000", "094550.420000", "094552.420000", "094554.420000", "094556.420000", "094558.420000", "094600.420000", "094602.420000", "094604.420000", "094606.420000", "094608.420000", "094610.420000", "094612.420000", "094614.420000", "094616.420000", "094618.420000", "094620.420000", "094622.420000", "094624.420000", "094626.420000", "094628.420000", "094630.420000", "094632.420000", "094634.420000", "094636.420000", "094638.420000", "094640.420000", "094642.420000", "094644.420000", "094646.420000", "094648.420000", "094650.420000", "094652.420000", "094654.420000", "094656.420000", "094658.420000", "094700.420000", "094702.420000", "094704.420000", "094706.420000", "094708.420000", "094710.420000", "094712.420000", "094714.420000", "094716.420000", "094718.420000", "094720.420000", "094722.420000", "094724.420000", "094726.420000", "094728.420000", "094730.420000", "094732.420000", "094734.420000", "094736.420000", "094738.420000", "094740.420000", "094742.420000", "094744.420000", "094746.420000", "094748.420000", "094750.420000", "094752.420000", "094754.420000", "094756.420000", "094758.420000", "094800.420000", "094802.420000", "094804.420000", "094806.420000", "094808.420000", "094810.420000", "094812.420000", "094814.420000", "094816.420000", "094818.420000", "094820.420000", "094822.420000", "094824.420000", "094826.420000", "094828.420000", "094830.420000", "094832.420000", "094834.420000", "094836.420000", "094838.420000", "094840.420000", "094842.420000", "094844.420000", "094846.420000", "094848.420000", "094850.420000", "094852.420000", "094854.420000", "094856.420000", "094858.420000", "094900.420000", "094902.420000", "094904.420000", "094906.420000", "094908.420000", "094910.420000", "094912.420000", "094914.420000", "094916.420000", "094918.420000", "094920.420000", "094922.420000", "094924.420000", "094926.420000", "094928.420000", "094930.420000", "094932.420000", "094934.420000", "094936.420000", "094938.420000", "094940.420000", "094942.420000", "094944.420000", "094946.420000", "094948.420000", "094950.420000", "094952.420000", "094954.420000", "094956.420000", "094958.420000", "095000.420000", "095002.420000", "095004.420000", "095006.420000", "095008.420000", "095010.420000", "095012.420000", "095014.420000", "095016.420000", "095018.420000", "095020.420000", "095022.420000", "095024.420000", "095026.420000", "095028.420000", "095030.420000", "095032.420000", "095034.420000", "095036.420000", "095038.420000", "095040.420000", "095042.420000", "095044.420000", "095046.420000", "095048.420000", "095050.420000", "095052.420000", "095054.420000", "095056.420000", "095058.420000", "095100.420000", "095102.420000", "095104.420000", "095106.420000", "095108.420000", "095110.420000", "095112.420000", "095114.420000", "095116.420000", "095118.420000", "095120.420000", "095122.420000", "095124.420000", "095126.420000", "095128.420000", "095130.420000", "095132.420000", "095134.420000", "095136.420000", "095138.420000", "095140.420000", "095142.420000", "095144.420000", "095146.420000", "095148.420000", "095150.420000", "095152.420000", "095154.420000", "095156.420000", "095158.420000", "095200.420000", "095202.420000", "095204.420000", "095206.420000", "095208.420000", "095210.420000", "095212.420000", "095214.420000", "095216.420000"],
      "ContentTime": ["094621.020000", "094621.033000", "094621.035000", "094621.038000", "094621.040000", "094621.044000", "094621.046000", "094621.049000", "094621.051000", "094621.053000", "094621.056000", "094621.058000", "094621.060000", "094621.063000", "094621.065000", "094621.067000", "094621.070000", "094621.076000", "094621.079000", "094621.081000", "094621.083000", "094701.015000", "094701.018000", "094701.020000", "094701.022000", "094701.025000", "094701.027000", "094701.029000", "094701.031000", "094701.034000", "094701.036000", "094701.038000", "094701.041000", "094701.043000", "094701.045000", "094701.048000", "094701.050000", "094701.052000", "094701.054000", "094701.058000", "094701.060000", "094741.015000", "094741.018000", "094741.021000", "094741.023000", "094741.025000", "094741.028000", "094741.030000", "094741.032000", "094741.034000", "094741.037000", "094741.047000", "094741.050000", "094741.053000", "094741.055000", "094741.057000", "094741.060000", "094741.062000", "094741.064000", "094741.067000", "094741.069000", "094821.015000", "094821.018000", "094821.020000", "094821.022000", "094821.025000", "094821.027000", "094821.029000", "094821.032000", "094821.034000", "094821.036000", "094821.039000", "094821.041000", "094821.043000", "094821.045000", "094821.048000", "094821.050000", "094821.052000", "094821.055000", "094821.057000", "094821.059000", "094901.015000", "094901.018000", "094901.020000", "094901.022000", "094901.025000", "094901.027000", "094901.029000", "094901.032000", "094901.034000", "094901.036000", "094901.039000", "094901.041000", "094901.043000", "094901.045000", "094901.048000", "094901.050000", "094901.052000", "094901.055000", "094901.057000", "094901.059000", "094941.015000", "094941.018000", "094941.020000", "094941.022000", "094941.025000", "094941.027000", "094941.029000", "094941.032000", "094941.034000", "094941.036000", "094941.049000", "094941.051000", "094941.053000", "094941.056000", "094941.058000", "094941.060000", "094941.063000", "094941.065000", "094941.068000", "094941.070000", "095001.016000", "095001.019000", "095001.021000", "095001.023000", "095001.026000", "095001.028000", "095001.030000", "095001.033000", "095001.035000", "095001.037000", "095041.015000", "095041.018000", "095041.020000", "095041.022000", "095041.025000", "095041.027000", "095041.030000", "095041.032000", "095041.034000", "095041.037000", "095041.039000", "095041.041000", "095041.043000", "095041.046000", "095041.048000", "095041.050000", "095041.053000", "095041.055000", "095041.057000", "095041.060000", "095121.015000", "095121.018000", "095121.020000", "095121.022000", "095121.025000", "095121.027000", "095121.029000", "095121.032000", "095121.034000", "095121.036000", "095121.039000", "095121.041000", "095121.043000", "095121.046000", "095121.048000", "095121.050000", "095121.053000", "095121.055000", "095121.057000", "095121.059000", "095201.015000", "095201.018000", "095201.020000", "095201.022000", "095201.025000", "095201.027000", "095201.029000", "095201.032000", "095201.034000", "095201.036000", "095201.039000", "095201.041000", "095201.043000", "095201.045000", "095201.048000", "095201.050000", "095201.052000", "095201.055000", "095201.057000", "095201.059000", "095218.034000", "095218.037000", "095218.040000", "095218.042000", "095218.044000", "095218.047000", "095218.050000", "095218.053000", "095218.055000"],
      "InstanceCreationTime": ["094621.020000", "094621.033000", "094621.035000", "094621.038000", "094621.040000", "094621.044000", "094621.046000", "094621.049000", "094621.051000", "094621.053000", "094621.056000", "094621.058000", "094621.060000", "094621.063000", "094621.065000", "094621.067000", "094621.070000", "094621.076000", "094621.079000", "094621.081000", "094621.083000", "094701.015000", "094701.018000", "094701.020000", "094701.022000", "094701.025000", "094701.027000", "094701.029000", "094701.031000", "094701.034000", "094701.036000", "094701.038000", "094701.041000", "094701.043000", "094701.045000", "094701.048000", "094701.050000", "094701.052000", "094701.054000", "094701.058000", "094701.060000", "094741.015000", "094741.018000", "094741.021000", "094741.023000", "094741.025000", "094741.028000", "094741.030000", "094741.032000", "094741.034000", "094741.037000", "094741.047000", "094741.050000", "094741.053000", "094741.055000", "094741.057000", "094741.060000", "094741.062000", "094741.064000", "094741.067000", "094741.069000", "094821.015000", "094821.018000", "094821.020000", "094821.022000", "094821.025000", "094821.027000", "094821.029000", "094821.032000", "094821.034000", "094821.036000", "094821.039000", "094821.041000", "094821.043000", "094821.045000", "094821.048000", "094821.050000", "094821.052000", "094821.055000", "094821.057000", "094821.059000", "094901.015000", "094901.018000", "094901.020000", "094901.022000", "094901.025000", "094901.027000", "094901.029000", "094901.032000", "094901.034000", "094901.036000", "094901.039000", "094901.041000", "094901.043000", "094901.045000", "094901.048000", "094901.050000", "094901.052000", "094901.055000", "094901.057000", "094901.059000", "094941.015000", "094941.018000", "094941.020000", "094941.022000", "094941.025000", "094941.027000", "094941.029000", "094941.032000", "094941.034000", "094941.036000", "094941.049000", "094941.051000", "094941.053000", "094941.056000", "094941.058000", "094941.060000", "094941.063000", "094941.065000", "094941.068000", "094941.070000", "095001.016000", "095001.019000", "095001.021000", "095001.023000", "095001.026000", "095001.028000", "095001.030000", "095001.033000", "095001.035000", "095001.037000", "095041.015000", "095041.018000", "095041.020000", "095041.022000", "095041.025000", "095041.027000", "095041.030000", "095041.032000", "095041.034000", "095041.037000", "095041.039000", "095041.041000", "095041.043000", "095041.046000", "095041.048000", "095041.050000", "095041.053000", "095041.055000", "095041.057000", "095041.060000", "095121.015000", "095121.018000", "095121.020000", "095121.022000", "095121.025000", "095121.027000", "095121.029000", "095121.032000", "095121.034000", "095121.036000", "095121.039000", "095121.041000", "095121.043000", "095121.046000", "095121.048000", "095121.050000", "095121.053000", "095121.055000", "095121.057000", "095121.059000", "095201.015000", "095201.018000", "095201.020000", "095201.022000", "095201.025000", "095201.027000", "095201.029000", "095201.032000", "095201.034000", "095201.036000", "095201.039000", "095201.041000", "095201.043000", "095201.045000", "095201.048000", "095201.050000", "095201.052000", "095201.055000", "095201.057000", "095201.059000", "095218.034000", "095218.037000", "095218.040000", "095218.042000", "095218.044000", "095218.047000", "095218.050000", "095218.053000", "095218.055000"],
      "InstanceNumber": [1, 2, 3, 4, 5, 6, 7, 8, 9, 10, 11, 12, 13, 14, 15, 16, 17, 18, 19, 20, 21, 22, 23, 24, 25, 26, 27, 28, 29, 30, 31, 32, 33, 34, 35, 36, 37, 38, 39, 40, 41, 42, 43, 44, 45, 46, 47, 48, 49, 50, 51, 52, 53, 54, 55, 56, 57, 58, 59, 60, 61, 62, 63, 64, 65, 66, 67, 68, 69, 70, 71, 72, 73, 74, 75, 76, 77, 78, 79, 80, 81, 82, 83, 84, 85, 86, 87, 88, 89, 90, 91, 92, 93, 94, 95, 96, 97, 98, 99, 100, 101, 102, 103, 104, 105, 106, 107, 108, 109, 110, 111, 112, 113, 114, 115, 116, 117, 118, 119, 120, 121, 122, 123, 124, 125, 126, 127, 128, 129, 130, 131, 132, 133, 134, 135, 136, 137, 138, 139, 140, 141, 142, 143, 144, 145, 146, 147, 148, 149, 150, 151, 152, 153, 154, 155, 156, 157, 158, 159, 160, 161, 162, 163, 164, 165, 166, 167, 168, 169, 170, 171, 172, 173, 174, 175, 176, 177, 178, 179, 180, 181, 182, 183, 184, 185, 186, 187, 188, 189, 190, 191, 192, 193, 194, 195, 196, 197, 198, 199, 200],
      "LargestImagePixelValue": [2198, 2201, 2203, 2200, 2199, 2204, 2205, 2204, 2205, 2204, 2202, 2204, 2202, 2203, 2202, 2204, 2203, 2202, 2204, 2201, 2204, 2202, 2203, 2202, 2203, 2204, 2203, 2201, 2200, 2200, 2197, 2199, 2202, 2201, 2203, 2196, 2200, 2201, 2199, 2201, 2201, 2198, 2199, 2200, 2200, 2203, 2201, 2202, 2201, 2201, 2206, 2203, 2203, 2202, 2202, 2203, 2203, 2200, 2201, 2201, 2201, 2201, 2203, 2200, 2201, 2200, 2199, 2202, 2203, 2201, 2201, 2203, 2202, 2201, 2204, 2201, 2205, 2202, 2202, 2202, 2199, 2200, 2199, 2201, 2198, 2202, 2200, 2200, 2198, 2199, 2202, 2201, 2204, 2202, 2203, 2200, 2199, 2200, 2200, 2200, 2199, 2199, 2200, 2199, 2198, 2198, 2200, 2199, 2198, 2201, 2199, 2199, 2200, 2199, 2198, 2199, 2197, 2198, 2200, 2198, 2201, 2199, 2199, 2200, 2198, 2199, 2200, 2199, 2201, 2200, 2198, 2198, 2200, 2197, 2199, 2197, 2199, 2196, 2196, 2197, 2197, 2196, 2200, 2199, 2197, 2200, 2201, 2199, 2196, 2198, 2197, 2197, 2197, 2199, 2199, 2195, 2196, 2196, 2197, 2197, 2197, 2198, 2196, 2197, 2196, 2198, 2200, 2197, 2199, 2199, 2198, 2197, 2197, 2198, 2196, 2197, 2198, 2195, 2195, 2196, 2196, 2195, 2194, 2196, 2197, 2198, 2195, 2196, 2192, 2196, 2197, 2197, 2197, 2198, 2199, 2198, 2199, 2197, 2201, 2199],
      "WindowCenter": [1027.0, 1028.0, 1027.0, 1027.0, 1026.0, 1027.0, 1028.0, 1026.0, 1027.0, 1028.0, 1027.0, 1026.0, 1027.0, 1026.0, 1026.0, 1027.0, 1028.0, 1027.0, 1027.0, 1027.0, 1026.0, 1027.0, 1026.0, 1028.0, 1026.0, 1027.0, 1027.0, 1027.0, 1027.0, 1027.0, 1026.0, 1027.0, 1026.0, 1026.0, 1026.0, 1026.0, 1026.0, 1026.0, 1026.0, 1025.0, 1026.0, 1026.0, 1025.0, 1026.0, 1026.0, 1026.0, 1026.0, 1025.0, 1026.0, 1025.0, 1026.0, 1025.0, 1026.0, 1026.0, 1026.0, 1026.0, 1026.0, 1026.0, 1026.0, 1026.0, 1026.0, 1026.0, 1027.0, 1025.0, 1025.0, 1025.0, 1026.0, 1025.0, 1026.0, 1027.0, 1026.0, 1025.0, 1026.0, 1026.0, 1025.0, 1026.0, 1026.0, 1025.0, 1026.0, 1025.0, 1026.0, 1025.0, 1025.0, 1025.0, 1027.0, 1027.0, 1025.0, 1026.0, 1025.0, 1026.0, 1025.0, 1026.0, 1026.0, 1026.0, 1026.0, 1025.0, 1026.0, 1025.0, 1026.0, 1026.0, 1027.0, 1026.0, 1027.0, 1025.0, 1026.0, 1026.0, 1026.0, 1026.0, 1026.0, 1025.0, 1025.0, 1026.0, 1026.0, 1026.0, 1025.0, 1025.0, 1025.0, 1026.0, 1026.0, 1025.0, 1025.0, 1025.0, 1025.0, 1025.0, 1026.0, 1026.0, 1026.0, 1026.0, 1026.0, 1026.0, 1025.0, 1026.0, 1025.0, 1026.0, 1025.0, 1025.0, 1026.0, 1024.0, 1025.0, 1024.0, 1025.0, 1025.0, 1024.0, 1025.0, 1024.0, 1025.0, 1026.0, 1025.0, 1026.0, 1025.0, 1025.0, 1025.0, 1025.0, 1024.0, 1024.0, 1025.0, 1025.0, 1024.0, 1025.0, 1025.0, 1025.0, 1024.0, 1024.0, 1025.0, 1024.0, 1024.0, 1024.0, 1025.0, 1025.0, 1024.0, 1026.0, 1025.0, 1025.0, 1024.0, 1024.0, 1025.0, 1025.0, 1025.0, 1024.0, 1025.0, 1025.0, 1025.0, 1024.0, 1025.0, 1025.0, 1025.0, 1025.0, 1026.0, 1025.0, 1025.0, 1025.0, 1025.0, 1025.0, 1025.0, 1025.0, 1024.0, 1024.0, 1024.0, 1025.0, 1024.0],
      "WindowWidth": [2304.0, 2305.0, 2305.0, 2305.0, 2304.0, 2305.0, 2305.0, 2304.0, 2305.0, 2305.0, 2304.0, 2303.0, 2305.0, 2304.0, 2304.0, 2304.0, 2305.0, 2305.0, 2304.0, 2304.0, 2304.0, 2304.0, 2304.0, 2305.0, 2304.0, 2304.0, 2304.0, 2304.0, 2304.0, 2304.0, 2303.0, 2305.0, 2303.0, 2304.0, 2304.0, 2304.0, 2304.0, 2304.0, 2304.0, 2303.0, 2304.0, 2304.0, 2303.0, 2304.0, 2304.0, 2304.0, 2304.0, 2303.0, 2304.0, 2303.0, 2304.0, 2303.0, 2304.0, 2304.0, 2304.0, 2304.0, 2304.0, 2304.0, 2304.0, 2303.0, 2304.0, 2304.0, 2304.0, 2303.0, 2303.0, 2303.0, 2303.0, 2303.0, 2303.0, 2304.0, 2303.0, 2303.0, 2303.0, 2303.0, 2303.0, 2303.0, 2303.0, 2303.0, 2303.0, 2303.0, 2303.0, 2303.0, 2302.0, 2302.0, 2304.0, 2304.0, 2302.0, 2303.0, 2302.0, 2303.0, 2302.0, 2303.0, 2303.0, 2303.0, 2303.0, 2302.0, 2303.0, 2302.0, 2303.0, 2303.0, 2304.0, 2303.0, 2304.0, 2302.0, 2303.0, 2303.0, 2303.0, 2303.0, 2304.0, 2302.0, 2302.0, 2302.0, 2303.0, 2302.0, 2302.0, 2303.0, 2302.0, 2302.0, 2302.0, 2303.0, 2302.0, 2302.0, 2302.0, 2303.0, 2302.0, 2302.0, 2302.0, 2302.0, 2302.0, 2303.0, 2303.0, 2303.0, 2301.0, 2303.0, 2302.0, 2301.0, 2303.0, 2301.0, 2302.0, 2301.0, 2302.0, 2302.0, 2301.0, 2302.0, 2301.0, 2302.0, 2303.0, 2302.0, 2303.0, 2302.0, 2302.0, 2302.0, 2302.0, 2301.0, 2301.0, 2302.0, 2302.0, 2301.0, 2302.0, 2302.0, 2302.0, 2301.0, 2301.0, 2302.0, 2301.0, 2301.0, 2301.0, 2302.0, 2302.0, 2301.0, 2303.0, 2302.0, 2302.0, 2301.0, 2301.0, 2302.0, 2302.0, 2302.0, 2301.0, 2301.0, 2302.0, 2302.0, 2301.0, 2302.0, 2302.0, 2302.0, 2302.0, 2302.0, 2301.0, 2301.0, 2301.0, 2302.0, 2302.0, 2302.0, 2302.0, 2301.0, 2301.0, 2301.0, 2302.0, 2301.0]
    },
    "slices": {}
  }
}