{
  "AcquisitionMatrixPE": 80,
  "AcquisitionNumber": 1,
  "AcquisitionTime": "09:46:57.780000",
  "BandwidthPerPixelPhaseEncode": 48.077,
  "BaseResolution": 80,
  "BodyPartExamined": "BRAIN",
  "CoilCombinationMethod": "Sum of Squares",
  "ConsistencyInfo": "N4_VE11E_LATEST_20181129",
  "ConversionSoftware": "dcm2niix",
  "ConversionSoftwareVersion": "v1.0.20220720",
  "DerivedVendorReportedEchoSpacing": 0.000519999,
  "DeviceSerialNumber": "66112",
  "DwellTime": 2.7e-06,
  "EchoTime": 0.035,
  "EchoTrainLength": 39,
  "EffectiveEchoSpacing": 0.00026,
  "FlipAngle": 90,
  "HeudiconvVersion": "0.13.1",
  "ImageOrientationPatientDICOM": [0.993496, -0.113689, 0.00640983, 0.105823, 0.942616, 0.316663],
  "ImageOrientationText": "Tra>Cor(18.3)>Sag(2.4)",
  "ImageType": [
    "ORIGINAL",
    "PRIMARY",
    "M",
    "ND",
    "NORM",
    "MOSAIC"
],
  "ImagingFrequency": 123.259,
  "InPlanePhaseEncodingDirectionDICOM": "COL",
  "InstitutionAddress": "Maynard 3,Hanover,NH,US,03755",
  "InstitutionName": "Dartmouth College - PBS",
  "InstitutionalDepartmentName": "Department",
  "MRAcquisitionType": "2D",
  "MagneticFieldStrength": 3,
  "Manufacturer": "Siemens",
  "ManufacturersModelName": "Prisma",
  "MatrixCoilMode": "GRAPPA",
  "Modality": "MR",
  "NonlinearGradientCorrection": false,
  "ParallelReductionFactorInPlane": 2,
  "PartialFourier": 1,
  "PatientPosition": "HFS",
  "PercentPhaseFOV": 100,
  "PercentSampling": 100,
  "PhaseEncodingDirection": "j-",
  "PhaseEncodingSteps": 79,
  "PhaseResolution": 1,
  "PixelBandwidth": 2315,
  "ProcedureStepDescription": "dbic^QA",
  "ProtocolName": "func-bold_task-rest_acq-p2",
  "PulseSequenceDetails": "%SiemensSeq%\\ep2d_bold",
  "ReceiveCoilActiveElements": "HEA;HEP",
  "ReceiveCoilName": "Head_32",
  "ReconMatrixPE": 80,
  "RefLinesPE": 24,
  "RepetitionTime": 2,
  "SAR": 0.0814633,
  "ScanOptions": "FS",
  "ScanningSequence": "EP",
  "SequenceName": "*epfid2d1_80",
  "SequenceVariant": "SK",
  "SeriesDescription": "func-bold_task-rest_acq-p2",
  "SeriesNumber": 5,
  "ShimSetting": [4218, -7744, -7483, 14, -138, -25, -5, 62],
  "SliceThickness": 3.5,
  "SliceTiming": [0.99, 0, 1.055, 0.065, 1.1225, 0.1325, 1.1875, 0.1975, 1.255, 0.265, 1.32, 0.33, 1.385, 0.395, 1.4525, 0.4625, 1.5175, 0.5275, 1.585, 0.595, 1.65, 0.66, 1.715, 0.725, 1.7825, 0.7925, 1.8475, 0.8575, 1.915, 0.925],
  "SoftwareVersions": "syngo MR E11",
  "SpacingBetweenSlices": 3.99,
  "StationName": "AWP66112",
  "TaskName": "rest",
  "TotalReadoutTime": 0.02054,
  "TxRefAmp": 230.805,
  "dcmmeta_affine": [
    [-2.98048734664917, 0.31746992468833923, 0.16775165498256683, 105.4827880859375],
    [0.3410658836364746, 2.8278493881225586, 1.2525618076324463, -143.06005859375],
    [0.019229499623179436, -0.9499896764755249, 3.7845804691314697, -10.162738800048828],
    [0.0, 0.0, 0.0, 1.0]
],
  "dcmmeta_reorient_transform": [
    [0.0, -1.0, 0.0, 79.0],
    [1.0, 0.0, 0.0, 0.0],
    [0.0, 0.0, 1.0, 0.0],
    [0.0, 0.0, 0.0, 1.0]
],
  "dcmmeta_shape": [80, 80, 30, 200],
  "dcmmeta_slice_dim": 2,
  "dcmmeta_version": 0.6,
  "global": {
    "const": {
      "AccessionNumber": "qa",
      "AcquisitionMatrix": [80, 0, 0, 80],
      "AngioFlag": "N",
      "BitsAllocated": 16,
      "BitsStored": 12,
      "BodyPartExamined": "BRAIN",
      "Columns": 480,
      "EchoNumbers": 1,
      "EchoTime": 35.0,
      "EchoTrainLength": 39,
      "FlipAngle": 90.0,
      "HighBit": 11,
      "ImageOrientationPatient": [0.99349575281969, -0.1136886237542, 0.00640983292334, 0.10582331269371, 0.94261647801959, 0.31666323098282],
      "ImagePositionPatient": [-790.15435092606, -577.69675509855, -279.05576320848],
      "ImageType": [
        "ORIGINAL",
        "PRIMARY",
        "M",
        "ND",
        "NORM",
        "MOSAIC"
],
      "ImagedNucleus": "1H",
      "ImagingFrequency": 123.259173,
      "InPlanePhaseEncodingDirection": "COL",
      "MRAcquisitionType": "2D",
      "MagneticFieldStrength": 3.0,
      "Manufacturer": "SIEMENS",
      "ManufacturerModelName": "Prisma",
      "Modality": "MR",
      "NumberOfAverages": 1.0,
      "NumberOfPhaseEncodingSteps": 79,
      "PercentPhaseFieldOfView": 100.0,
      "PercentSampling": 100.0,
      "PerformedProcedureStepStartTime": "094213.366000",
      "PhotometricInterpretation": "MONOCHROME2",
      "PixelBandwidth": 2315.0,
      "PixelRepresentation": 0,
      "PixelSpacing": [3.0, 3.0],
      "ProtocolName": "func-bold_task-rest_acq-p2",
      "RepetitionTime": 2000.0,
      "Rows": 480,
      "SAR": 0.08146331901236,
      "SamplesPerPixel": 1,
      "ScanOptions": "FS",
      "ScanningSequence": "EP",
      "SequenceName": "*epfid2d1_80",
      "SequenceVariant": "SK",
      "SeriesDescription": "func-bold_task-rest_acq-p2",
      "SeriesNumber": 5,
      "SeriesTime": "094738.956000",
      "SliceLocation": -50.114877602858,
      "SliceThickness": 3.5,
      "SmallestImagePixelValue": 0,
      "SoftwareVersions": "syngo MR E11",
      "SpacingBetweenSlices": 3.9900000344838,
      "SpecificCharacterSet": "ISO_IR 100",
      "StudyID": "37",
      "StudyTime": "094213.299000",
      "TransmitCoilName": "Body",
      "VariableFlipAngleFlag": "N",
      "WindowCenterWidthExplanation": "Algo1"
    },
    "slices": {}
  },
  "time": {
    "samples": {
      "AcquisitionNumber": [1, 2, 3, 4, 5, 6, 7, 8, 9, 10, 11, 12, 13, 14, 15, 16, 17, 18, 19, 20, 21, 22, 23, 24, 25, 26, 27, 28, 29, 30, 31, 32, 33, 34, 35, 36, 37, 38, 39, 40, 41, 42, 43, 44, 45, 46, 47, 48, 49, 50, 51, 52, 53, 54, 55, 56, 57, 58, 59, 60, 61, 62, 63, 64, 65, 66, 67, 68, 69, 70, 71, 72, 73, 74, 75, 76, 77, 78, 79, 80, 81, 82, 83, 84, 85, 86, 87, 88, 89, 90, 91, 92, 93, 94, 95, 96, 97, 98, 99, 100, 101, 102, 103, 104, 105, 106, 107, 108, 109, 110, 111, 112, 113, 114, 115, 116, 117, 118, 119, 120, 121, 122, 123, 124, 125, 126, 127, 128, 129, 130, 131, 132, 133, 134, 135, 136, 137, 138, 139, 140, 141, 142, 143, 144, 145, 146, 147, 148, 149, 150, 151, 152, 153, 154, 155, 156, 157, 158, 159, 160, 161, 162, 163, 164, 165, 166, 167, 168, 169, 170, 171, 172, 173, 174, 175, 176, 177, 178, 179, 180, 181, 182, 183, 184, 185, 186, 187, 188, 189, 190, 191, 192, 193, 194, 195, 196, 197, 198, 199, 200],
      "AcquisitionTime": ["094657.780000", "094659.780000", "094701.780000", "094703.780000", "094705.780000", "094707.780000", "094709.780000", "094711.780000", "094713.780000", "094715.780000", "094717.780000", "094719.780000", "094721.780000", "094723.780000", "094725.780000", "094727.780000", "094729.780000", "094731.780000", "094733.780000", "094735.780000", "094737.780000", "094739.780000", "094741.780000", "094743.780000", "094745.780000", "094747.780000", "094749.780000", "094751.780000", "094753.780000", "094755.780000", "094757.780000", "094759.780000", "094801.780000", "094803.780000", "094805.780000", "094807.780000", "094809.780000", "094811.780000", "094813.780000", "094815.780000", "094817.780000", "094819.780000", "094821.780000", "094823.780000", "094825.780000", "094827.780000", "094829.780000", "094831.780000", "094833.780000", "094835.780000", "094837.780000", "094839.780000", "094841.780000", "094843.780000", "094845.780000", "094847.780000", "094849.780000", "094851.780000", "094853.780000", "094855.780000", "094857.780000", "094859.780000", "094901.780000", "094903.780000", "094905.780000", "094907.780000", "094909.780000", "094911.780000", "094913.780000", "094915.780000", "094917.780000", "094919.780000", "094921.780000", "094923.780000", "094925.780000", "094927.780000", "094929.780000", "094931.780000", "094933.780000", "094935.780000", "094937.780000", "094939.780000", "094941.780000", "094943.780000", "094945.780000", "094947.780000", "094949.780000", "094951.780000", "094953.780000", "094955.780000", "094957.780000", "094959.780000", "095001.780000", "095003.780000", "095005.780000", "095007.780000", "095009.780000", "095011.780000", "095013.780000", "095015.780000", "095017.780000", "095019.780000", "095021.780000", "095023.780000", "095025.780000", "095027.780000", "095029.780000", "095031.780000", "095033.780000", "095035.780000", "095037.780000", "095039.780000", "095041.780000", "095043.780000", "095045.780000", "095047.780000", "095049.780000", "095051.780000", "095053.780000", "095055.780000", "095057.780000", "095059.780000", "095101.780000", "095103.780000", "095105.780000", "095107.780000", "095109.780000", "095111.780000", "095113.780000", "095115.780000", "095117.780000", "095119.780000", "095121.780000", "095123.780000", "095125.780000", "095127.780000", "095129.780000", "095131.780000", "095133.780000", "095135.780000", "095137.780000", "095139.780000", "095141.780000", "095143.780000", "095145.780000", "095147.780000", "095149.780000", "095151.780000", "095153.780000", "095155.780000", "095157.780000", "095159.780000", "095201.780000", "095203.780000", "095205.780000", "095207.780000", "095209.780000", "095211.780000", "095213.780000", "095215.780000", "095217.780000", "095219.780000", "095221.780000", "095223.780000", "095225.780000", "095227.780000", "095229.780000", "095231.780000", "095233.780000", "095235.780000", "095237.780000", "095239.780000", "095241.780000", "095243.780000", "095245.780000", "095247.780000", "095249.780000", "095251.780000", "095253.780000", "095255.780000", "095257.780000", "095259.780000", "095301.780000", "095303.780000", "095305.780000", "095307.780000", "095309.780000", "095311.780000", "095313.780000", "095315.780000", "095317.780000", "095319.780000", "095321.780000", "095323.780000", "095325.780000", "095327.780000", "095329.780000", "095331.780000", "095333.780000", "095335.780000"],
      "ContentTime": ["094738.959000", "094738.962000", "094738.965000", "094738.967000", "094738.978000", "094738.980000", "094738.982000", "094738.985000", "094738.987000", "094738.989000", "094738.992000", "094738.994000", "094739.002000", "094739.009000", "094739.012000", "094739.014000", "094739.016000", "094739.019000", "094739.021000", "094739.023000", "094818.954000", "094818.957000", "094818.959000", "094818.961000", "094818.964000", "094818.966000", "094818.968000", "094818.971000", "094818.973000", "094818.975000", "094818.978000", "094818.980000", "094818.982000", "094818.984000", "094818.987000", "094818.989000", "094818.991000", "094818.994000", "094818.996000", "094818.998000", "094858.954000", "094858.957000", "094858.959000", "094858.962000", "094858.964000", "094858.966000", "094858.969000", "094858.971000", "094858.973000", "094858.981000", "094858.983000", "094858.986000", "094858.988000", "094858.990000", "094858.993000", "094858.995000", "094858.997000", "094858.999000", "094859.002000", "094859.004000", "094938.953000", "094938.957000", "094938.959000", "094938.971000", "094938.974000", "094938.976000", "094938.978000", "094938.981000", "094938.983000", "094938.985000", "094938.987000", "094938.990000", "094938.992000", "094938.994000", "094938.997000", "094938.999000", "094939.001000", "094939.004000", "094939.006000", "094939.008000", "095018.954000", "095018.957000", "095018.959000", "095018.962000", "095018.964000", "095018.966000", "095018.969000", "095018.971000", "095018.973000", "095018.976000", "095018.978000", "095018.980000", "095018.982000", "095018.985000", "095018.987000", "095018.989000", "095018.992000", "095018.994000", "095018.996000", "095018.998000", "095058.954000", "095058.957000", "095058.959000", "095058.961000", "095058.964000", "095058.966000", "095058.968000", "095058.971000", "095058.973000", "095058.975000", "095058.978000", "095058.980000", "095058.982000", "095058.984000", "095058.987000", "095058.989000", "095058.991000", "095058.994000", "095058.996000", "095059.000000", "095138.953000", "095138.956000", "095138.958000", "095138.960000", "095138.963000", "095138.965000", "095138.967000", "095138.970000", "095138.972000", "095138.983000", "095138.985000", "095138.987000", "095138.990000", "095138.992000", "095138.994000", "095138.997000", "095139.000000", "095139.002000", "095139.005000", "095139.007000", "095218.954000", "095218.956000", "095218.959000", "095218.961000", "095218.963000", "095218.966000", "095218.968000", "095218.970000", "095218.973000", "095218.975000", "095218.977000", "095218.980000", "095218.982000", "095218.984000", "095218.987000", "095218.989000", "095218.991000", "095218.994000", "095218.996000", "095218.998000", "095258.954000", "095258.957000", "095258.959000", "095258.961000", "095258.964000", "095258.966000", "095258.968000", "095258.971000", "095258.973000", "095258.975000", "095258.978000", "095258.980000", "095258.982000", "095258.985000", "095258.987000", "095258.989000", "095258.992000", "095258.994000", "095258.996000", "095259.000000", "095337.713000", "095337.715000", "095337.730000", "095337.732000", "095337.735000", "095337.737000", "095337.740000", "095337.747000", "095337.749000", "095337.752000", "095337.754000", "095337.759000", "095337.762000", "095337.766000", "095337.768000", "095337.772000", "095337.775000", "095337.777000", "095337.780000", "095337.782000"],
      "InstanceCreationTime": ["094738.959000", "094738.962000", "094738.965000", "094738.967000", "094738.978000", "094738.980000", "094738.982000", "094738.985000", "094738.987000", "094738.989000", "094738.992000", "094738.994000", "094739.002000", "094739.009000", "094739.012000", "094739.014000", "094739.016000", "094739.019000", "094739.021000", "094739.023000", "094818.954000", "094818.957000", "094818.959000", "094818.961000", "094818.964000", "094818.966000", "094818.968000", "094818.971000", "094818.973000", "094818.975000", "094818.978000", "094818.980000", "094818.982000", "094818.984000", "094818.987000", "094818.989000", "094818.991000", "094818.994000", "094818.996000", "094818.998000", "094858.954000", "094858.957000", "094858.959000", "094858.962000", "094858.964000", "094858.966000", "094858.969000", "094858.971000", "094858.973000", "094858.981000", "094858.983000", "094858.986000", "094858.988000", "094858.990000", "094858.993000", "094858.995000", "094858.997000", "094858.999000", "094859.002000", "094859.004000", "094938.953000", "094938.957000", "094938.959000", "094938.971000", "094938.974000", "094938.976000", "094938.978000", "094938.981000", "094938.983000", "094938.985000", "094938.987000", "094938.990000", "094938.992000", "094938.994000", "094938.997000", "094938.999000", "094939.001000", "094939.004000", "094939.006000", "094939.008000", "095018.954000", "095018.957000", "095018.959000", "095018.962000", "095018.964000", "095018.966000", "095018.969000", "095018.971000", "095018.973000", "095018.976000", "095018.978000", "095018.980000", "095018.982000", "095018.985000", "095018.987000", "095018.989000", "095018.992000", "095018.994000", "095018.996000", "095018.998000", "095058.954000", "095058.957000", "095058.959000", "095058.961000", "095058.964000", "095058.966000", "095058.968000", "095058.971000", "095058.973000", "095058.975000", "095058.978000", "095058.980000", "095058.982000", "095058.984000", "095058.987000", "095058.989000", "095058.991000", "095058.994000", "095058.996000", "095059.000000", "095138.953000", "095138.956000", "095138.958000", "095138.960000", "095138.963000", "095138.965000", "095138.967000", "095138.970000", "095138.972000", "095138.983000", "095138.985000", "095138.987000", "095138.990000", "095138.992000", "095138.994000", "095138.997000", "095139.000000", "095139.002000", "095139.005000", "095139.007000", "095218.954000", "095218.956000", "095218.959000", "095218.961000", "095218.963000", "095218.966000", "095218.968000", "095218.970000", "095218.973000", "095218.975000", "095218.977000", "095218.980000", "095218.982000", "095218.984000", "095218.987000", "095218.989000", "095218.991000", "095218.994000", "095218.996000", "095218.998000", "095258.954000", "095258.957000", "095258.959000", "095258.961000", "095258.964000", "095258.966000", "095258.968000", "095258.971000", "095258.973000", "095258.975000", "095258.978000", "095258.980000", "095258.982000", "095258.985000", "095258.987000", "095258.989000", "095258.992000", "095258.994000", "095258.996000", "095259.000000", "095337.713000", "095337.715000", "095337.730000", "095337.732000", "095337.735000", "095337.737000", "095337.740000", "095337.747000", "095337.749000", "095337.752000", "095337.754000", "095337.759000", "095337.762000", "095337.766000", "095337.768000", "095337.772000", "095337.775000", "095337.777000", "095337.780000", "095337.782000"],
      "InstanceNumber": [1, 2, 3, 4, 5, 6, 7, 8, 9, 10, 11, 12, 13, 14, 15, 16, 17, 18, 19, 20, 21, 22, 23, 24, 25, 26, 27, 28, 29, 30, 31, 32, 33, 34, 35, 36, 37, 38, 39, 40, 41, 42, 43, 44, 45, 46, 47, 48, 49, 50, 51, 52, 53, 54, 55, 56, 57, 58, 59, 60, 61, 62, 63, 64, 65, 66, 67, 68, 69, 70, 71, 72, 73, 74, 75, 76, 77, 78, 79, 80, 81, 82, 83, 84, 85, 86, 87, 88, 89, 90, 91, 92, 93, 94, 95, 96, 97, 98, 99, 100, 101, 102, 103, 104, 105, 106, 107, 108, 109, 110, 111, 112, 113, 114, 115, 116, 117, 118, 119, 120, 121, 122, 123, 124, 125, 126, 127, 128, 129, 130, 131, 132, 133, 134, 135, 136, 137, 138, 139, 140, 141, 142, 143, 144, 145, 146, 147, 148, 149, 150, 151, 152, 153, 154, 155, 156, 157, 158, 159, 160, 161, 162, 163, 164, 165, 166, 167, 168, 169, 170, 171, 172, 173, 174, 175, 176, 177, 178, 179, 180, 181, 182, 183, 184, 185, 186, 187, 188, 189, 190, 191, 192, 193, 194, 195, 196, 197, 198, 199, 200],
      "LargestImagePixelValue": [2232, 2230, 2226, 2231, 2228, 2226, 2232, 2231, 2231, 2229, 2234, 2230, 2228, 2231, 2227, 2232, 2231, 2223, 2230, 2227, 2230, 2233, 2227, 2227, 2227, 2225, 2232, 2227, 2227, 2228, 2228, 2223, 2229, 2225, 2223, 2230, 2227, 2228, 2232, 2227, 2230, 2222, 2227, 2228, 2228, 2222, 2222, 2226, 2227, 2231, 2230, 2223, 2214, 2227, 2224, 2222, 2219, 2219, 2223, 2221, 2222, 2226, 2221, 2223, 2226, 2226, 2228, 2221, 2219, 2227, 2226, 2221, 2225, 2220, 2217, 2225, 2220, 2224, 2218, 2221, 2221, 2226, 2216, 2221, 2223, 2217, 2222, 2217, 2213, 2221, 2223, 2218, 2219, 2218, 2220, 2225, 2223, 2219, 2222, 2219, 2222, 2219, 2226, 2223, 2221, 2222, 2220, 2219, 2221, 2221, 2220, 2221, 2221, 2221, 2223, 2220, 2222, 2215, 2219, 2221, 2223, 2211, 2222, 2214, 2219, 2216, 2219, 2219, 2217, 2219, 2216, 2216, 2213, 2220, 2220, 2215, 2215, 2215, 2218, 2222, 2218, 2219, 2214, 2216, 2222, 2218, 2214, 2222, 2220, 2216, 2214, 2218, 2216, 2217, 2214, 2214, 2217, 2214, 2213, 2211, 2218, 2220, 2222, 2220, 2213, 2223, 2217, 2215, 2212, 2213, 2212, 2215, 2216, 2210, 2219, 2217, 2218, 2216, 2210, 2211, 2211, 2222, 2219, 2213, 2212, 2215, 2215, 2212, 2217, 2213, 2213, 2214, 2217, 2211, 2213, 2214, 2214, 2212, 2210, 2210],
      "WindowCenter": [1041.0, 1040.0, 1040.0, 1040.0, 1040.0, 1040.0, 1040.0, 1040.0, 1040.0, 1040.0, 1040.0, 1040.0, 1040.0, 1040.0, 1040.0, 1040.0, 1040.0, 1040.0, 1040.0, 1040.0, 1040.0, 1040.0, 1040.0, 1040.0, 1040.0, 1040.0, 1040.0, 1040.0, 1040.0, 1040.0, 1040.0, 1040.0, 1040.0, 1040.0, 1040.0, 1040.0, 1040.0, 1040.0, 1040.0, 1040.0, 1040.0, 1040.0, 1040.0, 1039.0, 1039.0, 1039.0, 1039.0, 1039.0, 1040.0, 1039.0, 1039.0, 1039.0, 1039.0, 1039.0, 1039.0, 1039.0, 1039.0, 1039.0, 1039.0, 1039.0, 1039.0, 1039.0, 1039.0, 1039.0, 1039.0, 1039.0, 1039.0, 1039.0, 1039.0, 1039.0, 1039.0, 1039.0, 1039.0, 1039.0, 1039.0, 1039.0, 1039.0, 1039.0, 1039.0, 1039.0, 1039.0, 1039.0, 1039.0, 1039.0, 1039.0, 1039.0, 1039.0, 1039.0, 1039.0, 1039.0, 1039.0, 1039.0, 1039.0, 1039.0, 1039.0, 1039.0, 1039.0, 1039.0, 1039.0, 1039.0, 1039.0, 1039.0, 1039.0, 1039.0, 1039.0, 1039.0, 1039.0, 1039.0, 1039.0, 1039.0, 1039.0, 1039.0, 1039.0, 1039.0, 1039.0, 1039.0, 1039.0, 1039.0, 1039.0, 1039.0, 1039.0, 1039.0, 1039.0, 1038.0, 1038.0, 1038.0, 1038.0, 1038.0, 1038.0, 1038.0, 1038.0, 1039.0, 1038.0, 1038.0, 1038.0, 1038.0, 1038.0, 1038.0, 1038.0, 1038.0, 1038.0, 1038.0, 1038.0, 1038.0, 1038.0, 1038.0, 1038.0, 1038.0, 1038.0, 1038.0, 1038.0, 1038.0, 1038.0, 1038.0, 1038.0, 1038.0, 1038.0, 1038.0, 1038.0, 1038.0, 1038.0, 1038.0, 1038.0, 1038.0, 1038.0, 1038.0, 1038.0, 1038.0, 1038.0, 1038.0, 1038.0, 1038.0, 1038.0, 1038.0, 1038.0, 1038.0, 1038.0, 1038.0, 1038.0, 1038.0, 1038.0, 1038.0, 1038.0, 1038.0, 1038.0, 1038.0, 1038.0, 1038.0, 1038.0, 1038.0, 1038.0, 1038.0, 1038.0, 1038.0, 1038.0, 1038.0, 1038.0, 1038.0, 1038.0, 1038.0],
      "WindowWidth": [2321.0, 2321.0, 2321.0, 2320.0, 2320.0, 2320.0, 2320.0, 2320.0, 2320.0, 2320.0, 2320.0, 2320.0, 2320.0, 2320.0, 2320.0, 2320.0, 2320.0, 2320.0, 2320.0, 2319.0, 2320.0, 2320.0, 2320.0, 2319.0, 2319.0, 2319.0, 2320.0, 2319.0, 2319.0, 2319.0, 2319.0, 2319.0, 2319.0, 2319.0, 2319.0, 2319.0, 2319.0, 2319.0, 2319.0, 2319.0, 2319.0, 2319.0, 2318.0, 2319.0, 2319.0, 2319.0, 2318.0, 2318.0, 2318.0, 2318.0, 2318.0, 2318.0, 2318.0, 2318.0, 2318.0, 2318.0, 2318.0, 2318.0, 2318.0, 2318.0, 2318.0, 2318.0, 2318.0, 2317.0, 2318.0, 2317.0, 2317.0, 2317.0, 2317.0, 2317.0, 2317.0, 2317.0, 2317.0, 2317.0, 2317.0, 2317.0, 2317.0, 2317.0, 2317.0, 2317.0, 2317.0, 2317.0, 2317.0, 2317.0, 2317.0, 2316.0, 2317.0, 2317.0, 2317.0, 2317.0, 2317.0, 2317.0, 2316.0, 2316.0, 2316.0, 2316.0, 2316.0, 2317.0, 2316.0, 2316.0, 2316.0, 2316.0, 2316.0, 2316.0, 2316.0, 2316.0, 2316.0, 2316.0, 2316.0, 2316.0, 2316.0, 2316.0, 2316.0, 2316.0, 2316.0, 2316.0, 2316.0, 2316.0, 2316.0, 2316.0, 2316.0, 2316.0, 2316.0, 2316.0, 2316.0, 2316.0, 2315.0, 2316.0, 2315.0, 2315.0, 2315.0, 2315.0, 2315.0, 2315.0, 2315.0, 2315.0, 2315.0, 2315.0, 2315.0, 2315.0, 2315.0, 2315.0, 2315.0, 2315.0, 2315.0, 2315.0, 2315.0, 2315.0, 2315.0, 2315.0, 2315.0, 2315.0, 2315.0, 2315.0, 2315.0, 2315.0, 2315.0, 2315.0, 2315.0, 2315.0, 2315.0, 2315.0, 2315.0, 2315.0, 2315.0, 2315.0, 2315.0, 2315.0, 2314.0, 2315.0, 2315.0, 2315.0, 2315.0, 2314.0, 2315.0, 2314.0, 2314.0, 2314.0, 2314.0, 2314.0, 2314.0, 2314.0, 2314.0, 2314.0, 2314.0, 2314.0, 2314.0, 2314.0, 2314.0, 2314.0, 2314.0, 2314.0, 2314.0, 2314.0, 2314.0, 2314.0, 2314.0, 2314.0, 2314.0, 2314.0]
    },
    "slices": {}
  }
}