{
  "AcquisitionMatrixPE": 80,
  "AcquisitionNumber": 1,
  "AcquisitionTime": "10:00:41.445000",
  "BandwidthPerPixelPhaseEncode": 25,
  "BaseResolution": 80,
  "BodyPartExamined": "BRAIN",
  "CoilCombinationMethod": "Sum of Squares",
  "ConsistencyInfo": "N4_VE11E_LATEST_20181129",
  "ConversionSoftware": "dcm2niix",
  "ConversionSoftwareVersion": "v1.0.20220720",
  "DerivedVendorReportedEchoSpacing": 0.0005,
  "DeviceSerialNumber": "66112",
  "DwellTime": 2.7e-06,
  "EchoTime": 0.03,
  "EchoTrainLength": 80,
  "EffectiveEchoSpacing": 0.0005,
  "FlipAngle": 77,
  "HeudiconvVersion": "0.13.1",
  "ImageOrientationPatientDICOM": [0.993496, -0.113689, 0.00640983, 0.105823, 0.942616, 0.316663],
  "ImageOrientationText": "Tra>Cor(18.3)>Sag(2.4)",
  "ImageType": [
    "ORIGINAL",
    "PRIMARY",
    "M",
    "ND",
    "NORM",
    "MOSAIC"
],
  "ImagingFrequency": 123.259,
  "InPlanePhaseEncodingDirectionDICOM": "COL",
  "InstitutionAddress": "Maynard 3,Hanover,NH,US,03755",
  "InstitutionName": "Dartmouth College - PBS",
  "InstitutionalDepartmentName": "Department",
  "MRAcquisitionType": "2D",
  "MagneticFieldStrength": 3,
  "Manufacturer": "Siemens",
  "ManufacturersModelName": "Prisma",
  "MatrixCoilMode": "SENSE",
  "Modality": "MR",
  "NonlinearGradientCorrection": false,
  "PartialFourier": 1,
  "PatientPosition": "HFS",
  "PercentPhaseFOV": 100,
  "PercentSampling": 100,
  "PhaseEncodingDirection": "j-",
  "PhaseEncodingSteps": 80,
  "PhaseResolution": 1,
  "PixelBandwidth": 2315,
  "ProcedureStepDescription": "dbic^QA",
  "ProtocolName": "func-bold_fa-77",
  "PulseSequenceDetails": "%SiemensSeq%\\ep2d_bold",
  "ReceiveCoilActiveElements": "HEA;HEP",
  "ReceiveCoilName": "Head_32",
  "ReconMatrixPE": 80,
  "RepetitionTime": 2,
  "SAR": 0.0640179,
  "ScanOptions": "FS",
  "ScanningSequence": "EP",
  "SequenceName": "*epfid2d1_80",
  "SequenceVariant": "SK",
  "SeriesDescription": "func-bold_fa-77",
  "SeriesNumber": 7,
  "ShimSetting": [4218, -7744, -7484, 13, -138, -27, -7, 61],
  "SliceThickness": 3.5,
  "SliceTiming": [0.99, 0, 1.055, 0.0675, 1.1225, 0.1325, 1.1875, 0.1975, 1.255, 0.265, 1.32, 0.33, 1.385, 0.395, 1.4525, 0.4625, 1.5175, 0.5275, 1.585, 0.595, 1.65, 0.66, 1.715, 0.725, 1.7825, 0.7925, 1.8475, 0.8575, 1.915, 0.925],
  "SoftwareVersions": "syngo MR E11",
  "SpacingBetweenSlices": 3.99,
  "StationName": "AWP66112",
  "TotalReadoutTime": 0.0395,
  "TxRefAmp": 230.805,
  "dcmmeta_affine": [
    [-2.98048734664917, 0.31746992468833923, 0.16775165498256683, 105.40203094482422],
    [0.3410658836364746, 2.8278493881225586, 1.2525618076324463, -143.66343688964844],
    [0.019229499623179436, -0.9499896764755249, 3.7845804691314697, -11.977214813232422],
    [0.0, 0.0, 0.0, 1.0]
],
  "dcmmeta_reorient_transform": [
    [0.0, -1.0, 0.0, 79.0],
    [1.0, 0.0, 0.0, 0.0],
    [0.0, 0.0, 1.0, 0.0],
    [0.0, 0.0, 0.0, 1.0]
],
  "dcmmeta_shape": [80, 80, 30, 200],
  "dcmmeta_slice_dim": 2,
  "dcmmeta_version": 0.6,
  "global": {
    "const": {
      "AccessionNumber": "qa",
      "AcquisitionMatrix": [80, 0, 0, 80],
      "AngioFlag": "N",
      "BitsAllocated": 16,
      "BitsStored": 12,
      "BodyPartExamined": "BRAIN",
      "Columns": 480,
      "EchoNumbers": 1,
      "EchoTime": 30.0,
      "EchoTrainLength": 80,
      "FlipAngle": 77.0,
      "HighBit": 11,
      "ImageOrientationPatient": [0.99349575281969, -0.1136886237542, 0.00640983292334, 0.10582331269371, 0.94261647801959, 0.31666323098282],
      "ImagePositionPatient": [-790.07359748043, -577.0933748953, -280.87023922167],
      "ImageType": [
        "ORIGINAL",
        "PRIMARY",
        "M",
        "ND",
        "NORM",
        "MOSAIC"
],
      "ImagedNucleus": "1H",
      "ImagingFrequency": 123.259173,
      "InPlanePhaseEncodingDirection": "COL",
      "MRAcquisitionType": "2D",
      "MagneticFieldStrength": 3.0,
      "Manufacturer": "SIEMENS",
      "ManufacturerModelName": "Prisma",
      "Modality": "MR",
      "NumberOfAverages": 1.0,
      "NumberOfPhaseEncodingSteps": 80,
      "PercentPhaseFieldOfView": 100.0,
      "PercentSampling": 100.0,
      "PerformedProcedureStepStartTime": "094213.366000",
      "PhotometricInterpretation": "MONOCHROME2",
      "PixelBandwidth": 2315.0,
      "PixelRepresentation": 0,
      "PixelSpacing": [3.0, 3.0],
      "ProtocolName": "func-bold_fa-77",
      "RepetitionTime": 2000.0,
      "Rows": 480,
      "SAR": 0.06401794692759,
      "SamplesPerPixel": 1,
      "ScanOptions": "FS",
      "ScanningSequence": "EP",
      "SequenceName": "*epfid2d1_80",
      "SequenceVariant": "SK",
      "SeriesDescription": "func-bold_fa-77",
      "SeriesNumber": 7,
      "SeriesTime": "100138.869000",
      "SliceLocation": -52.028749221211,
      "SliceThickness": 3.5,
      "SmallestImagePixelValue": 0,
      "SoftwareVersions": "syngo MR E11",
      "SpacingBetweenSlices": 3.9900000346566,
      "SpecificCharacterSet": "ISO_IR 100",
      "StudyID": "37",
      "StudyTime": "094213.299000",
      "TransmitCoilName": "Body",
      "VariableFlipAngleFlag": "N",
      "WindowCenterWidthExplanation": "Algo1"
    },
    "slices": {}
  },
  "time": {
    "samples": {
      "AcquisitionNumber": [1, 2, 3, 4, 5, 6, 7, 8, 9, 10, 11, 12, 13, 14, 15, 16, 17, 18, 19, 20, 21, 22, 23, 24, 25, 26, 27, 28, 29, 30, 31, 32, 33, 34, 35, 36, 37, 38, 39, 40, 41, 42, 43, 44, 45, 46, 47, 48, 49, 50, 51, 52, 53, 54, 55, 56, 57, 58, 59, 60, 61, 62, 63, 64, 65, 66, 67, 68, 69, 70, 71, 72, 73, 74, 75, 76, 77, 78, 79, 80, 81, 82, 83, 84, 85, 86, 87, 88, 89, 90, 91, 92, 93, 94, 95, 96, 97, 98, 99, 100, 101, 102, 103, 104, 105, 106, 107, 108, 109, 110, 111, 112, 113, 114, 115, 116, 117, 118, 119, 120, 121, 122, 123, 124, 125, 126, 127, 128, 129, 130, 131, 132, 133, 134, 135, 136, 137, 138, 139, 140, 141, 142, 143, 144, 145, 146, 147, 148, 149, 150, 151, 152, 153, 154, 155, 156, 157, 158, 159, 160, 161, 162, 163, 164, 165, 166, 167, 168, 169, 170, 171, 172, 173, 174, 175, 176, 177, 178, 179, 180, 181, 182, 183, 184, 185, 186, 187, 188, 189, 190, 191, 192, 193, 194, 195, 196, 197, 198, 199, 200],
      "AcquisitionTime": ["100041.445000", "100043.445000", "100045.445000", "100047.445000", "100049.445000", "100051.445000", "100053.445000", "100055.445000", "100057.445000", "100059.445000", "100101.445000", "100103.445000", "100105.445000", "100107.445000", "100109.445000", "100111.445000", "100113.445000", "100115.445000", "100117.445000", "100119.445000", "100121.445000", "100123.445000", "100125.445000", "100127.445000", "100129.445000", "100131.445000", "100133.445000", "100135.445000", "100137.445000", "100139.445000", "100141.445000", "100143.445000", "100145.445000", "100147.445000", "100149.445000", "100151.445000", "100153.445000", "100155.445000", "100157.445000", "100159.445000", "100201.445000", "100203.445000", "100205.445000", "100207.445000", "100209.445000", "100211.445000", "100213.445000", "100215.445000", "100217.445000", "100219.445000", "100221.445000", "100223.445000", "100225.445000", "100227.445000", "100229.445000", "100231.445000", "100233.445000", "100235.445000", "100237.445000", "100239.445000", "100241.445000", "100243.445000", "100245.445000", "100247.445000", "100249.445000", "100251.445000", "100253.445000", "100255.445000", "100257.445000", "100259.445000", "100301.445000", "100303.445000", "100305.445000", "100307.445000", "100309.445000", "100311.445000", "100313.445000", "100315.445000", "100317.445000", "100319.445000", "100321.445000", "100323.445000", "100325.445000", "100327.445000", "100329.445000", "100331.445000", "100333.445000", "100335.445000", "100337.445000", "100339.445000", "100341.445000", "100343.445000", "100345.445000", "100347.445000", "100349.445000", "100351.445000", "100353.445000", "100355.445000", "100357.445000", "100359.445000", "100401.445000", "100403.445000", "100405.445000", "100407.445000", "100409.445000", "100411.445000", "100413.445000", "100415.445000", "100417.445000", "100419.445000", "100421.445000", "100423.445000", "100425.445000", "100427.445000", "100429.445000", "100431.445000", "100433.445000", "100435.445000", "100437.445000", "100439.445000", "100441.445000", "100443.445000", "100445.445000", "100447.445000", "100449.445000", "100451.445000", "100453.445000", "100455.445000", "100457.445000", "100459.445000", "100501.445000", "100503.445000", "100505.445000", "100507.445000", "100509.445000", "100511.445000", "100513.445000", "100515.445000", "100517.445000", "100519.445000", "100521.445000", "100523.445000", "100525.445000", "100527.445000", "100529.445000", "100531.445000", "100533.445000", "100535.445000", "100537.445000", "100539.445000", "100541.445000", "100543.445000", "100545.445000", "100547.445000", "100549.445000", "100551.445000", "100553.445000", "100555.445000", "100557.445000", "100559.445000", "100601.445000", "100603.445000", "100605.445000", "100607.445000", "100609.445000", "100611.445000", "100613.445000", "100615.445000", "100617.445000", "100619.445000", "100621.445000", "100623.445000", "100625.445000", "100627.445000", "100629.445000", "100631.445000", "100633.445000", "100635.445000", "100637.445000", "100639.445000", "100641.445000", "100643.445000", "100645.445000", "100647.445000", "100649.445000", "100651.445000", "100653.445000", "100655.445000", "100657.445000", "100659.445000", "100701.445000", "100703.445000", "100705.445000", "100707.445000", "100709.445000", "100711.445000", "100713.445000", "100715.445000", "100717.445000", "100719.445000"],
      "ContentTime": ["100138.873000", "100138.876000", "100138.878000", "100138.880000", "100138.890000", "100138.892000", "100138.894000", "100138.897000", "100138.899000", "100138.908000", "100138.910000", "100138.913000", "100138.915000", "100138.917000", "100138.919000", "100138.922000", "100138.924000", "100138.926000", "100138.928000", "100138.931000", "100138.933000", "100138.935000", "100138.938000", "100138.940000", "100138.942000", "100138.944000", "100138.947000", "100138.949000", "100218.868000", "100218.871000", "100218.873000", "100218.875000", "100218.878000", "100218.880000", "100218.882000", "100218.884000", "100218.887000", "100218.889000", "100218.898000", "100218.900000", "100218.902000", "100218.904000", "100218.907000", "100218.909000", "100218.911000", "100218.914000", "100218.916000", "100218.918000", "100258.867000", "100258.869000", "100258.872000", "100258.874000", "100258.876000", "100258.879000", "100258.881000", "100258.883000", "100258.885000", "100258.888000", "100258.898000", "100258.900000", "100258.903000", "100258.905000", "100258.907000", "100258.910000", "100258.912000", "100258.914000", "100258.917000", "100258.919000", "100338.868000", "100338.870000", "100338.873000", "100338.875000", "100338.877000", "100338.880000", "100338.882000", "100338.884000", "100338.886000", "100338.889000", "100338.891000", "100338.893000", "100338.895000", "100338.898000", "100338.900000", "100338.902000", "100338.904000", "100338.931000", "100338.934000", "100338.936000", "100418.868000", "100418.871000", "100418.873000", "100418.875000", "100418.877000", "100418.880000", "100418.882000", "100418.884000", "100418.886000", "100418.889000", "100418.891000", "100418.893000", "100418.896000", "100418.898000", "100418.900000", "100418.902000", "100418.905000", "100418.907000", "100418.909000", "100418.911000", "100458.868000", "100458.871000", "100458.873000", "100458.876000", "100458.878000", "100458.880000", "100458.882000", "100458.885000", "100458.887000", "100458.889000", "100458.892000", "100458.894000", "100458.896000", "100458.899000", "100458.901000", "100458.910000", "100458.912000", "100458.915000", "100458.917000", "100458.919000", "100518.867000", "100518.870000", "100518.872000", "100518.874000", "100518.876000", "100518.879000", "100518.881000", "100518.883000", "100518.885000", "100518.888000", "100558.868000", "100558.871000", "100558.873000", "100558.875000", "100558.878000", "100558.880000", "100558.882000", "100558.884000", "100558.887000", "100558.889000", "100558.891000", "100558.893000", "100558.896000", "100558.898000", "100558.900000", "100558.903000", "100558.905000", "100558.907000", "100558.909000", "100558.912000", "100638.868000", "100638.870000", "100638.873000", "100638.875000", "100638.877000", "100638.880000", "100638.882000", "100638.884000", "100638.886000", "100638.889000", "100638.891000", "100638.893000", "100638.895000", "100638.898000", "100638.900000", "100638.902000", "100638.905000", "100638.907000", "100638.909000", "100638.911000", "100718.868000", "100718.871000", "100718.873000", "100718.875000", "100718.877000", "100718.880000", "100718.882000", "100718.884000", "100718.887000", "100718.889000", "100718.891000", "100718.893000", "100718.896000", "100718.898000", "100718.900000", "100718.903000", "100718.905000", "100718.907000", "100718.910000", "100718.912000", "100721.445000", "100721.448000"],
      "InstanceCreationTime": ["100138.873000", "100138.876000", "100138.878000", "100138.880000", "100138.890000", "100138.892000", "100138.894000", "100138.897000", "100138.899000", "100138.908000", "100138.910000", "100138.913000", "100138.915000", "100138.917000", "100138.919000", "100138.922000", "100138.924000", "100138.926000", "100138.928000", "100138.931000", "100138.933000", "100138.935000", "100138.938000", "100138.940000", "100138.942000", "100138.944000", "100138.947000", "100138.949000", "100218.868000", "100218.871000", "100218.873000", "100218.875000", "100218.878000", "100218.880000", "100218.882000", "100218.884000", "100218.887000", "100218.889000", "100218.898000", "100218.900000", "100218.902000", "100218.904000", "100218.907000", "100218.909000", "100218.911000", "100218.914000", "100218.916000", "100218.918000", "100258.867000", "100258.869000", "100258.872000", "100258.874000", "100258.876000", "100258.879000", "100258.881000", "100258.883000", "100258.885000", "100258.888000", "100258.898000", "100258.900000", "100258.903000", "100258.905000", "100258.907000", "100258.910000", "100258.912000", "100258.914000", "100258.917000", "100258.919000", "100338.868000", "100338.870000", "100338.873000", "100338.875000", "100338.877000", "100338.880000", "100338.882000", "100338.884000", "100338.886000", "100338.889000", "100338.891000", "100338.893000", "100338.895000", "100338.898000", "100338.900000", "100338.902000", "100338.904000", "100338.931000", "100338.934000", "100338.936000", "100418.868000", "100418.871000", "100418.873000", "100418.875000", "100418.877000", "100418.880000", "100418.882000", "100418.884000", "100418.886000", "100418.889000", "100418.891000", "100418.893000", "100418.896000", "100418.898000", "100418.900000", "100418.902000", "100418.905000", "100418.907000", "100418.909000", "100418.911000", "100458.868000", "100458.871000", "100458.873000", "100458.876000", "100458.878000", "100458.880000", "100458.882000", "100458.885000", "100458.887000", "100458.889000", "100458.892000", "100458.894000", "100458.896000", "100458.899000", "100458.901000", "100458.910000", "100458.912000", "100458.915000", "100458.917000", "100458.919000", "100518.867000", "100518.870000", "100518.872000", "100518.874000", "100518.876000", "100518.879000", "100518.881000", "100518.883000", "100518.885000", "100518.888000", "100558.868000", "100558.871000", "100558.873000", "100558.875000", "100558.878000", "100558.880000", "100558.882000", "100558.884000", "100558.887000", "100558.889000", "100558.891000", "100558.893000", "100558.896000", "100558.898000", "100558.900000", "100558.903000", "100558.905000", "100558.907000", "100558.909000", "100558.912000", "100638.868000", "100638.870000", "100638.873000", "100638.875000", "100638.877000", "100638.880000", "100638.882000", "100638.884000", "100638.886000", "100638.889000", "100638.891000", "100638.893000", "100638.895000", "100638.898000", "100638.900000", "100638.902000", "100638.905000", "100638.907000", "100638.909000", "100638.911000", "100718.868000", "100718.871000", "100718.873000", "100718.875000", "100718.877000", "100718.880000", "100718.882000", "100718.884000", "100718.887000", "100718.889000", "100718.891000", "100718.893000", "100718.896000", "100718.898000", "100718.900000", "100718.903000", "100718.905000", "100718.907000", "100718.910000", "100718.912000", "100721.445000", "100721.448000"],
      "InstanceNumber": [1, 2, 3, 4, 5, 6, 7, 8, 9, 10, 11, 12, 13, 14, 15, 16, 17, 18, 19, 20, 21, 22, 23, 24, 25, 26, 27, 28, 29, 30, 31, 32, 33, 34, 35, 36, 37, 38, 39, 40, 41, 42, 43, 44, 45, 46, 47, 48, 49, 50, 51, 52, 53, 54, 55, 56, 57, 58, 59, 60, 61, 62, 63, 64, 65, 66, 67, 68, 69, 70, 71, 72, 73, 74, 75, 76, 77, 78, 79, 80, 81, 82, 83, 84, 85, 86, 87, 88, 89, 90, 91, 92, 93, 94, 95, 96, 97, 98, 99, 100, 101, 102, 103, 104, 105, 106, 107, 108, 109, 110, 111, 112, 113, 114, 115, 116, 117, 118, 119, 120, 121, 122, 123, 124, 125, 126, 127, 128, 129, 130, 131, 132, 133, 134, 135, 136, 137, 138, 139, 140, 141, 142, 143, 144, 145, 146, 147, 148, 149, 150, 151, 152, 153, 154, 155, 156, 157, 158, 159, 160, 161, 162, 163, 164, 165, 166, 167, 168, 169, 170, 171, 172, 173, 174, 175, 176, 177, 178, 179, 180, 181, 182, 183, 184, 185, 186, 187, 188, 189, 190, 191, 192, 193, 194, 195, 196, 197, 198, 199, 200],
      "LargestImagePixelValue": [2180, 2179, 2180, 2179, 2179, 2180, 2180, 2180, 2179, 2178, 2179, 2180, 2179, 2178, 2178, 2179, 2180, 2177, 2179, 2179, 2179, 2181, 2179, 2179, 2180, 2180, 2178, 2181, 2181, 2182, 2180, 2181, 2178, 2177, 2180, 2181, 2179, 2178, 2179, 2179, 2178, 2178, 2179, 2178, 2177, 2177, 2177, 2178, 2178, 2178, 2178, 2178, 2178, 2181, 2178, 2178, 2179, 2180, 2178, 2178, 2179, 2177, 2178, 2180, 2178, 2180, 2178, 2178, 2177, 2178, 2176, 2177, 2178, 2178, 2178, 2178, 2178, 2176, 2179, 2178, 2176, 2179, 2177, 2178, 2178, 2178, 2178, 2179, 2179, 2177, 2177, 2178, 2177, 2177, 2175, 2177, 2177, 2179, 2178, 2177, 2176, 2176, 2177, 2178, 2176, 2177, 2178, 2177, 2176, 2177, 2176, 2176, 2179, 2176, 2178, 2177, 2177, 2179, 2177, 2178, 2176, 2176, 2177, 2176, 2177, 2175, 2178, 2177, 2177, 2178, 2178, 2177, 2179, 2178, 2177, 2179, 2177, 2175, 2178, 2177, 2176, 2176, 2176, 2176, 2177, 2178, 2176, 2174, 2177, 2176, 2178, 2177, 2176, 2177, 2177, 2177, 2178, 2177, 2176, 2178, 2177, 2176, 2175, 2175, 2176, 2176, 2176, 2175, 2180, 2176, 2176, 2176, 2177, 2176, 2176, 2180, 2178, 2178, 2177, 2176, 2177, 2178, 2176, 2174, 2176, 2174, 2176, 2174, 2175, 2177, 2176, 2177, 2179, 2175, 2178, 2177, 2175, 2179, 2177, 2176],
      "WindowCenter": [1024.0, 1024.0, 1024.0, 1024.0, 1024.0, 1024.0, 1024.0, 1024.0, 1024.0, 1023.0, 1024.0, 1024.0, 1024.0, 1024.0, 1023.0, 1023.0, 1023.0, 1023.0, 1023.0, 1023.0, 1023.0, 1023.0, 1023.0, 1023.0, 1023.0, 1023.0, 1023.0, 1023.0, 1023.0, 1023.0, 1023.0, 1023.0, 1023.0, 1023.0, 1023.0, 1023.0, 1023.0, 1023.0, 1023.0, 1023.0, 1023.0, 1023.0, 1023.0, 1023.0, 1023.0, 1023.0, 1023.0, 1023.0, 1023.0, 1023.0, 1023.0, 1023.0, 1023.0, 1023.0, 1023.0, 1023.0, 1023.0, 1023.0, 1023.0, 1023.0, 1023.0, 1023.0, 1023.0, 1023.0, 1023.0, 1023.0, 1023.0, 1023.0, 1023.0, 1023.0, 1023.0, 1023.0, 1023.0, 1023.0, 1023.0, 1023.0, 1023.0, 1023.0, 1023.0, 1023.0, 1023.0, 1023.0, 1023.0, 1023.0, 1023.0, 1023.0, 1023.0, 1023.0, 1023.0, 1023.0, 1023.0, 1023.0, 1023.0, 1023.0, 1023.0, 1023.0, 1023.0, 1023.0, 1022.0, 1022.0, 1022.0, 1022.0, 1022.0, 1022.0, 1022.0, 1022.0, 1022.0, 1022.0, 1022.0, 1023.0, 1023.0, 1022.0, 1022.0, 1022.0, 1022.0, 1022.0, 1022.0, 1022.0, 1022.0, 1022.0, 1022.0, 1022.0, 1022.0, 1022.0, 1022.0, 1023.0, 1022.0, 1022.0, 1022.0, 1022.0, 1022.0, 1022.0, 1022.0, 1022.0, 1022.0, 1022.0, 1022.0, 1022.0, 1022.0, 1022.0, 1022.0, 1022.0, 1022.0, 1022.0, 1022.0, 1022.0, 1022.0, 1022.0, 1022.0, 1022.0, 1022.0, 1022.0, 1022.0, 1022.0, 1022.0, 1022.0, 1022.0, 1022.0, 1022.0, 1022.0, 1022.0, 1022.0, 1022.0, 1022.0, 1022.0, 1022.0, 1022.0, 1022.0, 1022.0, 1023.0, 1022.0, 1022.0, 1022.0, 1022.0, 1022.0, 1022.0, 1022.0, 1022.0, 1022.0, 1022.0, 1022.0, 1022.0, 1022.0, 1022.0, 1022.0, 1022.0, 1022.0, 1022.0, 1022.0, 1022.0, 1022.0, 1022.0, 1022.0, 1022.0, 1022.0, 1022.0, 1022.0, 1022.0, 1022.0, 1022.0],
      "WindowWidth": [2290.0, 2290.0, 2290.0, 2290.0, 2290.0, 2290.0, 2290.0, 2290.0, 2290.0, 2290.0, 2290.0, 2290.0, 2290.0, 2290.0, 2290.0, 2290.0, 2290.0, 2290.0, 2290.0, 2290.0, 2290.0, 2290.0, 2290.0, 2290.0, 2290.0, 2290.0, 2290.0, 2290.0, 2290.0, 2290.0, 2290.0, 2290.0, 2290.0, 2290.0, 2290.0, 2289.0, 2289.0, 2290.0, 2289.0, 2289.0, 2289.0, 2289.0, 2289.0, 2289.0, 2289.0, 2289.0, 2289.0, 2289.0, 2289.0, 2289.0, 2289.0, 2289.0, 2289.0, 2289.0, 2289.0, 2289.0, 2289.0, 2289.0, 2289.0, 2289.0, 2289.0, 2289.0, 2289.0, 2289.0, 2289.0, 2289.0, 2289.0, 2289.0, 2289.0, 2289.0, 2288.0, 2289.0, 2288.0, 2289.0, 2289.0, 2288.0, 2289.0, 2289.0, 2289.0, 2289.0, 2289.0, 2289.0, 2288.0, 2288.0, 2288.0, 2288.0, 2288.0, 2288.0, 2288.0, 2288.0, 2288.0, 2288.0, 2288.0, 2288.0, 2288.0, 2288.0, 2288.0, 2288.0, 2288.0, 2288.0, 2288.0, 2288.0, 2288.0, 2288.0, 2288.0, 2288.0, 2288.0, 2288.0, 2288.0, 2289.0, 2289.0, 2288.0, 2288.0, 2288.0, 2288.0, 2288.0, 2288.0, 2288.0, 2288.0, 2288.0, 2288.0, 2288.0, 2288.0, 2288.0, 2288.0, 2289.0, 2288.0, 2288.0, 2288.0, 2288.0, 2288.0, 2288.0, 2288.0, 2288.0, 2288.0, 2288.0, 2288.0, 2287.0, 2288.0, 2288.0, 2288.0, 2288.0, 2288.0, 2288.0, 2287.0, 2288.0, 2288.0, 2287.0, 2288.0, 2287.0, 2287.0, 2287.0, 2288.0, 2288.0, 2287.0, 2288.0, 2288.0, 2288.0, 2288.0, 2287.0, 2287.0, 2288.0, 2287.0, 2287.0, 2287.0, 2287.0, 2287.0, 2287.0, 2287.0, 2288.0, 2287.0, 2287.0, 2287.0, 2287.0, 2287.0, 2287.0, 2287.0, 2287.0, 2287.0, 2287.0, 2287.0, 2287.0, 2287.0, 2287.0, 2287.0, 2287.0, 2287.0, 2287.0, 2287.0, 2287.0, 2287.0, 2287.0, 2287.0, 2287.0, 2287.0, 2287.0, 2287.0, 2287.0, 2287.0, 2287.0]
    },
    "slices": {}
  }
}