{
  "AcquisitionMatrixPE": 122,
  "AcquisitionNumber": 1,
  "AcquisitionTime": "09:57:0.060000",
  "BandwidthPerPixelPhaseEncode": 28.76,
  "BaseResolution": 122,
  "BodyPartExamined": "BRAIN",
  "CoilCombinationMethod": "Adaptive Combine",
  "ConsistencyInfo": "N4_VE11C_LATEST_20160120",
  "ConversionSoftware": "dcm2niix",
  "ConversionSoftwareVersion": "v1.0.20220720",
  "DerivedVendorReportedEchoSpacing": 0.000570008,
  "DeviceSerialNumber": "66112",
  "DiffusionScheme": "Monopolar",
  "DwellTime": 2e-06,
  "EchoTime": 0.075,
  "EchoTrainLength": 61,
  "EffectiveEchoSpacing": 0.000285004,
  "FlipAngle": 90,
  "HeudiconvVersion": "0.13.1",
  "ImageOrientationPatientDICOM": [0.988236, 0.152728, 0.00801998, -0.147693, 0.939412, 0.30934],
  "ImageOrientationText": "Tra>Cor(17.9)>Sag(-2.3)",
  "ImageType": [
    "ORIGINAL",
    "PRIMARY",
    "DIFFUSION",
    "NONE",
    "ND",
    "NORM"
],
  "ImagingFrequency": 123.252,
  "InPlanePhaseEncodingDirectionDICOM": "COL",
  "InstitutionAddress": "Maynard 3,Hanover,NH,US,03755",
  "InstitutionName": "Dartmouth College - PBS",
  "InstitutionalDepartmentName": "Department",
  "MRAcquisitionType": "2D",
  "MagneticFieldStrength": 3,
  "Manufacturer": "Siemens",
  "ManufacturersModelName": "Prisma",
  "MatrixCoilMode": "GRAPPA",
  "Modality": "MR",
  "NonlinearGradientCorrection": false,
  "ParallelReductionFactorInPlane": 2,
  "PartialFourier": 1,
  "PatientPosition": "HFS",
  "PercentPhaseFOV": 100,
  "PercentSampling": 100,
  "PhaseEncodingDirection": "j-",
  "PhaseEncodingSteps": 122,
  "PhaseResolution": 1,
  "PixelBandwidth": 2050,
  "ProcedureStepDescription": "dbic^QA",
  "ProtocolName": "dwi_acq-DTI-30-p2",
  "PulseSequenceDetails": "%SiemensSeq%\\ep2d_diff",
  "ReceiveCoilActiveElements": "HEA;HEP",
  "ReceiveCoilName": "Head_32",
  "ReconMatrixPE": 122,
  "RefLinesPE": 38,
  "RepetitionTime": 7.7,
  "SAR": 0.102259,
  "ScanOptions": "FS",
  "ScanningSequence": "EP",
  "SequenceName": "*ep_b0",
  "SequenceVariant": "SK\\SP",
  "SeriesDescription": "dwi_acq-DTI-30-p2",
  "SeriesNumber": 8,
  "ShimSetting": [4148, -7689, -7514, 278, -36, -172, -21, 87],
  "SliceThickness": 2,
  "SliceTiming": [3.84375, 0, 3.94531, 0.10938, 4.0625, 0.21875, 4.17188, 0.32812, 4.28125, 0.4375, 4.39062, 0.54688, 4.5, 0.65625, 4.60938, 0.76562, 4.71875, 0.875, 4.82812, 0.99219, 4.9375, 1.09375, 5.04688, 1.20312, 5.15625, 1.3125, 5.26562, 1.42969, 5.375, 1.53906, 5.48438, 1.64844, 5.59375, 1.75781, 5.70312, 1.86719, 5.8125, 1.97656, 5.92188, 2.08594, 6.03125, 2.19531, 6.14062, 2.30469, 6.25, 2.41406, 6.36719, 2.52344, 6.47656, 2.63281, 6.58594, 2.74219, 6.69531, 2.85156, 6.80469, 2.96094, 6.91406, 3.07031, 7.02344, 3.17969, 7.13281, 3.28906, 7.24219, 3.39844, 7.35156, 3.50781, 7.46094, 3.625, 7.57031, 3.73438],
  "SoftwareVersions": "syngo MR E11",
  "SpacingBetweenSlices": 2,
  "SpoilingState": true,
  "StationName": "AWP66112",
  "TotalReadoutTime": 0.0344855,
  "TxRefAmp": 226.98,
  "dcmmeta_affine": [
    [-1.9440703392028809, -0.2905432879924774, -0.0794215202331543, 144.3485565185547],
    [-0.3004482388496399, 1.8480244874954224, 0.61376953125, -105.84564971923828],
    [0.015777012333273888, -0.6085371375083923, 1.9018325805664062, -37.19692611694336],
    [0.0, 0.0, 0.0, 1.0]
],
  "dcmmeta_reorient_transform": [
    [0.0, -1.0, 0.0, 121.0],
    [1.0, 0.0, 0.0, 0.0],
    [0.0, 0.0, -1.0, 69.0],
    [0.0, 0.0, 0.0, 1.0]
],
  "dcmmeta_shape": [122, 122, 70, 31],
  "dcmmeta_slice_dim": 2,
  "dcmmeta_version": 0.6,
  "global": {
    "const": {
      "AccessionNumber": "qa",
      "AcquisitionMatrix": [122, 0, 0, 122],
      "AngioFlag": "N",
      "BitsAllocated": 16,
      "BitsStored": 12,
      "BodyPartExamined": "BRAIN",
      "Columns": 122,
      "EchoNumbers": 1,
      "EchoTime": 75.0,
      "EchoTrainLength": 61,
      "FlipAngle": 90.0,
      "HighBit": 11,
      "ImageOrientationPatient": [0.98823574277738, 0.15272785143242, 0.008019980927, -0.1476928416055, 0.93941245882739, 0.30933971089786],
      "ImageType": [
        "ORIGINAL",
        "PRIMARY",
        "DIFFUSION",
        "NONE",
        "ND",
        "NORM"
],
      "ImagedNucleus": "1H",
      "ImagingFrequency": 123.252416,
      "InPlanePhaseEncodingDirection": "COL",
      "MRAcquisitionType": "2D",
      "MagneticFieldStrength": 3.0,
      "Manufacturer": "SIEMENS",
      "ManufacturerModelName": "Prisma",
      "Modality": "MR",
      "NumberOfAverages": 1.0,
      "NumberOfPhaseEncodingSteps": 122,
      "PercentPhaseFieldOfView": 100.0,
      "PercentSampling": 100.0,
      "PerformedProcedureStepStartTime": "094115.130000",
      "PhotometricInterpretation": "MONOCHROME2",
      "PixelBandwidth": 2050.0,
      "PixelRepresentation": 0,
      "PixelSpacing": [1.9672131538391, 1.9672131538391],
      "ProtocolName": "dwi_acq-DTI-30-p2",
      "RepetitionTime": 7700.0,
      "Rows": 122,
      "SAR": 0.10225891295547,
      "SamplesPerPixel": 1,
      "ScanOptions": "FS",
      "ScanningSequence": "EP",
      "SequenceVariant": [
        "SK",
        "SP"
],
      "SeriesDescription": "dwi_acq-DTI-30-p2",
      "SeriesNumber": 8,
      "SeriesTime": "095704.147000",
      "SliceThickness": 2.0,
      "SmallestImagePixelValue": 0,
      "SoftwareVersions": "syngo MR E11",
      "SpacingBetweenSlices": 2.0,
      "SpecificCharacterSet": "ISO_IR 100",
      "StudyID": "96",
      "StudyTime": "094115.036000",
      "TransmitCoilName": "Body",
      "VariableFlipAngleFlag": "N",
      "WindowCenterWidthExplanation": "Algo1",
      "dBdt": 0.0},
    "slices": {
      "AcquisitionTime": ["095700.060000", "095656.220000", "095700.167500", "095656.327500", "095700.277500", "095656.437500", "095700.387500", "095656.547500", "095700.497500", "095656.657500", "095700.607500", "095656.767500", "095700.717500", "095656.877500", "095700.827500", "095656.987500", "095700.937500", "095657.097500", "095701.047500", "095657.207500", "095701.155000", "095657.315000", "095701.265000", "095657.425000", "095701.375000", "095657.535000", "095701.485000", "095657.645000", "095701.595000", "095657.755000", "095701.705000", "095657.865000", "095701.815000", "095657.975000", "095701.925000", "095658.085000", "095702.032500", "095658.195000", "095702.142500", "095658.302500", "095702.252500", "095658.412500", "095702.362500", "095658.522500", "095702.472500", "095658.632500", "095702.582500", "095658.742500", "095702.692500", "095658.852500", "095702.802500", "095658.962500", "095702.912500", "095659.072500", "095703.020000", "095659.180000", "095703.130000", "095659.290000", "095703.240000", "095659.400000", "095703.350000", "095659.510000", "095703.460000", "095659.620000", "095703.570000", "095659.730000", "095703.680000", "095659.840000", "095703.790000", "095659.950000", "095707.760000", "095703.920000", "095707.867500", "095704.027500", "095707.977500", "095704.137500", "095708.087500", "095704.247500", "095708.197500", "095704.357500", "095708.307500", "095704.467500", "095708.417500", "095704.577500", "095708.527500", "095704.687500", "095708.637500", "095704.797500", "095708.747500", "095704.907500", "095708.855000", "095705.015000", "095708.965000", "095705.125000", "095709.075000", "095705.235000", "095709.185000", "095705.345000", "095709.295000", "095705.455000", "095709.405000", "095705.565000", "095709.515000", "095705.675000", "095709.625000", "095705.785000", "095709.732500", "095705.895000", "095709.842500", "095706.002500", "095709.952500", "095706.112500", "095710.062500", "095706.222500", "095710.172500", "095706.332500", "095710.282500", "095706.442500", "095710.392500", "095706.552500", "095710.502500", "095706.662500", "095710.612500", "095706.772500", "095710.720000", "095706.880000", "095710.830000", "095706.990000", "095710.940000", "095707.100000", "095711.050000", "095707.210000", "095711.160000", "095707.320000", "095711.270000", "095707.430000", "095711.380000", "095707.540000", "095711.490000", "095707.650000", "095715.460000", "095711.620000", "095715.567500", "095711.727500", "095715.677500", "095711.837500", "095715.787500", "095711.947500", "095715.897500", "095712.057500", "095716.007500", "095712.167500", "095716.117500", "095712.277500", "095716.227500", "095712.387500", "095716.337500", "095712.497500", "095716.447500", "095712.607500", "095716.555000", "095712.715000", "095716.665000", "095712.825000", "095716.775000", "095712.935000", "095716.885000", "095713.045000", "095716.995000", "095713.155000", "095717.105000", "095713.265000", "095717.215000", "095713.375000", "095717.325000", "095713.485000", "095717.432500", "095713.595000", "095717.542500", "095713.702500", "095717.652500", "095713.812500", "095717.762500", "095713.922500", "095717.872500", "095714.032500", "095717.982500", "095714.142500", "095718.092500", "095714.252500", "095718.202500", "095714.362500", "095718.312500", "095714.472500", "095718.420000", "095714.580000", "095718.530000", "095714.690000", "095718.640000", "095714.800000", "095718.750000", "095714.910000", "095718.860000", "095715.020000", "095718.970000", "095715.130000", "095719.080000", "095715.240000", "095719.190000", "095715.350000", "095723.160000", "095719.320000", "095723.267500", "095719.427500", "095723.377500", "095719.537500", "095723.487500", "095719.647500", "095723.597500", "095719.757500", "095723.707500", "095719.867500", "095723.817500", "095719.977500", "095723.927500", "095720.087500", "095724.037500", "095720.197500", "095724.147500", "095720.307500", "095724.255000", "095720.415000", "095724.365000", "095720.525000", "095724.475000", "095720.635000", "095724.585000", "095720.745000", "095724.695000", "095720.855000", "095724.805000", "095720.965000", "095724.915000", "095721.075000", "095725.025000", "095721.185000", "095725.132500", "095721.295000", "095725.242500", "095721.402500", "095725.352500", "095721.512500", "095725.462500", "095721.622500", "095725.572500", "095721.732500", "095725.682500", "095721.842500", "095725.792500", "095721.952500", "095725.902500", "095722.062500", "095726.012500", "095722.172500", "095726.120000", "095722.280000", "095726.230000", "095722.390000", "095726.340000", "095722.500000", "095726.450000", "095722.610000", "095726.560000", "095722.720000", "095726.670000", "095722.830000", "095726.780000", "095722.940000", "095726.890000", "095723.050000", "095730.860000", "095727.020000", "095730.967500", "095727.127500", "095731.077500", "095727.237500", "095731.187500", "095727.347500", "095731.297500", "095727.457500", "095731.407500", "095727.567500", "095731.517500", "095727.677500", "095731.627500", "095727.787500", "095731.737500", "095727.897500", "095731.847500", "095728.007500", "095731.955000", "095728.115000", "095732.065000", "095728.225000", "095732.175000", "095728.335000", "095732.285000", "095728.445000", "095732.395000", "095728.555000", "095732.505000", "095728.665000", "095732.615000", "095728.775000", "095732.725000", "095728.885000", "095732.832500", "095728.995000", "095732.942500", "095729.102500", "095733.052500", "095729.212500", "095733.162500", "095729.322500", "095733.272500", "095729.432500", "095733.382500", "095729.542500", "095733.492500", "095729.652500", "095733.602500", "095729.762500", "095733.712500", "095729.872500", "095733.820000", "095729.980000", "095733.930000", "095730.090000", "095734.040000", "095730.200000", "095734.150000", "095730.310000", "095734.260000", "095730.420000", "095734.370000", "095730.530000", "095734.480000", "095730.640000", "095734.590000", "095730.750000", "095738.560000", "095734.720000", "095738.667500", "095734.827500", "095738.777500", "095734.937500", "095738.887500", "095735.047500", "095738.997500", "095735.157500", "095739.107500", "095735.267500", "095739.217500", "095735.377500", "095739.327500", "095735.487500", "095739.437500", "095735.597500", "095739.547500", "095735.707500", "095739.655000", "095735.815000", "095739.765000", "095735.925000", "095739.875000", "095736.035000", "095739.985000", "095736.145000", "095740.095000", "095736.255000", "095740.205000", "095736.365000", "095740.315000", "095736.475000", "095740.425000", "095736.585000", "095740.532500", "095736.695000", "095740.642500", "095736.802500", "095740.752500", "095736.912500", "095740.862500", "095737.022500", "095740.972500", "095737.132500", "095741.082500", "095737.242500", "095741.192500", "095737.352500", "095741.302500", "095737.462500", "095741.412500", "095737.572500", "095741.520000", "095737.680000", "095741.630000", "095737.790000", "095741.740000", "095737.900000", "095741.850000", "095738.010000", "095741.960000", "095738.120000", "095742.070000", "095738.230000", "095742.180000", "095738.340000", "095742.290000", "095738.450000", "095746.260000", "095742.420000", "095746.367500", "095742.527500", "095746.477500", "095742.637500", "095746.587500", "095742.747500", "095746.697500", "095742.857500", "095746.807500", "095742.967500", "095746.917500", "095743.077500", "095747.027500", "095743.187500", "095747.137500", "095743.297500", "095747.247500", "095743.407500", "095747.355000", "095743.515000", "095747.465000", "095743.625000", "095747.575000", "095743.735000", "095747.685000", "095743.845000", "095747.795000", "095743.955000", "095747.905000", "095744.065000", "095748.015000", "095744.175000", "095748.125000", "095744.285000", "095748.232500", "095744.395000", "095748.342500", "095744.502500", "095748.452500", "095744.612500", "095748.562500", "095744.722500", "095748.672500", "095744.832500", "095748.782500", "095744.942500", "095748.892500", "095745.052500", "095749.002500", "095745.162500", "095749.112500", "095745.272500", "095749.220000", "095745.380000", "095749.330000", "095745.490000", "095749.440000", "095745.600000", "095749.550000", "095745.710000", "095749.660000", "095745.820000", "095749.770000", "095745.930000", "095749.880000", "095746.040000", "095749.990000", "095746.150000", "095753.960000", "095750.120000", "095754.067500", "095750.227500", "095754.177500", "095750.337500", "095754.287500", "095750.447500", "095754.397500", "095750.557500", "095754.507500", "095750.667500", "095754.617500", "095750.777500", "095754.727500", "095750.887500", "095754.837500", "095750.997500", "095754.947500", "095751.107500", "095755.055000", "095751.215000", "095755.165000", "095751.325000", "095755.275000", "095751.435000", "095755.385000", "095751.545000", "095755.495000", "095751.655000", "095755.605000", "095751.765000", "095755.715000", "095751.875000", "095755.825000", "095751.985000", "095755.932500", "095752.095000", "095756.042500", "095752.202500", "095756.152500", "095752.312500", "095756.262500", "095752.422500", "095756.372500", "095752.532500", "095756.482500", "095752.642500", "095756.592500", "095752.752500", "095756.702500", "095752.862500", "095756.812500", "095752.972500", "095756.920000", "095753.080000", "095757.030000", "095753.190000", "095757.140000", "095753.300000", "095757.250000", "095753.410000", "095757.360000", "095753.520000", "095757.470000", "095753.630000", "095757.580000", "095753.740000", "095757.690000", "095753.850000", "095801.660000", "095757.820000", "095801.767500", "095757.927500", "095801.877500", "095758.037500", "095801.987500", "095758.147500", "095802.097500", "095758.257500", "095802.207500", "095758.367500", "095802.317500", "095758.477500", "095802.427500", "095758.587500", "095802.537500", "095758.697500", "095802.647500", "095758.807500", "095802.755000", "095758.915000", "095802.865000", "095759.025000", "095802.975000", "095759.135000", "095803.085000", "095759.245000", "095803.195000", "095759.355000", "095803.305000", "095759.465000", "095803.415000", "095759.575000", "095803.525000", "095759.685000", "095803.632500", "095759.795000", "095803.742500", "095759.902500", "095803.852500", "095800.012500", "095803.962500", "095800.122500", "095804.072500", "095800.232500", "095804.182500", "095800.342500", "095804.292500", "095800.452500", "095804.402500", "095800.562500", "095804.512500", "095800.672500", "095804.620000", "095800.780000", "095804.730000", "095800.890000", "095804.840000", "095801.000000", "095804.950000", "095801.110000", "095805.060000", "095801.220000", "095805.170000", "095801.330000", "095805.280000", "095801.440000", "095805.390000", "095801.550000", "095809.360000", "095805.520000", "095809.467500", "095805.627500", "095809.577500", "095805.737500", "095809.687500", "095805.847500", "095809.797500", "095805.957500", "095809.907500", "095806.067500", "095810.017500", "095806.177500", "095810.127500", "095806.287500", "095810.237500", "095806.397500", "095810.347500", "095806.507500", "095810.455000", "095806.615000", "095810.565000", "095806.725000", "095810.675000", "095806.835000", "095810.785000", "095806.945000", "095810.895000", "095807.055000", "095811.005000", "095807.165000", "095811.115000", "095807.275000", "095811.225000", "095807.385000", "095811.332500", "095807.495000", "095811.442500", "095807.602500", "095811.552500", "095807.712500", "095811.662500", "095807.822500", "095811.772500", "095807.932500", "095811.882500", "095808.042500", "095811.992500", "095808.152500", "095812.102500", "095808.262500", "095812.212500", "095808.372500", "095812.320000", "095808.480000", "095812.430000", "095808.590000", "095812.540000", "095808.700000", "095812.650000", "095808.810000", "095812.760000", "095808.920000", "095812.870000", "095809.030000", "095812.980000", "095809.140000", "095813.090000", "095809.250000", "095817.060000", "095813.220000", "095817.167500", "095813.327500", "095817.277500", "095813.437500", "095817.387500", "095813.547500", "095817.497500", "095813.657500", "095817.607500", "095813.767500", "095817.717500", "095813.877500", "095817.827500", "095813.987500", "095817.937500", "095814.097500", "095818.047500", "095814.207500", "095818.155000", "095814.315000", "095818.265000", "095814.425000", "095818.375000", "095814.535000", "095818.485000", "095814.645000", "095818.595000", "095814.755000", "095818.705000", "095814.865000", "095818.815000", "095814.975000", "095818.925000", "095815.085000", "095819.032500", "095815.195000", "095819.142500", "095815.302500", "095819.252500", "095815.412500", "095819.362500", "095815.522500", "095819.472500", "095815.632500", "095819.582500", "095815.742500", "095819.692500", "095815.852500", "095819.802500", "095815.962500", "095819.912500", "095816.072500", "095820.020000", "095816.180000", "095820.130000", "095816.290000", "095820.240000", "095816.400000", "095820.350000", "095816.510000", "095820.460000", "095816.620000", "095820.570000", "095816.730000", "095820.680000", "095816.840000", "095820.790000", "095816.950000", "095824.760000", "095820.920000", "095824.867500", "095821.027500", "095824.977500", "095821.137500", "095825.087500", "095821.247500", "095825.197500", "095821.357500", "095825.307500", "095821.467500", "095825.417500", "095821.577500", "095825.527500", "095821.687500", "095825.637500", "095821.797500", "095825.747500", "095821.907500", "095825.855000", "095822.015000", "095825.965000", "095822.125000", "095826.075000", "095822.235000", "095826.185000", "095822.345000", "095826.295000", "095822.455000", "095826.405000", "095822.565000", "095826.515000", "095822.675000", "095826.625000", "095822.785000", "095826.732500", "095822.895000", "095826.842500", "095823.002500", "095826.952500", "095823.112500", "095827.062500", "095823.222500", "095827.172500", "095823.332500", "095827.282500", "095823.442500", "095827.392500", "095823.552500", "095827.502500", "095823.662500", "095827.612500", "095823.772500", "095827.720000", "095823.880000", "095827.830000", "095823.990000", "095827.940000", "095824.100000", "095828.050000", "095824.210000", "095828.160000", "095824.320000", "095828.270000", "095824.430000", "095828.380000", "095824.540000", "095828.490000", "095824.650000", "095832.460000", "095828.620000", "095832.567500", "095828.727500", "095832.677500", "095828.837500", "095832.787500", "095828.947500", "095832.897500", "095829.057500", "095833.007500", "095829.167500", "095833.117500", "095829.277500", "095833.227500", "095829.387500", "095833.337500", "095829.497500", "095833.447500", "095829.607500", "095833.555000", "095829.715000", "095833.665000", "095829.825000", "095833.775000", "095829.935000", "095833.885000", "095830.045000", "095833.995000", "095830.155000", "095834.105000", "095830.265000", "095834.215000", "095830.375000", "095834.325000", "095830.485000", "095834.432500", "095830.595000", "095834.542500", "095830.702500", "095834.652500", "095830.812500", "095834.762500", "095830.922500", "095834.872500", "095831.032500", "095834.982500", "095831.142500", "095835.092500", "095831.252500", "095835.202500", "095831.362500", "095835.312500", "095831.472500", "095835.420000", "095831.580000", "095835.530000", "095831.690000", "095835.640000", "095831.800000", "095835.750000", "095831.910000", "095835.860000", "095832.020000", "095835.970000", "095832.130000", "095836.080000", "095832.240000", "095836.190000", "095832.350000", "095840.160000", "095836.320000", "095840.267500", "095836.427500", "095840.377500", "095836.537500", "095840.487500", "095836.647500", "095840.597500", "095836.757500", "095840.707500", "095836.867500", "095840.817500", "095836.977500", "095840.927500", "095837.087500", "095841.037500", "095837.197500", "095841.147500", "095837.307500", "095841.255000", "095837.415000", "095841.365000", "095837.525000", "095841.475000", "095837.635000", "095841.585000", "095837.745000", "095841.695000", "095837.855000", "095841.805000", "095837.965000", "095841.915000", "095838.075000", "095842.025000", "095838.185000", "095842.132500", "095838.295000", "095842.242500", "095838.402500", "095842.352500", "095838.512500", "095842.462500", "095838.622500", "095842.572500", "095838.732500", "095842.682500", "095838.842500", "095842.792500", "095838.952500", "095842.902500", "095839.062500", "095843.012500", "095839.172500", "095843.120000", "095839.280000", "095843.230000", "095839.390000", "095843.340000", "095839.500000", "095843.450000", "095839.610000", "095843.560000", "095839.720000", "095843.670000", "095839.830000", "095843.780000", "095839.940000", "095843.890000", "095840.050000", "095847.860000", "095844.020000", "095847.967500", "095844.127500", "095848.077500", "095844.237500", "095848.187500", "095844.347500", "095848.297500", "095844.457500", "095848.407500", "095844.567500", "095848.517500", "095844.677500", "095848.627500", "095844.787500", "095848.737500", "095844.897500", "095848.847500", "095845.007500", "095848.955000", "095845.115000", "095849.065000", "095845.225000", "095849.175000", "095845.335000", "095849.285000", "095845.445000", "095849.395000", "095845.555000", "095849.505000", "095845.665000", "095849.615000", "095845.775000", "095849.725000", "095845.885000", "095849.832500", "095845.995000", "095849.942500", "095846.102500", "095850.052500", "095846.212500", "095850.162500", "095846.322500", "095850.272500", "095846.432500", "095850.382500", "095846.542500", "095850.492500", "095846.652500", "095850.602500", "095846.762500", "095850.712500", "095846.872500", "095850.820000", "095846.980000", "095850.930000", "095847.090000", "095851.040000", "095847.200000", "095851.150000", "095847.310000", "095851.260000", "095847.420000", "095851.370000", "095847.530000", "095851.480000", "095847.640000", "095851.590000", "095847.750000", "095855.560000", "095851.720000", "095855.667500", "095851.827500", "095855.777500", "095851.937500", "095855.887500", "095852.047500", "095855.997500", "095852.157500", "095856.107500", "095852.267500", "095856.217500", "095852.377500", "095856.327500", "095852.487500", "095856.437500", "095852.597500", "095856.547500", "095852.707500", "095856.655000", "095852.815000", "095856.765000", "095852.925000", "095856.875000", "095853.035000", "095856.985000", "095853.145000", "095857.095000", "095853.255000", "095857.205000", "095853.365000", "095857.315000", "095853.475000", "095857.425000", "095853.585000", "095857.532500", "095853.695000", "095857.642500", "095853.802500", "095857.752500", "095853.912500", "095857.862500", "095854.022500", "095857.972500", "095854.132500", "095858.082500", "095854.242500", "095858.192500", "095854.352500", "095858.302500", "095854.462500", "095858.412500", "095854.572500", "095858.520000", "095854.680000", "095858.630000", "095854.790000", "095858.740000", "095854.900000", "095858.850000", "095855.010000", "095858.960000", "095855.120000", "095859.070000", "095855.230000", "095859.180000", "095855.340000", "095859.290000", "095855.450000", "095903.260000", "095859.420000", "095903.367500", "095859.527500", "095903.477500", "095859.637500", "095903.587500", "095859.747500", "095903.697500", "095859.857500", "095903.807500", "095859.967500", "095903.917500", "095900.077500", "095904.027500", "095900.187500", "095904.137500", "095900.297500", "095904.247500", "095900.407500", "095904.355000", "095900.515000", "095904.465000", "095900.625000", "095904.575000", "095900.735000", "095904.685000", "095900.845000", "095904.795000", "095900.955000", "095904.905000", "095901.065000", "095905.015000", "095901.175000", "095905.125000", "095901.285000", "095905.232500", "095901.395000", "095905.342500", "095901.502500", "095905.452500", "095901.612500", "095905.562500", "095901.722500", "095905.672500", "095901.832500", "095905.782500", "095901.942500", "095905.892500", "095902.052500", "095906.002500", "095902.162500", "095906.112500", "095902.272500", "095906.220000", "095902.380000", "095906.330000", "095902.490000", "095906.440000", "095902.600000", "095906.550000", "095902.710000", "095906.660000", "095902.820000", "095906.770000", "095902.930000", "095906.880000", "095903.040000", "095906.990000", "095903.150000", "095910.960000", "095907.120000", "095911.067500", "095907.227500", "095911.177500", "095907.337500", "095911.287500", "095907.447500", "095911.397500", "095907.557500", "095911.507500", "095907.667500", "095911.617500", "095907.777500", "095911.727500", "095907.887500", "095911.837500", "095907.997500", "095911.947500", "095908.107500", "095912.055000", "095908.215000", "095912.165000", "095908.325000", "095912.275000", "095908.435000", "095912.385000", "095908.545000", "095912.495000", "095908.655000", "095912.605000", "095908.765000", "095912.715000", "095908.875000", "095912.825000", "095908.985000", "095912.932500", "095909.095000", "095913.042500", "095909.202500", "095913.152500", "095909.312500", "095913.262500", "095909.422500", "095913.372500", "095909.532500", "095913.482500", "095909.642500", "095913.592500", "095909.752500", "095913.702500", "095909.862500", "095913.812500", "095909.972500", "095913.920000", "095910.080000", "095914.030000", "095910.190000", "095914.140000", "095910.300000", "095914.250000", "095910.410000", "095914.360000", "095910.520000", "095914.470000", "095910.630000", "095914.580000", "095910.740000", "095914.690000", "095910.850000", "095918.660000", "095914.820000", "095918.767500", "095914.927500", "095918.877500", "095915.037500", "095918.987500", "095915.147500", "095919.097500", "095915.257500", "095919.207500", "095915.367500", "095919.317500", "095915.477500", "095919.427500", "095915.587500", "095919.537500", "095915.697500", "095919.647500", "095915.807500", "095919.755000", "095915.915000", "095919.865000", "095916.025000", "095919.975000", "095916.135000", "095920.085000", "095916.245000", "095920.195000", "095916.355000", "095920.305000", "095916.465000", "095920.415000", "095916.575000", "095920.525000", "095916.685000", "095920.632500", "095916.795000", "095920.742500", "095916.902500", "095920.852500", "095917.012500", "095920.962500", "095917.122500", "095921.072500", "095917.232500", "095921.182500", "095917.342500", "095921.292500", "095917.452500", "095921.402500", "095917.562500", "095921.512500", "095917.672500", "095921.620000", "095917.780000", "095921.730000", "095917.890000", "095921.840000", "095918.000000", "095921.950000", "095918.110000", "095922.060000", "095918.220000", "095922.170000", "095918.330000", "095922.280000", "095918.440000", "095922.390000", "095918.550000", "095926.360000", "095922.520000", "095926.467500", "095922.627500", "095926.577500", "095922.737500", "095926.687500", "095922.847500", "095926.797500", "095922.957500", "095926.907500", "095923.067500", "095927.017500", "095923.177500", "095927.127500", "095923.287500", "095927.237500", "095923.397500", "095927.347500", "095923.507500", "095927.455000", "095923.615000", "095927.565000", "095923.725000", "095927.675000", "095923.835000", "095927.785000", "095923.945000", "095927.895000", "095924.055000", "095928.005000", "095924.165000", "095928.115000", "095924.275000", "095928.225000", "095924.385000", "095928.332500", "095924.495000", "095928.442500", "095924.602500", "095928.552500", "095924.712500", "095928.662500", "095924.822500", "095928.772500", "095924.932500", "095928.882500", "095925.042500", "095928.992500", "095925.152500", "095929.102500", "095925.262500", "095929.212500", "095925.372500", "095929.320000", "095925.480000", "095929.430000", "095925.590000", "095929.540000", "095925.700000", "095929.650000", "095925.810000", "095929.760000", "095925.920000", "095929.870000", "095926.030000", "095929.980000", "095926.140000", "095930.090000", "095926.250000", "095934.060000", "095930.220000", "095934.167500", "095930.327500", "095934.277500", "095930.437500", "095934.387500", "095930.547500", "095934.497500", "095930.657500", "095934.607500", "095930.767500", "095934.717500", "095930.877500", "095934.827500", "095930.987500", "095934.937500", "095931.097500", "095935.047500", "095931.207500", "095935.155000", "095931.315000", "095935.265000", "095931.425000", "095935.375000", "095931.535000", "095935.485000", "095931.645000", "095935.595000", "095931.755000", "095935.705000", "095931.865000", "095935.815000", "095931.975000", "095935.925000", "095932.085