{
  "AcquisitionMatrixPE": 122,
  "AcquisitionNumber": 1,
  "AcquisitionTime": "10:01:22.472500",
  "BandwidthPerPixelPhaseEncode": 27.785,
  "BaseResolution": 122,
  "BodyPartExamined": "BRAIN",
  "CoilCombinationMethod": "Adaptive Combine",
  "ConsistencyInfo": "N4_VE11C_LATEST_20160120",
  "ConversionSoftware": "dcm2niix",
  "ConversionSoftwareVersion": "v1.0.20220720",
  "DerivedVendorReportedEchoSpacing": 0.000590011,
  "DeviceSerialNumber": "66112",
  "DiffusionScheme": "Monopolar",
  "DwellTime": 2e-06,
  "EchoTime": 0.068,
  "EchoTrainLength": 61,
  "EffectiveEchoSpacing": 0.000295005,
  "FlipAngle": 90,
  "HeudiconvVersion": "0.13.1",
  "ImageOrientationPatientDICOM": [0.988236, 0.152728, 0.00801998, -0.147693, 0.939412, 0.30934],
  "ImageOrientationText": "Tra>Cor(17.9)>Sag(-2.3)",
  "ImageType": [
    "ORIGINAL",
    "PRIMARY",
    "DIFFUSION",
    "NONE",
    "ND",
    "NORM"
],
  "ImagingFrequency": 123.252,
  "InPlanePhaseEncodingDirectionDICOM": "COL",
  "InstitutionAddress": "Maynard 3,Hanover,NH,US,03755",
  "InstitutionName": "Dartmouth College - PBS",
  "InstitutionalDepartmentName": "Department",
  "MRAcquisitionType": "2D",
  "MagneticFieldStrength": 3,
  "Manufacturer": "Siemens",
  "ManufacturersModelName": "Prisma",
  "Modality": "MR",
  "MultibandAccelerationFactor": 4,
  "NonlinearGradientCorrection": false,
  "ParallelReductionFactorInPlane": 2,
  "PartialFourier": 1,
  "PatientPosition": "HFS",
  "PercentPhaseFOV": 100,
  "PercentSampling": 100,
  "PhaseEncodingDirection": "j-",
  "PhaseEncodingSteps": 122,
  "PhaseResolution": 1,
  "PixelBandwidth": 2050,
  "ProcedureStepDescription": "dbic^QA",
  "ProtocolName": "dwi_acq-DTI-30-p2-s4",
  "PulseSequenceDetails": "%SiemensSeq%\\ep2d_diff",
  "ReceiveCoilActiveElements": "HEA;HEP",
  "ReceiveCoilName": "Head_32",
  "ReconMatrixPE": 122,
  "RefLinesPE": 38,
  "RepetitionTime": 3.6,
  "SAR": 0.161973,
  "ScanOptions": "FS",
  "ScanningSequence": "EP",
  "SequenceName": "*ep_b0",
  "SequenceVariant": "SK\\SP",
  "SeriesDescription": "dwi_acq-DTI-30-p2-s4",
  "SeriesNumber": 9,
  "ShimSetting": [4148, -7689, -7514, 281, -36, -173, -21, 87],
  "SliceThickness": 2,
  "SliceTiming": [2.57812, 0, 1.78906, 0.19531, 1.98438, 0.39062, 2.1875, 0.59375, 2.38281, 0.99219, 2.78125, 1.19531, 2.97656, 1.39062, 3.17969, 1.58594, 3.38281, 0.78906, 2.57812, 0, 1.78906, 0.19531, 1.98438, 0.39062, 2.1875, 0.59375, 2.38281, 0.99219, 2.78125, 1.19531, 2.97656, 1.39062, 3.17969, 1.58594, 3.38281, 0.78906, 2.57812, 0, 1.78906, 0.19531, 1.98438, 0.39062, 2.1875, 0.59375, 2.38281, 0.99219, 2.78125, 1.19531, 2.97656, 1.39062, 3.17969, 1.58594, 3.38281, 0.78906, 2.57812, 0, 1.78906, 0.19531, 1.98438, 0.39062, 2.1875, 0.59375, 2.38281, 0.99219, 2.78125, 1.19531, 2.97656, 1.39062, 3.17969, 1.58594, 3.38281, 0.78906],
  "SoftwareVersions": "syngo MR E11",
  "SpacingBetweenSlices": 2,
  "SpoilingState": true,
  "StationName": "AWP66112",
  "TotalReadoutTime": 0.0356956,
  "TxRefAmp": 226.98,
  "dcmmeta_affine": [
    [-1.9440703392028809, -0.2905432879924774, -0.0794212818145752, 144.42796325683594],
    [-0.3004482388496399, 1.8480244874954224, 0.6137714385986328, -106.45954895019531],
    [0.015777012333273888, -0.6085371375083923, 1.9018363952636719, -39.09902572631836],
    [0.0, 0.0, 0.0, 1.0]
],
  "dcmmeta_reorient_transform": [
    [0.0, -1.0, 0.0, 121.0],
    [1.0, 0.0, 0.0, 0.0],
    [0.0, 0.0, -1.0, 71.0],
    [0.0, 0.0, 0.0, 1.0]
],
  "dcmmeta_shape": [122, 122, 72, 31],
  "dcmmeta_slice_dim": 2,
  "dcmmeta_version": 0.6,
  "global": {
    "const": {
      "AccessionNumber": "qa",
      "AcquisitionMatrix": [122, 0, 0, 122],
      "AngioFlag": "N",
      "BitsAllocated": 16,
      "BitsStored": 12,
      "BodyPartExamined": "BRAIN",
      "Columns": 122,
      "EchoNumbers": 1,
      "EchoTime": 68.0,
      "EchoTrainLength": 61,
      "FlipAngle": 90.0,
      "HighBit": 11,
      "ImageOrientationPatient": [0.98823574277738, 0.15272785143242, 0.008019980927, -0.1476928416055, 0.93941245882739, 0.30933971089786],
      "ImageType": [
        "ORIGINAL",
        "PRIMARY",
        "DIFFUSION",
        "NONE",
        "ND",
        "NORM"
],
      "ImagedNucleus": "1H",
      "ImagingFrequency": 123.252419,
      "InPlanePhaseEncodingDirection": "COL",
      "MRAcquisitionType": "2D",
      "MagneticFieldStrength": 3.0,
      "Manufacturer": "SIEMENS",
      "ManufacturerModelName": "Prisma",
      "Modality": "MR",
      "NumberOfAverages": 1.0,
      "NumberOfPhaseEncodingSteps": 122,
      "PercentPhaseFieldOfView": 100.0,
      "PercentSampling": 100.0,
      "PerformedProcedureStepStartTime": "094115.130000",
      "PhotometricInterpretation": "MONOCHROME2",
      "PixelBandwidth": 2050.0,
      "PixelRepresentation": 0,
      "PixelSpacing": [1.9672131538391, 1.9672131538391],
      "ProtocolName": "dwi_acq-DTI-30-p2-s4",
      "RepetitionTime": 3600.0,
      "Rows": 122,
      "SAR": 0.16197349875783,
      "SamplesPerPixel": 1,
      "ScanOptions": "FS",
      "ScanningSequence": "EP",
      "SequenceVariant": [
        "SK",
        "SP"
],
      "SeriesDescription": "dwi_acq-DTI-30-p2-s4",
      "SeriesNumber": 9,
      "SeriesTime": "100131.075000",
      "SliceThickness": 2.0,
      "SmallestImagePixelValue": 0,
      "SoftwareVersions": "syngo MR E11",
      "SpacingBetweenSlices": 2.0,
      "SpecificCharacterSet": "ISO_IR 100",
      "StudyID": "96",
      "StudyTime": "094115.036000",
      "TransmitCoilName": "Body",
      "VariableFlipAngleFlag": "N",
      "WindowCenterWidthExplanation": "Algo1",
      "dBdt": 0.0},
    "slices": {
      "AcquisitionTime": ["100122.472500", "100119.887500", "100121.677500", "100120.087500", "100121.877500", "100120.285000", "100122.075000", "100120.485000", "100122.275000", "100120.882500", "100122.672500", "100121.082500", "100122.870000", "100121.280000", "100123.070000", "100121.480000", "100123.270000", "100120.682500", "100122.472500", "100119.887500", "100121.677500", "100120.087500", "100121.877500", "100120.285000", "100122.075000", "100120.485000", "100122.275000", "100120.882500", "100122.672500", "100121.082500", "100122.870000", "100121.280000", "100123.070000", "100121.480000", "100123.270000", "100120.682500", "100122.472500", "100119.887500", "100121.677500", "100120.087500", "100121.877500", "100120.285000", "100122.075000", "100120.485000", "100122.275000", "100120.882500", "100122.672500", "100121.082500", "100122.870000", "100121.280000", "100123.070000", "100121.480000", "100123.270000", "100120.682500", "100122.472500", "100119.887500", "100121.677500", "100120.087500", "100121.877500", "100120.285000", "100122.075000", "100120.485000", "100122.275000", "100120.882500", "100122.672500", "100121.082500", "100122.870000", "100121.280000", "100123.070000", "100121.480000", "100123.270000", "100120.682500", "100126.072500", "100123.487500", "100125.277500", "100123.687500", "100125.477500", "100123.885000", "100125.675000", "100124.085000", "100125.875000", "100124.482500", "100126.272500", "100124.682500", "100126.470000", "100124.880000", "100126.670000", "100125.080000", "100126.870000", "100124.282500", "100126.072500", "100123.487500", "100125.277500", "100123.687500", "100125.477500", "100123.885000", "100125.675000", "100124.085000", "100125.875000", "100124.482500", "100126.272500", "100124.682500", "100126.470000", "100124.880000", "100126.670000", "100125.080000", "100126.870000", "100124.282500", "100126.072500", "100123.487500", "100125.277500", "100123.687500", "100125.477500", "100123.885000", "100125.675000", "100124.085000", "100125.875000", "100124.482500", "100126.272500", "100124.682500", "100126.470000", "100124.880000", "100126.670000", "100125.080000", "100126.870000", "100124.282500", "100126.072500", "100123.487500", "100125.277500", "100123.687500", "100125.477500", "100123.885000", "100125.675000", "100124.085000", "100125.875000", "100124.482500", "100126.272500", "100124.682500", "100126.470000", "100124.880000", "100126.670000", "100125.080000", "100126.870000", "100124.282500", "100129.672500", "100127.087500", "100128.877500", "100127.287500", "100129.077500", "100127.485000", "100129.275000", "100127.685000", "100129.475000", "100128.082500", "100129.872500", "100128.282500", "100130.070000", "100128.480000", "100130.270000", "100128.680000", "100130.470000", "100127.882500", "100129.672500", "100127.087500", "100128.877500", "100127.287500", "100129.077500", "100127.485000", "100129.275000", "100127.685000", "100129.475000", "100128.082500", "100129.872500", "100128.282500", "100130.070000", "100128.480000", "100130.270000", "100128.680000", "100130.470000", "100127.882500", "100129.672500", "100127.087500", "100128.877500", "100127.287500", "100129.077500", "100127.485000", "100129.275000", "100127.685000", "100129.475000", "100128.082500", "100129.872500", "100128.282500", "100130.070000", "100128.480000", "100130.270000", "100128.680000", "100130.470000", "100127.882500", "100129.672500", "100127.087500", "100128.877500", "100127.287500", "100129.077500", "100127.485000", "100129.275000", "100127.685000", "100129.475000", "100128.082500", "100129.872500", "100128.282500", "100130.070000", "100128.480000", "100130.270000", "100128.680000", "100130.470000", "100127.882500", "100133.272500", "100130.687500", "100132.477500", "100130.887500", "100132.677500", "100131.085000", "100132.875000", "100131.285000", "100133.075000", "100131.682500", "100133.472500", "100131.882500", "100133.670000", "100132.080000", "100133.870000", "100132.280000", "100134.070000", "100131.482500", "100133.272500", "100130.687500", "100132.477500", "100130.887500", "100132.677500", "100131.085000", "100132.875000", "100131.285000", "100133.075000", "100131.682500", "100133.472500", "100131.882500", "100133.670000", "100132.080000", "100133.870000", "100132.280000", "100134.070000", "100131.482500", "100133.272500", "100130.687500", "100132.477500", "100130.887500", "100132.677500", "100131.085000", "100132.875000", "100131.285000", "100133.075000", "100131.682500", "100133.472500", "100131.882500", "100133.670000", "100132.080000", "100133.870000", "100132.280000", "100134.070000", "100131.482500", "100133.272500", "100130.687500", "100132.477500", "100130.887500", "100132.677500", "100131.085000", "100132.875000", "100131.285000", "100133.075000", "100131.682500", "100133.472500", "100131.882500", "100133.670000", "100132.080000", "100133.870000", "100132.280000", "100134.070000", "100131.482500", "100136.872500", "100134.287500", "100136.077500", "100134.487500", "100136.277500", "100134.685000", "100136.475000", "100134.885000", "100136.675000", "100135.282500", "100137.072500", "100135.482500", "100137.270000", "100135.680000", "100137.470000", "100135.880000", "100137.670000", "100135.082500", "100136.872500", "100134.287500", "100136.077500", "100134.487500", "100136.277500", "100134.685000", "100136.475000", "100134.885000", "100136.675000", "100135.282500", "100137.072500", "100135.482500", "100137.270000", "100135.680000", "100137.470000", "100135.880000", "100137.670000", "100135.082500", "100136.872500", "100134.287500", "100136.077500", "100134.487500", "100136.277500", "100134.685000", "100136.475000", "100134.885000", "100136.675000", "100135.282500", "100137.072500", "100135.482500", "100137.270000", "100135.680000", "100137.470000", "100135.880000", "100137.670000", "100135.082500", "100136.872500", "100134.287500", "100136.077500", "100134.487500", "100136.277500", "100134.685000", "100136.475000", "100134.885000", "100136.675000", "100135.282500", "100137.072500", "100135.482500", "100137.270000", "100135.680000", "100137.470000", "100135.880000", "100137.670000", "100135.082500", "100140.472500", "100137.887500", "100139.677500", "100138.087500", "100139.877500", "100138.285000", "100140.075000", "100138.485000", "100140.275000", "100138.882500", "100140.672500", "100139.082500", "100140.870000", "100139.280000", "100141.070000", "100139.480000", "100141.270000", "100138.682500", "100140.472500", "100137.887500", "100139.677500", "100138.087500", "100139.877500", "100138.285000", "100140.075000", "100138.485000", "100140.275000", "100138.882500", "100140.672500", "100139.082500", "100140.870000", "100139.280000", "100141.070000", "100139.480000", "100141.270000", "100138.682500", "100140.472500", "100137.887500", "100139.677500", "100138.087500", "100139.877500", "100138.285000", "100140.075000", "100138.485000", "100140.275000", "100138.882500", "100140.672500", "100139.082500", "100140.870000", "100139.280000", "100141.070000", "100139.480000", "100141.270000", "100138.682500", "100140.472500", "100137.887500", "100139.677500", "100138.087500", "100139.877500", "100138.285000", "100140.075000", "100138.485000", "100140.275000", "100138.882500", "100140.672500", "100139.082500", "100140.870000", "100139.280000", "100141.070000", "100139.480000", "100141.270000", "100138.682500", "100144.072500", "100141.487500", "100143.277500", "100141.687500", "100143.477500", "100141.885000", "100143.675000", "100142.085000", "100143.875000", "100142.482500", "100144.272500", "100142.682500", "100144.470000", "100142.880000", "100144.670000", "100143.080000", "100144.870000", "100142.282500", "100144.072500", "100141.487500", "100143.277500", "100141.687500", "100143.477500", "100141.885000", "100143.675000", "100142.085000", "100143.875000", "100142.482500", "100144.272500", "100142.682500", "100144.470000", "100142.880000", "100144.670000", "100143.080000", "100144.870000", "100142.282500", "100144.072500", "100141.487500", "100143.277500", "100141.687500", "100143.477500", "100141.885000", "100143.675000", "100142.085000", "100143.875000", "100142.482500", "100144.272500", "100142.682500", "100144.470000", "100142.880000", "100144.670000", "100143.080000", "100144.870000", "100142.282500", "100144.072500", "100141.487500", "100143.277500", "100141.687500", "100143.477500", "100141.885000", "100143.675000", "100142.085000", "100143.875000", "100142.482500", "100144.272500", "100142.682500", "100144.470000", "100142.880000", "100144.670000", "100143.080000", "100144.870000", "100142.282500", "100147.672500", "100145.087500", "100146.877500", "100145.287500", "100147.077500", "100145.485000", "100147.275000", "100145.685000", "100147.475000", "100146.082500", "100147.872500", "100146.282500", "100148.070000", "100146.480000", "100148.270000", "100146.680000", "100148.470000", "100145.882500", "100147.672500", "100145.087500", "100146.877500", "100145.287500", "100147.077500", "100145.485000", "100147.275000", "100145.685000", "100147.475000", "100146.082500", "100147.872500", "100146.282500", "100148.070000", "100146.480000", "100148.270000", "100146.680000", "100148.470000", "100145.882500", "100147.672500", "100145.087500", "100146.877500", "100145.287500", "100147.077500", "100145.485000", "100147.275000", "100145.685000", "100147.475000", "100146.082500", "100147.872500", "100146.282500", "100148.070000", "100146.480000", "100148.270000", "100146.680000", "100148.470000", "100145.882500", "100147.672500", "100145.087500", "100146.877500", "100145.287500", "100147.077500", "100145.485000", "100147.275000", "100145.685000", "100147.475000", "100146.082500", "100147.872500", "100146.282500", "100148.070000", "100146.480000", "100148.270000", "100146.680000", "100148.470000", "100145.882500", "100151.272500", "100148.687500", "100150.477500", "100148.887500", "100150.677500", "100149.085000", "100150.875000", "100149.285000", "100151.075000", "100149.682500", "100151.472500", "100149.882500", "100151.670000", "100150.080000", "100151.870000", "100150.280000", "100152.070000", "100149.482500", "100151.272500", "100148.687500", "100150.477500", "100148.887500", "100150.677500", "100149.085000", "100150.875000", "100149.285000", "100151.075000", "100149.682500", "100151.472500", "100149.882500", "100151.670000", "100150.080000", "100151.870000", "100150.280000", "100152.070000", "100149.482500", "100151.272500", "100148.687500", "100150.477500", "100148.887500", "100150.677500", "100149.085000", "100150.875000", "100149.285000", "100151.075000", "100149.682500", "100151.472500", "100149.882500", "100151.670000", "100150.080000", "100151.870000", "100150.280000", "100152.070000", "100149.482500", "100151.272500", "100148.687500", "100150.477500", "100148.887500", "100150.677500", "100149.085000", "100150.875000", "100149.285000", "100151.075000", "100149.682500", "100151.472500", "100149.882500", "100151.670000", "100150.080000", "100151.870000", "100150.280000", "100152.070000", "100149.482500", "100154.872500", "100152.287500", "100154.077500", "100152.487500", "100154.277500", "100152.685000", "100154.475000", "100152.885000", "100154.675000", "100153.282500", "100155.072500", "100153.482500", "100155.270000", "100153.680000", "100155.470000", "100153.880000", "100155.670000", "100153.082500", "100154.872500", "100152.287500", "100154.077500", "100152.487500", "100154.277500", "100152.685000", "100154.475000", "100152.885000", "100154.675000", "100153.282500", "100155.072500", "100153.482500", "100155.270000", "100153.680000", "100155.470000", "100153.880000", "100155.670000", "100153.082500", "100154.872500", "100152.287500", "100154.077500", "100152.487500", "100154.277500", "100152.685000", "100154.475000", "100152.885000", "100154.675000", "100153.282500", "100155.072500", "100153.482500", "100155.270000", "100153.680000", "100155.470000", "100153.880000", "100155.670000", "100153.082500", "100154.872500", "100152.287500", "100154.077500", "100152.487500", "100154.277500", "100152.685000", "100154.475000", "100152.885000", "100154.675000", "100153.282500", "100155.072500", "100153.482500", "100155.270000", "100153.680000", "100155.470000", "100153.880000", "100155.670000", "100153.082500", "100158.472500", "100155.887500", "100157.677500", "100156.087500", "100157.877500", "100156.285000", "100158.075000", "100156.485000", "100158.275000", "100156.882500", "100158.672500", "100157.082500", "100158.870000", "100157.280000", "100159.070000", "100157.480000", "100159.270000", "100156.682500", "100158.472500", "100155.887500", "100157.677500", "100156.087500", "100157.877500", "100156.285000", "100158.075000", "100156.485000", "100158.275000", "100156.882500", "100158.672500", "100157.082500", "100158.870000", "100157.280000", "100159.070000", "100157.480000", "100159.270000", "100156.682500", "100158.472500", "100155.887500", "100157.677500", "100156.087500", "100157.877500", "100156.285000", "100158.075000", "100156.485000", "100158.275000", "100156.882500", "100158.672500", "100157.082500", "100158.870000", "100157.280000", "100159.070000", "100157.480000", "100159.270000", "100156.682500", "100158.472500", "100155.887500", "100157.677500", "100156.087500", "100157.877500", "100156.285000", "100158.075000", "100156.485000", "100158.275000", "100156.882500", "100158.672500", "100157.082500", "100158.870000", "100157.280000", "100159.070000", "100157.480000", "100159.270000", "100156.682500", "100202.072500", "100159.487500", "100201.277500", "100159.687500", "100201.477500", "100159.885000", "100201.675000", "100200.085000", "100201.875000", "100200.482500", "100202.272500", "100200.682500", "100202.470000", "100200.880000", "100202.670000", "100201.080000", "100202.870000", "100200.282500", "100202.072500", "100159.487500", "100201.277500", "100159.687500", "100201.477500", "100159.885000", "100201.675000", "100200.085000", "100201.875000", "100200.482500", "100202.272500", "100200.682500", "100202.470000", "100200.880000", "100202.670000", "100201.080000", "100202.870000", "100200.282500", "100202.072500", "100159.487500", "100201.277500", "100159.687500", "100201.477500", "100159.885000", "100201.675000", "100200.085000", "100201.875000", "100200.482500", "100202.272500", "100200.682500", "100202.470000", "100200.880000", "100202.670000", "100201.080000", "100202.870000", "100200.282500", "100202.072500", "100159.487500", "100201.277500", "100159.687500", "100201.477500", "100159.885000", "100201.675000", "100200.085000", "100201.875000", "100200.482500", "100202.272500", "100200.682500", "100202.470000", "100200.880000", "100202.670000", "100201.080000", "100202.870000", "100200.282500", "100205.672500", "100203.087500", "100204.877500", "100203.287500", "100205.077500", "100203.485000", "100205.275000", "100203.685000", "100205.475000", "100204.082500", "100205.872500", "100204.282500", "100206.070000", "100204.480000", "100206.270000", "100204.680000", "100206.470000", "100203.882500", "100205.672500", "100203.087500", "100204.877500", "100203.287500", "100205.077500", "100203.485000", "100205.275000", "100203.685000", "100205.475000", "100204.082500", "100205.872500", "100204.282500", "100206.070000", "100204.480000", "100206.270000", "100204.680000", "100206.470000", "100203.882500", "100205.672500", "100203.087500", "100204.877500", "100203.287500", "100205.077500", "100203.485000", "100205.275000", "100203.685000", "100205.475000", "100204.082500", "100205.872500", "100204.282500", "100206.070000", "100204.480000", "100206.270000", "100204.680000", "100206.470000", "100203.882500", "100205.672500", "100203.087500", "100204.877500", "100203.287500", "100205.077500", "100203.485000", "100205.275000", "100203.685000", "100205.475000", "100204.082500", "100205.872500", "100204.282500", "100206.070000", "100204.480000", "100206.270000", "100204.680000", "100206.470000", "100203.882500", "100209.272500", "100206.687500", "100208.477500", "100206.887500", "100208.677500", "100207.085000", "100208.875000", "100207.285000", "100209.075000", "100207.682500", "100209.472500", "100207.882500", "100209.670000", "100208.080000", "100209.870000", "100208.280000", "100210.070000", "100207.482500", "100209.272500", "100206.687500", "100208.477500", "100206.887500", "100208.677500", "100207.085000", "100208.875000", "100207.285000", "100209.075000", "100207.682500", "100209.472500", "100207.882500", "100209.670000", "100208.080000", "100209.870000", "100208.280000", "100210.070000", "100207.482500", "100209.272500", "100206.687500", "100208.477500", "100206.887500", "100208.677500", "100207.085000", "100208.875000", "100207.285000", "100209.075000", "100207.682500", "100209.472500", "100207.882500", "100209.670000", "100208.080000", "100209.870000", "100208.280000", "100210.070000", "100207.482500", "100209.272500", "100206.687500", "100208.477500", "100206.887500", "100208.677500", "100207.085000", "100208.875000", "100207.285000", "100209.075000", "100207.682500", "100209.472500", "100207.882500", "100209.670000", "100208.080000", "100209.870000", "100208.280000", "100210.070000", "100207.482500", "100212.872500", "100210.287500", "100212.077500", "100210.487500", "100212.277500", "100210.685000", "100212.475000", "100210.885000", "100212.675000", "100211.282500", "100213.072500", "100211.482500", "100213.270000", "100211.680000", "100213.470000", "100211.880000", "100213.670000", "100211.082500", "100212.872500", "100210.287500", "100212.077500", "100210.487500", "100212.277500", "100210.685000", "100212.475000", "100210.885000", "100212.675000", "100211.282500", "100213.072500", "100211.482500", "100213.270000", "100211.680000", "100213.470000", "100211.880000", "100213.670000", "100211.082500", "100212.872500", "100210.287500", "100212.077500", "100210.487500", "100212.277500", "100210.685000", "100212.475000", "100210.885000", "100212.675000", "100211.282500", "100213.072500", "100211.482500", "100213.270000", "100211.680000", "100213.470000", "100211.880000", "100213.670000", "100211.082500", "100212.872500", "100210.287500", "100212.077500", "100210.487500", "100212.277500", "100210.685000", "100212.475000", "100210.885000", "100212.675000", "100211.282500", "100213.072500", "100211.482500", "100213.270000", "100211.680000", "100213.470000", "100211.880000", "100213.670000", "100211.082500", "100216.472500", "100213.887500", "100215.677500", "100214.087500", "100215.877500", "100214.285000", "100216.075000", "100214.485000", "100216.275000", "100214.882500", "100216.672500", "100215.082500", "100216.870000", "100215.280000", "100217.070000", "100215.480000", "100217.270000", "100214.682500", "100216.472500", "100213.887500", "100215.677500", "100214.087500", "100215.877500", "100214.285000", "100216.075000", "100214.485000", "100216.275000", "100214.882500", "100216.672500", "100215.082500", "100216.870000", "100215.280000", "100217.070000", "100215.480000", "100217.270000", "100214.682500", "100216.472500", "100213.887500", "100215.677500", "100214.087500", "100215.877500", "100214.285000", "100216.075000", "100214.485000", "100216.275000", "100214.882500", "100216.672500", "100215.082500", "100216.870000", "100215.280000", "100217.070000", "100215.480000", "100217.270000", "100214.682500", "100216.472500", "100213.887500", "100215.677500", "100214.087500", "100215.877500", "100214.285000", "100216.075000", "100214.485000", "100216.275000", "100214.882500", "100216.672500", "100215.082500", "100216.870000", "100215.280000", "100217.070000", "100215.480000", "100217.270000", "100214.682500", "100220.072500", "100217.487500", "100219.277500", "100217.687500", "100219.477500", "100217.885000", "100219.675000", "100218.085000", "100219.875000", "100218.482500", "100220.272500", "100218.682500", "100220.470000", "100218.880000", "100220.670000", "100219.080000", "100220.870000", "100218.282500", "100220.072500", "100217.487500", "100219.277500", "100217.687500", "100219.477500", "100217.885000", "100219.675000", "100218.085000", "100219.875000", "100218.482500", "100220.272500", "100218.682500", "100220.470000", "100218.880000", "100220.670000", "100219.080000", "100220.870000", "100218.282500", "100220.072500", "100217.487500", "100219.277500", "100217.687500", "100219.477500", "100217.885000", "100219.675000", "100218.085000", "100219.875000", "100218.482500", "100220.272500", "100218.682500", "100220.470000", "100218.880000", "100220.670000", "100219.080000", "100220.870000", "100218.282500", "100220.072500", "100217.487500", "100219.277500", "100217.687500", "100219.477500", "100217.885000", "100219.675000", "100218.085000", "100219.875000", "100218.482500", "100220.272500", "100218.682500", "100220.470000", "100218.880000", "100220.670000", "100219.080000", "100220.870000", "100218.282500", "100223.672500", "100221.087500", "100222.877500", "100221.287500", "100223.077500", "100221.485000", "100223.275000", "100221.685000", "100223.475000", "100222.082500", "100223.872500", "100222.282500", "100224.070000", "100222.480000", "100224.270000", "100222.680000", "100224.470000", "100221.882500", "100223.672500", "100221.087500", "100222.877500", "100221.287500", "100223.077500", "100221.485000", "100223.275000", "100221.685000", "100223.475000", "100222.082500", "100223.872500", "100222.282500", "100224.070000", "100222.480000", "100224.270000", "100222.680000", "100224.470000", "100221.882500", "100223.672500", "100221.087500", "100222.877500", "100221.287500", "100223.077500", "100221.485000", "100223.275000", "100221.685000", "100223.475000", "100222.082500", "100223.872500", "100222.282500", "100224.070000", "100222.480000", "100224.270000", "100222.680000", "100224.470000", "100221.882500", "100223.672500", "100221.087500", "100222.877500", "100221.287500", "100223.077500", "100221.485000", "100223.275000", "100221.685000", "100223.475000", "100222.082500", "100223.872500", "100222.282500", "100224.070000", "100222.480000", "100224.270000", "100222.680000", "100224.470000", "100221.882500", "100227.272500", "100224.687500", "100226.477500", "100224.887500", "100226.677500", "100225.085000", "100226.875000", "100225.285000", "100227.075000", "100225.682500", "100227.472500", "100225.882500", "100227.670000", "100226.080000", "100227.870000", "100226.280000", "100228.070000", "100225.482500", "100227.272500", "100224.687500", "100226.477500", "100224.887500", "100226.677500", "100225.085000", "100226.875000", "100225.285000", "100227.075000", "100225.682500", "100227.472500", "100225.882500", "100227.670000", "100226.080000", "100227.870000", "100226.280000", "100228.070000", "100225.482500", "100227.272500", "100224.687500", "100226.477500", "100224.887500", "100226.677500", "100225.085000", "100226.875000", "100225.285000", "100227.075000", "100225.682500", "100227.472500", "100225.882500", "100227.670000", "100226.080000", "100227.870000", "100226.280000", "100228.070000", "100225.482500", "100227.272500", "100224.687500", "100226.477500", "100224.887500", "100226.677500", "100225.085000", "100226.875000", "100225.285000", "100227.075000", "100225.682500", "100227.472500", "100225.882500", "100227.670000", "100226.080000", "100227.870000", "100226.280000", "100228.070000", "100225.482500", "100230.872500", "100228.287500", "100230.077500", "100228.487500", "100230.277500", "100228.685000", "100230.475000", "100228.885000", "100230.675000", "100229.282500", "100231.072500", "100229.482500", "100231.270000", "100229.680000", "100231.470000", "100229.880000", "100231.670000", "100229.082500", "100230.872500", "100228.287500", "100230.077500", "100228.487500", "100230.277500", "100228.685000", "100230.475000", "100228.885000", "100230.675000", "100229.282500", "100231.072500", "100229.482500", "100231.270000", "100229.680000", "100231.470000", "100229.880000", "100231.670000", "100229.082500", "100230.872500", "100228.287500", "100230.077500", "100228.487500", "100230.277500", "100228.685000", "100230.475000", "100228.885000", "100230.675000", "100229.282500", "100231.072500", "100229.482500", "100231.270000", "100229.680000", "100231.470000", "100229.880000", "100231.670000", "100229.082500", "100230.872500", "100228.287500", "100230.077500", "100228.487500", "100230.277500", "100228.685000", "100230.475000", "100228.885000", "100230.675000", "100229.282500", "100231.072500", "1002