{
  "AcquisitionMatrixPE": 80,
  "AcquisitionNumber": 1,
  "AcquisitionTime": "09:19:47.152500",
  "BandwidthPerPixelPhaseEncode": 44.643,
  "BaseResolution": 80,
  "BodyPartExamined": "BRAIN",
  "CoilCombinationMethod": "Sum of Squares",
  "ConsistencyInfo": "N4_VE11C_LATEST_20160120",
  "ConversionSoftware": "dcm2niix",
  "ConversionSoftwareVersion": "v1.0.20220720",
  "DerivedVendorReportedEchoSpacing": 0.000559998,
  "DeviceSerialNumber": "66112",
  "DwellTime": 2.7e-06,
  "EchoTime": 0.035,
  "EchoTrainLength": 39,
  "EffectiveEchoSpacing": 0.000279999,
  "FlipAngle": 90,
  "HeudiconvVersion": "0.13.1",
  "ImageOrientationPatientDICOM": [0.988003, -0.154432, 0.00065641, 0.146953, 0.941445, 0.303458],
  "ImageOrientationText": "Tra>Cor(17.5)>Sag(2.7)",
  "ImageType": [
    "ORIGINAL",
    "PRIMARY",
    "M",
    "ND",
    "NORM",
    "MOSAIC"
],
  "ImagingFrequency": 123.252,
  "InPlanePhaseEncodingDirectionDICOM": "COL",
  "InstitutionAddress": "Maynard 3,Hanover,NH,US,03755",
  "InstitutionName": "Dartmouth College - PBS",
  "InstitutionalDepartmentName": "Department",
  "MRAcquisitionType": "2D",
  "MagneticFieldStrength": 3,
  "Manufacturer": "Siemens",
  "ManufacturersModelName": "Prisma",
  "Modality": "MR",
  "MultibandAccelerationFactor": 4,
  "NonlinearGradientCorrection": false,
  "ParallelReductionFactorInPlane": 2,
  "PartialFourier": 1,
  "PatientPosition": "HFS",
  "PercentPhaseFOV": 100,
  "PercentSampling": 100,
  "PhaseEncodingDirection": "j-",
  "PhaseEncodingSteps": 79,
  "PhaseResolution": 1,
  "PixelBandwidth": 2315,
  "ProcedureStepDescription": "dbic^QA",
  "ProtocolName": "func-bold_task-rest_acq-p2-s4-3.5mm",
  "PulseSequenceDetails": "%SiemensSeq%\\ep2d_bold",
  "ReceiveCoilActiveElements": "HEA;HEP",
  "ReceiveCoilName": "Head_32",
  "ReconMatrixPE": 80,
  "RefLinesPE": 24,
  "RepetitionTime": 2,
  "SAR": 0.0178525,
  "ScanOptions": "FS",
  "ScanningSequence": "EP",
  "SequenceName": "*epfid2d1_80",
  "SequenceVariant": "SK",
  "SeriesDescription": "func-bold_task-rest_acq-p2-s4-3.5mm",
  "SeriesNumber": 7,
  "ShimSetting": [4158, -7694, -7545, 260, 4, -70, -33, 137],
  "SliceThickness": 3.5,
  "SliceTiming": [1.485, 0, 0.99, 0.2475, 1.2375, 0.7425, 1.7325, 0.495, 1.485, 0, 0.99, 0.2475, 1.2375, 0.7425, 1.7325, 0.495, 1.485, 0, 0.99, 0.2475, 1.2375, 0.7425, 1.7325, 0.495, 1.485, 0, 0.99, 0.2475, 1.2375, 0.7425, 1.7325, 0.495],
  "SoftwareVersions": "syngo MR E11",
  "SpacingBetweenSlices": 3.99,
  "StationName": "AWP66112",
  "TaskName": "rest",
  "TotalReadoutTime": 0.0221199,
  "TxRefAmp": 217.85,
  "dcmmeta_affine": [
    [-2.9640095233917236, 0.4408589005470276, 0.18945127725601196, 95.63504791259766],
    [0.46329596638679504, 2.8243343830108643, 1.1958850622177124, -147.37879943847656],
    [0.001969229429960251, -0.9103725552558899, 3.8018505573272705, -35.46445846557617],
    [0.0, 0.0, 0.0, 1.0]
],
  "dcmmeta_reorient_transform": [
    [0.0, -1.0, 0.0, 79.0],
    [1.0, 0.0, 0.0, 0.0],
    [0.0, 0.0, 1.0, 0.0],
    [0.0, 0.0, 0.0, 1.0]
],
  "dcmmeta_shape": [80, 80, 32, 200],
  "dcmmeta_slice_dim": 2,
  "dcmmeta_version": 0.6,
  "global": {
    "const": {
      "AccessionNumber": "qa",
      "AcquisitionMatrix": [80, 0, 0, 80],
      "AngioFlag": "N",
      "BitsAllocated": 16,
      "BitsStored": 12,
      "BodyPartExamined": "BRAIN",
      "Columns": 480,
      "EchoNumbers": 1,
      "EchoTime": 35.0,
      "EchoTrainLength": 39,
      "FlipAngle": 90.0,
      "HighBit": 11,
      "ImageOrientationPatient": [0.98800320356235, -0.1544319878673, 0.0006564098362, 0.14695296782488, 0.94144482303858, 0.30345752655241],
      "ImagePositionPatient": [-811.43660326514, -547.9513291071, -289.85225484189],
      "ImageType": [
        "ORIGINAL",
        "PRIMARY",
        "M",
        "ND",
        "NORM",
        "MOSAIC"
],
      "ImagedNucleus": "1H",
      "ImagingFrequency": 123.252338,
      "InPlanePhaseEncodingDirection": "COL",
      "MRAcquisitionType": "2D",
      "MagneticFieldStrength": 3.0,
      "Manufacturer": "SIEMENS",
      "ManufacturerModelName": "Prisma",
      "Modality": "MR",
      "NumberOfAverages": 1.0,
      "NumberOfPhaseEncodingSteps": 79,
      "PercentPhaseFieldOfView": 100.0,
      "PercentSampling": 100.0,
      "PerformedProcedureStepStartTime": "090758.840000",
      "PhotometricInterpretation": "MONOCHROME2",
      "PixelBandwidth": 2315.0,
      "PixelRepresentation": 0,
      "PixelSpacing": [3.0, 3.0],
      "ProtocolName": "func-bold_task-rest_acq-p2-s4-3.5mm",
      "RepetitionTime": 2000.0,
      "Rows": 480,
      "SAR": 0.01785248232399,
      "SamplesPerPixel": 1,
      "ScanOptions": "FS",
      "ScanningSequence": "EP",
      "SequenceName": "*epfid2d1_80",
      "SequenceVariant": "SK",
      "SeriesDescription": "func-bold_task-rest_acq-p2-s4-3.5mm",
      "SeriesNumber": 7,
      "SeriesTime": "092034.324000",
      "SliceLocation": -73.423678836893,
      "SliceThickness": 3.5,
      "SmallestImagePixelValue": 0,
      "SoftwareVersions": "syngo MR E11",
      "SpacingBetweenSlices": 3.9900000879616,
      "SpecificCharacterSet": "ISO_IR 100",
      "StudyID": "47",
      "StudyTime": "090758.791000",
      "TransmitCoilName": "Body",
      "VariableFlipAngleFlag": "N",
      "WindowCenter": 996.0,
      "WindowCenterWidthExplanation": "Algo1",
      "dBdt": 0.0},
    "slices": {}
  },
  "time": {
    "samples": {
      "AcquisitionNumber": [1, 2, 3, 4, 5, 6, 7, 8, 9, 10, 11, 12, 13, 14, 15, 16, 17, 18, 19, 20, 21, 22, 23, 24, 25, 26, 27, 28, 29, 30, 31, 32, 33, 34, 35, 36, 37, 38, 39, 40, 41, 42, 43, 44, 45, 46, 47, 48, 49, 50, 51, 52, 53, 54, 55, 56, 57, 58, 59, 60, 61, 62, 63, 64, 65, 66, 67, 68, 69, 70, 71, 72, 73, 74, 75, 76, 77, 78, 79, 80, 81, 82, 83, 84, 85, 86, 87, 88, 89, 90, 91, 92, 93, 94, 95, 96, 97, 98, 99, 100, 101, 102, 103, 104, 105, 106, 107, 108, 109, 110, 111, 112, 113, 114, 115, 116, 117, 118, 119, 120, 121, 122, 123, 124, 125, 126, 127, 128, 129, 130, 131, 132, 133, 134, 135, 136, 137, 138, 139, 140, 141, 142, 143, 144, 145, 146, 147, 148, 149, 150, 151, 152, 153, 154, 155, 156, 157, 158, 159, 160, 161, 162, 163, 164, 165, 166, 167, 168, 169, 170, 171, 172, 173, 174, 175, 176, 177, 178, 179, 180, 181, 182, 183, 184, 185, 186, 187, 188, 189, 190, 191, 192, 193, 194, 195, 196, 197, 198, 199, 200],
      "AcquisitionTime": ["091947.152500", "091949.152500", "091951.152500", "091953.152500", "091955.152500", "091957.152500", "091959.152500", "092001.152500", "092003.152500", "092005.152500", "092007.152500", "092009.152500", "092011.152500", "092013.152500", "092015.152500", "092017.152500", "092019.152500", "092021.152500", "092023.152500", "092025.152500", "092027.152500", "092029.152500", "092031.152500", "092033.152500", "092035.152500", "092037.152500", "092039.152500", "092041.152500", "092043.152500", "092045.152500", "092047.152500", "092049.152500", "092051.152500", "092053.152500", "092055.152500", "092057.152500", "092059.152500", "092101.152500", "092103.152500", "092105.152500", "092107.152500", "092109.152500", "092111.152500", "092113.152500", "092115.152500", "092117.152500", "092119.152500", "092121.152500", "092123.152500", "092125.152500", "092127.152500", "092129.152500", "092131.152500", "092133.152500", "092135.152500", "092137.152500", "092139.152500", "092141.152500", "092143.152500", "092145.152500", "092147.152500", "092149.152500", "092151.152500", "092153.152500", "092155.152500", "092157.152500", "092159.152500", "092201.152500", "092203.152500", "092205.152500", "092207.152500", "092209.152500", "092211.152500", "092213.152500", "092215.152500", "092217.152500", "092219.152500", "092221.152500", "092223.152500", "092225.152500", "092227.152500", "092229.152500", "092231.152500", "092233.152500", "092235.152500", "092237.152500", "092239.152500", "092241.152500", "092243.152500", "092245.152500", "092247.152500", "092249.152500", "092251.152500", "092253.152500", "092255.152500", "092257.152500", "092259.152500", "092301.152500", "092303.152500", "092305.152500", "092307.152500", "092309.152500", "092311.152500", "092313.152500", "092315.152500", "092317.152500", "092319.152500", "092321.152500", "092323.152500", "092325.152500", "092327.152500", "092329.152500", "092331.152500", "092333.152500", "092335.152500", "092337.152500", "092339.152500", "092341.152500", "092343.152500", "092345.152500", "092347.152500", "092349.152500", "092351.152500", "092353.152500", "092355.152500", "092357.152500", "092359.152500", "092401.152500", "092403.152500", "092405.152500", "092407.152500", "092409.152500", "092411.152500", "092413.152500", "092415.152500", "092417.152500", "092419.152500", "092421.152500", "092423.152500", "092425.152500", "092427.152500", "092429.152500", "092431.152500", "092433.152500", "092435.152500", "092437.152500", "092439.152500", "092441.152500", "092443.152500", "092445.152500", "092447.152500", "092449.152500", "092451.152500", "092453.152500", "092455.152500", "092457.152500", "092459.152500", "092501.152500", "092503.152500", "092505.152500", "092507.152500", "092509.152500", "092511.152500", "092513.152500", "092515.152500", "092517.152500", "092519.152500", "092521.152500", "092523.152500", "092525.152500", "092527.152500", "092529.152500", "092531.152500", "092533.152500", "092535.152500", "092537.152500", "092539.152500", "092541.152500", "092543.152500", "092545.152500", "092547.152500", "092549.152500", "092551.152500", "092553.152500", "092555.152500", "092557.152500", "092559.152500", "092601.152500", "092603.152500", "092605.152500", "092607.152500", "092609.152500", "092611.152500", "092613.152500", "092615.152500", "092617.152500", "092619.152500", "092621.152500", "092623.152500", "092625.152500"],
      "ContentTime": ["092034.327000", "092034.331000", "092034.333000", "092034.346000", "092034.348000", "092034.351000", "092034.354000", "092034.356000", "092034.359000", "092034.361000", "092034.364000", "092034.366000", "092034.369000", "092034.371000", "092034.379000", "092034.388000", "092034.390000", "092034.393000", "092034.395000", "092034.398000", "092034.418000", "092034.420000", "092034.423000", "092034.425000", "092054.323000", "092054.325000", "092054.334000", "092054.336000", "092054.339000", "092054.341000", "092054.344000", "092054.347000", "092054.349000", "092054.352000", "092134.323000", "092134.325000", "092134.328000", "092134.331000", "092134.333000", "092134.336000", "092134.339000", "092134.341000", "092134.344000", "092134.346000", "092134.356000", "092134.358000", "092134.361000", "092134.363000", "092134.366000", "092134.368000", "092134.371000", "092134.374000", "092134.376000", "092134.379000", "092214.323000", "092214.325000", "092214.328000", "092214.331000", "092214.333000", "092214.336000", "092214.338000", "092214.341000", "092214.344000", "092214.346000", "092214.349000", "092214.351000", "092214.354000", "092214.364000", "092214.367000", "092214.369000", "092214.372000", "092214.375000", "092214.377000", "092214.380000", "092254.323000", "092254.325000", "092254.328000", "092254.331000", "092254.333000", "092254.336000", "092254.338000", "092254.341000", "092254.343000", "092254.346000", "092254.349000", "092254.351000", "092254.354000", "092254.356000", "092254.359000", "092254.362000", "092254.364000", "092254.367000", "092254.369000", "092254.372000", "092334.324000", "092334.326000", "092334.329000", "092334.332000", "092334.334000", "092334.337000", "092334.339000", "092334.342000", "092334.345000", "092334.347000", "092334.350000", "092334.352000", "092334.355000", "092334.358000", "092334.360000", "092334.363000", "092334.365000", "092334.368000", "092334.377000", "092334.379000", "092414.323000", "092414.325000", "092414.328000", "092414.331000", "092414.333000", "092414.336000", "092414.339000", "092414.341000", "092414.344000", "092414.347000", "092414.349000", "092414.352000", "092414.355000", "092414.357000", "092414.360000", "092414.362000", "092414.365000", "092414.367000", "092414.370000", "092414.373000", "092454.323000", "092454.325000", "092454.328000", "092454.330000", "092454.333000", "092454.336000", "092454.338000", "092454.341000", "092454.343000", "092454.346000", "092454.348000", "092454.351000", "092454.354000", "092454.356000", "092454.359000", "092454.361000", "092454.364000", "092454.367000", "092454.369000", "092454.372000", "092534.324000", "092534.326000", "092534.329000", "092534.332000", "092534.334000", "092534.337000", "092534.339000", "092534.342000", "092534.345000", "092534.347000", "092534.350000", "092534.352000", "092534.355000", "092534.358000", "092534.360000", "092534.363000", "092534.366000", "092534.368000", "092534.371000", "092534.373000", "092614.323000", "092614.325000", "092614.328000", "092614.331000", "092614.333000", "092614.336000", "092614.338000", "092614.341000", "092614.344000", "092614.346000", "092614.349000", "092614.351000", "092614.354000", "092614.357000", "092614.359000", "092614.362000", "092614.364000", "092614.367000", "092614.369000", "092614.372000", "092626.199000", "092626.202000", "092626.205000", "092626.207000", "092626.210000", "092626.213000"],
      "InstanceCreationTime": ["092034.327000", "092034.331000", "092034.333000", "092034.346000", "092034.348000", "092034.351000", "092034.354000", "092034.356000", "092034.359000", "092034.361000", "092034.364000", "092034.366000", "092034.369000", "092034.371000", "092034.379000", "092034.388000", "092034.390000", "092034.393000", "092034.395000", "092034.398000", "092034.418000", "092034.420000", "092034.423000", "092034.425000", "092054.323000", "092054.325000", "092054.334000", "092054.336000", "092054.339000", "092054.341000", "092054.344000", "092054.347000", "092054.349000", "092054.352000", "092134.323000", "092134.325000", "092134.328000", "092134.331000", "092134.333000", "092134.336000", "092134.339000", "092134.341000", "092134.344000", "092134.346000", "092134.356000", "092134.358000", "092134.361000", "092134.363000", "092134.366000", "092134.368000", "092134.371000", "092134.374000", "092134.376000", "092134.379000", "092214.323000", "092214.325000", "092214.328000", "092214.331000", "092214.333000", "092214.336000", "092214.338000", "092214.341000", "092214.344000", "092214.346000", "092214.349000", "092214.351000", "092214.354000", "092214.364000", "092214.367000", "092214.369000", "092214.372000", "092214.375000", "092214.377000", "092214.380000", "092254.323000", "092254.325000", "092254.328000", "092254.331000", "092254.333000", "092254.336000", "092254.338000", "092254.341000", "092254.343000", "092254.346000", "092254.349000", "092254.351000", "092254.354000", "092254.356000", "092254.359000", "092254.362000", "092254.364000", "092254.367000", "092254.369000", "092254.372000", "092334.324000", "092334.326000", "092334.329000", "092334.332000", "092334.334000", "092334.337000", "092334.339000", "092334.342000", "092334.345000", "092334.347000", "092334.350000", "092334.352000", "092334.355000", "092334.358000", "092334.360000", "092334.363000", "092334.365000", "092334.368000", "092334.377000", "092334.379000", "092414.323000", "092414.325000", "092414.328000", "092414.331000", "092414.333000", "092414.336000", "092414.339000", "092414.341000", "092414.344000", "092414.347000", "092414.349000", "092414.352000", "092414.355000", "092414.357000", "092414.360000", "092414.362000", "092414.365000", "092414.367000", "092414.370000", "092414.373000", "092454.323000", "092454.325000", "092454.328000", "092454.330000", "092454.333000", "092454.336000", "092454.338000", "092454.341000", "092454.343000", "092454.346000", "092454.348000", "092454.351000", "092454.354000", "092454.356000", "092454.359000", "092454.361000", "092454.364000", "092454.367000", "092454.369000", "092454.372000", "092534.324000", "092534.326000", "092534.329000", "092534.332000", "092534.334000", "092534.337000", "092534.339000", "092534.342000", "092534.345000", "092534.347000", "092534.350000", "092534.352000", "092534.355000", "092534.358000", "092534.360000", "092534.363000", "092534.366000", "092534.368000", "092534.371000", "092534.373000", "092614.323000", "092614.325000", "092614.328000", "092614.331000", "092614.333000", "092614.336000", "092614.338000", "092614.341000", "092614.344000", "092614.346000", "092614.349000", "092614.351000", "092614.354000", "092614.357000", "092614.359000", "092614.362000", "092614.364000", "092614.367000", "092614.369000", "092614.372000", "092626.199000", "092626.202000", "092626.205000", "092626.207000", "092626.210000", "092626.213000"],
      "InstanceNumber": [1, 2, 3, 4, 5, 6, 7, 8, 9, 10, 11, 12, 13, 14, 15, 16, 17, 18, 19, 20, 21, 22, 23, 24, 25, 26, 27, 28, 29, 30, 31, 32, 33, 34, 35, 36, 37, 38, 39, 40, 41, 42, 43, 44, 45, 46, 47, 48, 49, 50, 51, 52, 53, 54, 55, 56, 57, 58, 59, 60, 61, 62, 63, 64, 65, 66, 67, 68, 69, 70, 71, 72, 73, 74, 75, 76, 77, 78, 79, 80, 81, 82, 83, 84, 85, 86, 87, 88, 89, 90, 91, 92, 93, 94, 95, 96, 97, 98, 99, 100, 101, 102, 103, 104, 105, 106, 107, 108, 109, 110, 111, 112, 113, 114, 115, 116, 117, 118, 119, 120, 121, 122, 123, 124, 125, 126, 127, 128, 129, 130, 131, 132, 133, 134, 135, 136, 137, 138, 139, 140, 141, 142, 143, 144, 145, 146, 147, 148, 149, 150, 151, 152, 153, 154, 155, 156, 157, 158, 159, 160, 161, 162, 163, 164, 165, 166, 167, 168, 169, 170, 171, 172, 173, 174, 175, 176, 177, 178, 179, 180, 181, 182, 183, 184, 185, 186, 187, 188, 189, 190, 191, 192, 193, 194, 195, 196, 197, 198, 199, 200],
      "LargestImagePixelValue": [2471, 2468, 2467, 2465, 2469, 2474, 2469, 2466, 2473, 2468, 2467, 2468, 2471, 2473, 2465, 2470, 2469, 2473, 2468, 2466, 2470, 2469, 2472, 2471, 2468, 2462, 2465, 2469, 2467, 2471, 2468, 2471, 2469, 2461, 2466, 2468, 2471, 2469, 2464, 2467, 2466, 2468, 2468, 2464, 2464, 2466, 2470, 2468, 2473, 2468, 2464, 2467, 2470, 2467, 2470, 2467, 2467, 2465, 2467, 2460, 2470, 2471, 2466, 2465, 2469, 2468, 2465, 2468, 2466, 2466, 2464, 2465, 2465, 2469, 2471, 2463, 2470, 2469, 2463, 2470, 2466, 2473, 2464, 2468, 2467, 2469, 2466, 2465, 2468, 2465, 2469, 2463, 2462, 2461, 2462, 2469, 2463, 2467, 2466, 2467, 2469, 2469, 2465, 2468, 2462, 2466, 2467, 2464, 2464, 2463, 2469, 2466, 2461, 2469, 2462, 2468, 2471, 2464, 2465, 2470, 2472, 2464, 2472, 2463, 2464, 2458, 2463, 2466, 2464, 2465, 2467, 2462, 2469, 2469, 2466, 2471, 2472, 2465, 2463, 2465, 2465, 2466, 2464, 2461, 2465, 2469, 2465, 2465, 2465, 2467, 2465, 2467, 2465, 2461, 2467, 2462, 2467, 2470, 2465, 2468, 2460, 2463, 2470, 2464, 2463, 2465, 2467, 2468, 2464, 2471, 2465, 2464, 2464, 2460, 2467, 2467, 2464, 2470, 2460, 2468, 2460, 2462, 2464, 2461, 2464, 2468, 2463, 2467, 2467, 2467, 2460, 2462, 2464, 2466, 2464, 2464, 2462, 2472, 2467, 2463],
      "WindowWidth": [2409.0, 2408.0, 2408.0, 2409.0, 2408.0, 2409.0, 2408.0, 2408.0, 2409.0, 2408.0, 2408.0, 2408.0, 2408.0, 2408.0, 2408.0, 2408.0, 2408.0, 2408.0, 2408.0, 2408.0, 2408.0, 2408.0, 2408.0, 2408.0, 2408.0, 2408.0, 2408.0, 2408.0, 2408.0, 2408.0, 2408.0, 2408.0, 2408.0, 2408.0, 2407.0, 2408.0, 2408.0, 2408.0, 2408.0, 2408.0, 2407.0, 2408.0, 2408.0, 2408.0, 2408.0, 2408.0, 2408.0, 2407.0, 2408.0, 2408.0, 2407.0, 2408.0, 2408.0, 2408.0, 2408.0, 2408.0, 2408.0, 2408.0, 2408.0, 2408.0, 2408.0, 2408.0, 2408.0, 2408.0, 2408.0, 2408.0, 2408.0, 2408.0, 2408.0, 2408.0, 2408.0, 2407.0, 2408.0, 2408.0, 2408.0, 2408.0, 2408.0, 2408.0, 2408.0, 2408.0, 2408.0, 2408.0, 2408.0, 2408.0, 2408.0, 2408.0, 2408.0, 2408.0, 2408.0, 2408.0, 2407.0, 2407.0, 2408.0, 2407.0, 2407.0, 2407.0, 2407.0, 2407.0, 2408.0, 2407.0, 2407.0, 2408.0, 2407.0, 2407.0, 2407.0, 2407.0, 2407.0, 2408.0, 2408.0, 2407.0, 2407.0, 2408.0, 2408.0, 2407.0, 2407.0, 2407.0, 2407.0, 2408.0, 2407.0, 2407.0, 2407.0, 2407.0, 2408.0, 2407.0, 2407.0, 2407.0, 2407.0, 2407.0, 2407.0, 2408.0, 2408.0, 2407.0, 2408.0, 2407.0, 2408.0, 2408.0, 2408.0, 2407.0, 2407.0, 2407.0, 2407.0, 2407.0, 2407.0, 2407.0, 2407.0, 2407.0, 2407.0, 2407.0, 2407.0, 2407.0, 2408.0, 2407.0, 2407.0, 2407.0, 2407.0, 2407.0, 2408.0, 2407.0, 2408.0, 2407.0, 2407.0, 2407.0, 2407.0, 2407.0, 2407.0, 2407.0, 2407.0, 2407.0, 2407.0, 2408.0, 2407.0, 2407.0, 2407.0, 2407.0, 2407.0, 2407.0, 2407.0, 2407.0, 2407.0, 2407.0, 2407.0, 2407.0, 2407.0, 2408.0, 2407.0, 2407.0, 2407.0, 2407.0, 2407.0, 2407.0, 2407.0, 2407.0, 2407.0, 2407.0, 2407.0, 2407.0, 2407.0, 2407.0, 2407.0, 2407.0]
    },
    "slices": {}
  }
}