{
  "AcquisitionMatrixPE": 80,
  "AcquisitionNumber": 1,
  "AcquisitionTime": "09:12:52.877500",
  "BandwidthPerPixelPhaseEncode": 48.077,
  "BaseResolution": 80,
  "BodyPartExamined": "BRAIN",
  "CoilCombinationMethod": "Sum of Squares",
  "ConsistencyInfo": "N4_VE11C_LATEST_20160120",
  "ConversionSoftware": "dcm2niix",
  "ConversionSoftwareVersion": "v1.0.20220720",
  "DerivedVendorReportedEchoSpacing": 0.000519999,
  "DeviceSerialNumber": "66112",
  "DwellTime": 2.7e-06,
  "EchoTime": 0.035,
  "EchoTrainLength": 39,
  "EffectiveEchoSpacing": 0.00026,
  "FlipAngle": 90,
  "HeudiconvVersion": "0.13.1",
  "ImageOrientationPatientDICOM": [0.988003, -0.154432, 0.00065641, 0.146953, 0.941445, 0.303458],
  "ImageOrientationText": "Tra>Cor(17.5)>Sag(2.7)",
  "ImageType": [
    "ORIGINAL",
    "PRIMARY",
    "M",
    "ND",
    "NORM",
    "MOSAIC"
],
  "ImagingFrequency": 123.252,
  "InPlanePhaseEncodingDirectionDICOM": "COL",
  "InstitutionAddress": "Maynard 3,Hanover,NH,US,03755",
  "InstitutionName": "Dartmouth College - PBS",
  "InstitutionalDepartmentName": "Department",
  "MRAcquisitionType": "2D",
  "MagneticFieldStrength": 3,
  "Manufacturer": "Siemens",
  "ManufacturersModelName": "Prisma",
  "MatrixCoilMode": "GRAPPA",
  "Modality": "MR",
  "NonlinearGradientCorrection": false,
  "ParallelReductionFactorInPlane": 2,
  "PartialFourier": 1,
  "PatientPosition": "HFS",
  "PercentPhaseFOV": 100,
  "PercentSampling": 100,
  "PhaseEncodingDirection": "j-",
  "PhaseEncodingSteps": 79,
  "PhaseResolution": 1,
  "PixelBandwidth": 2315,
  "ProcedureStepDescription": "dbic^QA",
  "ProtocolName": "func-bold_task-rest_acq-p2",
  "PulseSequenceDetails": "%SiemensSeq%\\ep2d_bold",
  "ReceiveCoilActiveElements": "HEA;HEP",
  "ReceiveCoilName": "Head_32",
  "ReconMatrixPE": 80,
  "RefLinesPE": 24,
  "RepetitionTime": 2,
  "SAR": 0.0474763,
  "ScanOptions": "FS",
  "ScanningSequence": "EP",
  "SequenceName": "*epfid2d1_80",
  "SequenceVariant": "SK",
  "SeriesDescription": "func-bold_task-rest_acq-p2",
  "SeriesNumber": 5,
  "ShimSetting": [4158, -7694, -7545, 262, 6, -62, -32, 139],
  "SliceThickness": 3.5,
  "SliceTiming": [0.99, 0, 1.055, 0.065, 1.1225, 0.1325, 1.1875, 0.1975, 1.255, 0.265, 1.32, 0.33, 1.385, 0.395, 1.4525, 0.4625, 1.5175, 0.5275, 1.585, 0.595, 1.65, 0.66, 1.715, 0.725, 1.7825, 0.7925, 1.8475, 0.8575, 1.915, 0.925],
  "SoftwareVersions": "syngo MR E11",
  "SpacingBetweenSlices": 3.99,
  "StationName": "AWP66112",
  "TaskName": "rest",
  "TotalReadoutTime": 0.02054,
  "TxRefAmp": 217.85,
  "dcmmeta_affine": [
    [-2.9640095233917236, 0.4408589005470276, 0.18945127725601196, 95.82450103759766],
    [0.46329596638679504, 2.8243343830108643, 1.1958849430084229, -146.1829071044922],
    [0.001969229429960251, -0.9103725552558899, 3.8018505573272705, -31.662609100341797],
    [0.0, 0.0, 0.0, 1.0]
],
  "dcmmeta_reorient_transform": [
    [0.0, -1.0, 0.0, 79.0],
    [1.0, 0.0, 0.0, 0.0],
    [0.0, 0.0, 1.0, 0.0],
    [0.0, 0.0, 0.0, 1.0]
],
  "dcmmeta_shape": [80, 80, 30, 200],
  "dcmmeta_slice_dim": 2,
  "dcmmeta_version": 0.6,
  "global": {
    "const": {
      "AccessionNumber": "qa",
      "AcquisitionMatrix": [80, 0, 0, 80],
      "AngioFlag": "N",
      "BitsAllocated": 16,
      "BitsStored": 12,
      "BodyPartExamined": "BRAIN",
      "Columns": 480,
      "EchoNumbers": 1,
      "EchoTime": 35.0,
      "EchoTrainLength": 39,
      "FlipAngle": 90.0,
      "HighBit": 11,
      "ImageOrientationPatient": [0.98800320356235, -0.1544319878673, 0.0006564098362, 0.14695296782488, 0.94144482303858, 0.30345752655241],
      "ImagePositionPatient": [-811.62605448279, -549.14721381169, -286.05040547666],
      "ImageType": [
        "ORIGINAL",
        "PRIMARY",
        "M",
        "ND",
        "NORM",
        "MOSAIC"
],
      "ImagedNucleus": "1H",
      "ImagingFrequency": 123.252338,
      "InPlanePhaseEncodingDirection": "COL",
      "MRAcquisitionType": "2D",
      "MagneticFieldStrength": 3.0,
      "Manufacturer": "SIEMENS",
      "ManufacturerModelName": "Prisma",
      "Modality": "MR",
      "NumberOfAverages": 1.0,
      "NumberOfPhaseEncodingSteps": 79,
      "PercentPhaseFieldOfView": 100.0,
      "PercentSampling": 100.0,
      "PerformedProcedureStepStartTime": "090758.840000",
      "PhotometricInterpretation": "MONOCHROME2",
      "PixelBandwidth": 2315.0,
      "PixelRepresentation": 0,
      "PixelSpacing": [3.0, 3.0],
      "ProtocolName": "func-bold_task-rest_acq-p2",
      "RepetitionTime": 2000.0,
      "Rows": 480,
      "SAR": 0.04747632717406,
      "SamplesPerPixel": 1,
      "ScanOptions": "FS",
      "ScanningSequence": "EP",
      "SequenceName": "*epfid2d1_80",
      "SequenceVariant": "SK",
      "SeriesDescription": "func-bold_task-rest_acq-p2",
      "SeriesNumber": 5,
      "SeriesTime": "091334.253000",
      "SliceLocation": -69.433680016533,
      "SliceThickness": 3.5,
      "SmallestImagePixelValue": 0,
      "SoftwareVersions": "syngo MR E11",
      "SpacingBetweenSlices": 3.990000049922,
      "SpecificCharacterSet": "ISO_IR 100",
      "StudyID": "47",
      "StudyTime": "090758.791000",
      "TransmitCoilName": "Body",
      "VariableFlipAngleFlag": "N",
      "WindowCenterWidthExplanation": "Algo1",
      "dBdt": 0.0},
    "slices": {}
  },
  "time": {
    "samples": {
      "AcquisitionNumber": [1, 2, 3, 4, 5, 6, 7, 8, 9, 10, 11, 12, 13, 14, 15, 16, 17, 18, 19, 20, 21, 22, 23, 24, 25, 26, 27, 28, 29, 30, 31, 32, 33, 34, 35, 36, 37, 38, 39, 40, 41, 42, 43, 44, 45, 46, 47, 48, 49, 50, 51, 52, 53, 54, 55, 56, 57, 58, 59, 60, 61, 62, 63, 64, 65, 66, 67, 68, 69, 70, 71, 72, 73, 74, 75, 76, 77, 78, 79, 80, 81, 82, 83, 84, 85, 86, 87, 88, 89, 90, 91, 92, 93, 94, 95, 96, 97, 98, 99, 100, 101, 102, 103, 104, 105, 106, 107, 108, 109, 110, 111, 112, 113, 114, 115, 116, 117, 118, 119, 120, 121, 122, 123, 124, 125, 126, 127, 128, 129, 130, 131, 132, 133, 134, 135, 136, 137, 138, 139, 140, 141, 142, 143, 144, 145, 146, 147, 148, 149, 150, 151, 152, 153, 154, 155, 156, 157, 158, 159, 160, 161, 162, 163, 164, 165, 166, 167, 168, 169, 170, 171, 172, 173, 174, 175, 176, 177, 178, 179, 180, 181, 182, 183, 184, 185, 186, 187, 188, 189, 190, 191, 192, 193, 194, 195, 196, 197, 198, 199, 200],
      "AcquisitionTime": ["091252.877500", "091254.877500", "091256.877500", "091258.877500", "091300.877500", "091302.877500", "091304.877500", "091306.877500", "091308.877500", "091310.877500", "091312.877500", "091314.877500", "091316.877500", "091318.877500", "091320.877500", "091322.877500", "091324.877500", "091326.877500", "091328.877500", "091330.877500", "091332.877500", "091334.877500", "091336.877500", "091338.877500", "091340.877500", "091342.877500", "091344.877500", "091346.877500", "091348.877500", "091350.877500", "091352.877500", "091354.877500", "091356.877500", "091358.877500", "091400.877500", "091402.877500", "091404.877500", "091406.877500", "091408.877500", "091410.877500", "091412.877500", "091414.877500", "091416.877500", "091418.877500", "091420.877500", "091422.877500", "091424.877500", "091426.877500", "091428.877500", "091430.877500", "091432.877500", "091434.877500", "091436.877500", "091438.877500", "091440.877500", "091442.877500", "091444.877500", "091446.877500", "091448.877500", "091450.877500", "091452.877500", "091454.877500", "091456.877500", "091458.877500", "091500.877500", "091502.877500", "091504.877500", "091506.877500", "091508.877500", "091510.877500", "091512.877500", "091514.877500", "091516.877500", "091518.877500", "091520.877500", "091522.877500", "091524.877500", "091526.877500", "091528.877500", "091530.877500", "091532.877500", "091534.877500", "091536.877500", "091538.877500", "091540.877500", "091542.877500", "091544.877500", "091546.877500", "091548.877500", "091550.877500", "091552.877500", "091554.877500", "091556.877500", "091558.877500", "091600.877500", "091602.877500", "091604.877500", "091606.877500", "091608.877500", "091610.877500", "091612.877500", "091614.877500", "091616.877500", "091618.877500", "091620.877500", "091622.877500", "091624.877500", "091626.877500", "091628.877500", "091630.877500", "091632.877500", "091634.877500", "091636.877500", "091638.877500", "091640.877500", "091642.877500", "091644.877500", "091646.877500", "091648.877500", "091650.877500", "091652.877500", "091654.877500", "091656.877500", "091658.877500", "091700.877500", "091702.877500", "091704.877500", "091706.877500", "091708.877500", "091710.877500", "091712.877500", "091714.877500", "091716.877500", "091718.877500", "091720.877500", "091722.877500", "091724.877500", "091726.877500", "091728.877500", "091730.877500", "091732.877500", "091734.877500", "091736.877500", "091738.877500", "091740.877500", "091742.877500", "091744.877500", "091746.877500", "091748.877500", "091750.877500", "091752.877500", "091754.877500", "091756.877500", "091758.877500", "091800.877500", "091802.877500", "091804.877500", "091806.877500", "091808.877500", "091810.877500", "091812.877500", "091814.877500", "091816.877500", "091818.877500", "091820.877500", "091822.877500", "091824.877500", "091826.877500", "091828.877500", "091830.877500", "091832.877500", "091834.877500", "091836.877500", "091838.877500", "091840.877500", "091842.877500", "091844.877500", "091846.877500", "091848.877500", "091850.877500", "091852.877500", "091854.877500", "091856.877500", "091858.877500", "091900.877500", "091902.877500", "091904.877500", "091906.877500", "091908.877500", "091910.877500", "091912.877500", "091914.877500", "091916.877500", "091918.877500", "091920.877500", "091922.877500", "091924.877500", "091926.877500", "091928.877500", "091930.877500"],
      "ContentTime": ["091334.256000", "091334.260000", "091334.262000", "091334.265000", "091334.268000", "091334.270000", "091334.273000", "091334.275000", "091334.278000", "091334.281000", "091334.283000", "091334.286000", "091334.288000", "091334.291000", "091334.293000", "091334.296000", "091334.299000", "091334.301000", "091334.304000", "091334.314000", "091334.316000", "091414.253000", "091414.255000", "091414.258000", "091414.261000", "091414.263000", "091414.266000", "091414.268000", "091414.271000", "091414.273000", "091414.276000", "091414.279000", "091414.281000", "091414.284000", "091414.286000", "091414.289000", "091414.291000", "091414.294000", "091414.297000", "091414.299000", "091414.302000", "091454.252000", "091454.254000", "091454.275000", "091454.277000", "091454.280000", "091454.282000", "091454.285000", "091454.287000", "091454.290000", "091454.293000", "091454.295000", "091454.298000", "091454.300000", "091454.303000", "091454.305000", "091454.308000", "091454.311000", "091454.313000", "091454.316000", "091454.318000", "091534.251000", "091534.254000", "091534.257000", "091534.260000", "091534.262000", "091534.265000", "091534.267000", "091534.270000", "091534.272000", "091534.275000", "091534.277000", "091534.280000", "091534.283000", "091534.285000", "091534.288000", "091534.290000", "091534.293000", "091534.295000", "091534.298000", "091534.301000", "091614.252000", "091614.255000", "091614.257000", "091614.260000", "091614.262000", "091614.265000", "091614.268000", "091614.270000", "091614.273000", "091614.275000", "091614.278000", "091614.280000", "091614.283000", "091614.286000", "091614.288000", "091614.291000", "091614.293000", "091614.296000", "091614.298000", "091614.301000", "091654.252000", "091654.254000", "091654.257000", "091654.260000", "091654.262000", "091654.265000", "091654.267000", "091654.270000", "091654.272000", "091654.275000", "091654.290000", "091654.293000", "091654.295000", "091654.298000", "091654.301000", "091654.303000", "091654.306000", "091654.308000", "091654.311000", "091654.313000", "091734.251000", "091734.254000", "091734.257000", "091734.259000", "091734.262000", "091734.265000", "091734.267000", "091734.270000", "091734.272000", "091734.275000", "091734.278000", "091734.280000", "091734.283000", "091734.285000", "091734.288000", "091734.291000", "091734.293000", "091734.296000", "091734.298000", "091734.301000", "091814.252000", "091814.254000", "091814.257000", "091814.260000", "091814.262000", "091814.265000", "091814.267000", "091814.270000", "091814.272000", "091814.275000", "091814.278000", "091814.280000", "091814.283000", "091814.285000", "091814.288000", "091814.291000", "091814.293000", "091814.296000", "091814.298000", "091814.301000", "091854.253000", "091854.255000", "091854.258000", "091854.261000", "091854.263000", "091854.266000", "091854.268000", "091854.271000", "091854.274000", "091854.276000", "091854.279000", "091854.281000", "091854.284000", "091854.286000", "091854.289000", "091854.302000", "091854.305000", "091854.307000", "091854.310000", "091854.313000", "091932.197000", "091932.199000", "091932.202000", "091932.205000", "091932.208000", "091932.210000", "091932.213000", "091932.216000", "091932.218000", "091932.221000", "091932.224000", "091932.230000", "091932.233000", "091932.236000", "091932.238000", "091932.243000", "091932.249000", "091932.252000", "091932.255000"],
      "InstanceCreationTime": ["091334.256000", "091334.260000", "091334.262000", "091334.265000", "091334.268000", "091334.270000", "091334.273000", "091334.275000", "091334.278000", "091334.281000", "091334.283000", "091334.286000", "091334.288000", "091334.291000", "091334.293000", "091334.296000", "091334.299000", "091334.301000", "091334.304000", "091334.314000", "091334.316000", "091414.253000", "091414.255000", "091414.258000", "091414.261000", "091414.263000", "091414.266000", "091414.268000", "091414.271000", "091414.273000", "091414.276000", "091414.279000", "091414.281000", "091414.284000", "091414.286000", "091414.289000", "091414.291000", "091414.294000", "091414.297000", "091414.299000", "091414.302000", "091454.252000", "091454.254000", "091454.275000", "091454.277000", "091454.280000", "091454.282000", "091454.285000", "091454.287000", "091454.290000", "091454.293000", "091454.295000", "091454.298000", "091454.300000", "091454.303000", "091454.305000", "091454.308000", "091454.311000", "091454.313000", "091454.316000", "091454.318000", "091534.251000", "091534.254000", "091534.257000", "091534.260000", "091534.262000", "091534.265000", "091534.267000", "091534.270000", "091534.272000", "091534.275000", "091534.277000", "091534.280000", "091534.283000", "091534.285000", "091534.288000", "091534.290000", "091534.293000", "091534.295000", "091534.298000", "091534.301000", "091614.252000", "091614.255000", "091614.257000", "091614.260000", "091614.262000", "091614.265000", "091614.268000", "091614.270000", "091614.273000", "091614.275000", "091614.278000", "091614.280000", "091614.283000", "091614.286000", "091614.288000", "091614.291000", "091614.293000", "091614.296000", "091614.298000", "091614.301000", "091654.252000", "091654.254000", "091654.257000", "091654.260000", "091654.262000", "091654.265000", "091654.267000", "091654.270000", "091654.272000", "091654.275000", "091654.290000", "091654.293000", "091654.295000", "091654.298000", "091654.301000", "091654.303000", "091654.306000", "091654.308000", "091654.311000", "091654.313000", "091734.251000", "091734.254000", "091734.257000", "091734.259000", "091734.262000", "091734.265000", "091734.267000", "091734.270000", "091734.272000", "091734.275000", "091734.278000", "091734.280000", "091734.283000", "091734.285000", "091734.288000", "091734.291000", "091734.293000", "091734.296000", "091734.298000", "091734.301000", "091814.252000", "091814.254000", "091814.257000", "091814.260000", "091814.262000", "091814.265000", "091814.267000", "091814.270000", "091814.272000", "091814.275000", "091814.278000", "091814.280000", "091814.283000", "091814.285000", "091814.288000", "091814.291000", "091814.293000", "091814.296000", "091814.298000", "091814.301000", "091854.253000", "091854.255000", "091854.258000", "091854.261000", "091854.263000", "091854.266000", "091854.268000", "091854.271000", "091854.274000", "091854.276000", "091854.279000", "091854.281000", "091854.284000", "091854.286000", "091854.289000", "091854.302000", "091854.305000", "091854.307000", "091854.310000", "091854.313000", "091932.197000", "091932.199000", "091932.202000", "091932.205000", "091932.208000", "091932.210000", "091932.213000", "091932.216000", "091932.218000", "091932.221000", "091932.224000", "091932.230000", "091932.233000", "091932.236000", "091932.238000", "091932.243000", "091932.249000", "091932.252000", "091932.255000"],
      "InstanceNumber": [1, 2, 3, 4, 5, 6, 7, 8, 9, 10, 11, 12, 13, 14, 15, 16, 17, 18, 19, 20, 21, 22, 23, 24, 25, 26, 27, 28, 29, 30, 31, 32, 33, 34, 35, 36, 37, 38, 39, 40, 41, 42, 43, 44, 45, 46, 47, 48, 49, 50, 51, 52, 53, 54, 55, 56, 57, 58, 59, 60, 61, 62, 63, 64, 65, 66, 67, 68, 69, 70, 71, 72, 73, 74, 75, 76, 77, 78, 79, 80, 81, 82, 83, 84, 85, 86, 87, 88, 89, 90, 91, 92, 93, 94, 95, 96, 97, 98, 99, 100, 101, 102, 103, 104, 105, 106, 107, 108, 109, 110, 111, 112, 113, 114, 115, 116, 117, 118, 119, 120, 121, 122, 123, 124, 125, 126, 127, 128, 129, 130, 131, 132, 133, 134, 135, 136, 137, 138, 139, 140, 141, 142, 143, 144, 145, 146, 147, 148, 149, 150, 151, 152, 153, 154, 155, 156, 157, 158, 159, 160, 161, 162, 163, 164, 165, 166, 167, 168, 169, 170, 171, 172, 173, 174, 175, 176, 177, 178, 179, 180, 181, 182, 183, 184, 185, 186, 187, 188, 189, 190, 191, 192, 193, 194, 195, 196, 197, 198, 199, 200],
      "LargestImagePixelValue": [2522, 2513, 2518, 2513, 2515, 2513, 2512, 2509, 2516, 2525, 2506, 2504, 2515, 2516, 2513, 2509, 2508, 2517, 2497, 2506, 2514, 2513, 2507, 2506, 2514, 2516, 2506, 2516, 2518, 2523, 2509, 2518, 2507, 2512, 2512, 2493, 2515, 2517, 2505, 2511, 2504, 2509, 2522, 2519, 2507, 2514, 2504, 2516, 2509, 2518, 2504, 2516, 2511, 2508, 2500, 2518, 2507, 2509, 2516, 2507, 2518, 2512, 2509, 2510, 2506, 2509, 2500, 2512, 2509, 2501, 2506, 2508, 2507, 2501, 2509, 2512, 2512, 2510, 2511, 2504, 2503, 2509, 2513, 2514, 2507, 2516, 2513, 2509, 2526, 2503, 2517, 2506, 2516, 2511, 2507, 2510, 2503, 2509, 2504, 2506, 2513, 2509, 2489, 2499, 2515, 2512, 2517, 2505, 2517, 2505, 2500, 2504, 2507, 2504, 2513, 2507, 2505, 2504, 2517, 2514, 2503, 2505, 2507, 2506, 2501, 2508, 2511, 2512, 2508, 2506, 2507, 2506, 2516, 2511, 2505, 2508, 2518, 2521, 2509, 2514, 2509, 2512, 2514, 2508, 2505, 2507, 2495, 2508, 2506, 2506, 2502, 2514, 2520, 2510, 2506, 2507, 2508, 2510, 2498, 2501, 2509, 2504, 2522, 2511, 2505, 2494, 2500, 2514, 2506, 2512, 2506, 2505, 2509, 2507, 2505, 2502, 2514, 2505, 2511, 2507, 2517, 2509, 2503, 2512, 2501, 2516, 2499, 2509, 2510, 2514, 2517, 2508, 2511, 2496, 2507, 2508, 2513, 2501, 2513, 2503],
      "WindowCenter": [1090.0, 1090.0, 1090.0, 1090.0, 1090.0, 1090.0, 1090.0, 1090.0, 1090.0, 1090.0, 1090.0, 1090.0, 1090.0, 1090.0, 1090.0, 1090.0, 1090.0, 1089.0, 1089.0, 1089.0, 1090.0, 1089.0, 1090.0, 1089.0, 1090.0, 1090.0, 1089.0, 1089.0, 1090.0, 1090.0, 1090.0, 1090.0, 1089.0, 1089.0, 1090.0, 1089.0, 1089.0, 1089.0, 1089.0, 1089.0, 1089.0, 1089.0, 1089.0, 1089.0, 1089.0, 1089.0, 1089.0, 1089.0, 1089.0, 1089.0, 1089.0, 1090.0, 1089.0, 1089.0, 1089.0, 1089.0, 1089.0, 1089.0, 1089.0, 1089.0, 1089.0, 1089.0, 1089.0, 1089.0, 1089.0, 1089.0, 1089.0, 1089.0, 1089.0, 1089.0, 1089.0, 1089.0, 1089.0, 1089.0, 1089.0, 1089.0, 1089.0, 1089.0, 1089.0, 1089.0, 1089.0, 1089.0, 1089.0, 1089.0, 1089.0, 1089.0, 1089.0, 1089.0, 1089.0, 1089.0, 1089.0, 1089.0, 1089.0, 1089.0, 1089.0, 1089.0, 1089.0, 1089.0, 1089.0, 1089.0, 1089.0, 1089.0, 1089.0, 1089.0, 1089.0, 1089.0, 1089.0, 1089.0, 1089.0, 1089.0, 1089.0, 1089.0, 1089.0, 1089.0, 1089.0, 1089.0, 1089.0, 1089.0, 1089.0, 1089.0, 1089.0, 1089.0, 1089.0, 1089.0, 1089.0, 1089.0, 1089.0, 1089.0, 1089.0, 1089.0, 1089.0, 1089.0, 1089.0, 1089.0, 1089.0, 1089.0, 1089.0, 1089.0, 1089.0, 1089.0, 1089.0, 1089.0, 1089.0, 1089.0, 1089.0, 1089.0, 1089.0, 1089.0, 1089.0, 1089.0, 1089.0, 1089.0, 1089.0, 1089.0, 1089.0, 1089.0, 1089.0, 1089.0, 1089.0, 1089.0, 1089.0, 1089.0, 1089.0, 1088.0, 1089.0, 1088.0, 1089.0, 1089.0, 1089.0, 1089.0, 1089.0, 1089.0, 1089.0, 1089.0, 1089.0, 1089.0, 1088.0, 1089.0, 1089.0, 1089.0, 1089.0, 1089.0, 1089.0, 1088.0, 1089.0, 1088.0, 1088.0, 1089.0, 1088.0, 1088.0, 1088.0, 1088.0, 1088.0, 1089.0, 1088.0, 1088.0, 1088.0, 1088.0, 1088.0, 1088.0],
      "WindowWidth": [2484.0, 2484.0, 2483.0, 2484.0, 2484.0, 2484.0, 2484.0, 2484.0, 2484.0, 2484.0, 2484.0, 2484.0, 2483.0, 2484.0, 2484.0, 2484.0, 2483.0, 2484.0, 2484.0, 2484.0, 2483.0, 2484.0, 2483.0, 2484.0, 2483.0, 2483.0, 2483.0, 2484.0, 2483.0, 2483.0, 2483.0, 2483.0, 2483.0, 2483.0, 2483.0, 2483.0, 2483.0, 2483.0, 2483.0, 2483.0, 2483.0, 2483.0, 2483.0, 2483.0, 2483.0, 2483.0, 2483.0, 2483.0, 2483.0, 2483.0, 2483.0, 2482.0, 2483.0, 2482.0, 2482.0, 2483.0, 2483.0, 2483.0, 2483.0, 2483.0, 2482.0, 2482.0, 2483.0, 2483.0, 2482.0, 2482.0, 2482.0, 2482.0, 2482.0, 2483.0, 2482.0, 2482.0, 2482.0, 2482.0, 2482.0, 2482.0, 2482.0, 2483.0, 2482.0, 2482.0, 2482.0, 2482.0, 2482.0, 2482.0, 2482.0, 2482.0, 2482.0, 2482.0, 2482.0, 2482.0, 2482.0, 2482.0, 2482.0, 2482.0, 2482.0, 2482.0, 2482.0, 2482.0, 2482.0, 2482.0, 2482.0, 2482.0, 2482.0, 2482.0, 2482.0, 2482.0, 2482.0, 2482.0, 2482.0, 2482.0, 2481.0, 2482.0, 2482.0, 2482.0, 2482.0, 2481.0, 2482.0, 2482.0, 2482.0, 2482.0, 2482.0, 2482.0, 2482.0, 2482.0, 2482.0, 2482.0, 2482.0, 2482.0, 2482.0, 2482.0, 2482.0, 2482.0, 2482.0, 2482.0, 2482.0, 2482.0, 2482.0, 2482.0, 2482.0, 2482.0, 2482.0, 2482.0, 2482.0, 2482.0, 2482.0, 2482.0, 2482.0, 2482.0, 2482.0, 2482.0, 2482.0, 2482.0, 2482.0, 2482.0, 2482.0, 2482.0, 2482.0, 2482.0, 2482.0, 2481.0, 2481.0, 2482.0, 2482.0, 2482.0, 2482.0, 2482.0, 2482.0, 2482.0, 2482.0, 2482.0, 2481.0, 2482.0, 2482.0, 2482.0, 2482.0, 2481.0, 2481.0, 2481.0, 2482.0, 2482.0, 2481.0, 2481.0, 2481.0, 2481.0, 2481.0, 2481.0, 2481.0, 2481.0, 2481.0, 2481.0, 2481.0, 2481.0, 2481.0, 2481.0, 2481.0, 2481.0, 2481.0, 2481.0, 2481.0, 2481.0]
    },
    "slices": {}
  }
}