{
  "AcquisitionMatrixPE": 80,
  "AcquisitionNumber": 1,
  "AcquisitionTime": "09:07:52.777500",
  "BandwidthPerPixelPhaseEncode": 48.077,
  "BaseResolution": 80,
  "BodyPartExamined": "BRAIN",
  "CoilCombinationMethod": "Sum of Squares",
  "ConsistencyInfo": "N4_VE11E_LATEST_20181129",
  "ConversionSoftware": "dcm2niix",
  "ConversionSoftwareVersion": "v1.0.20220720",
  "DerivedVendorReportedEchoSpacing": 0.000519999,
  "DeviceSerialNumber": "66112",
  "DwellTime": 2.7e-06,
  "EchoTime": 0.035,
  "EchoTrainLength": 39,
  "EffectiveEchoSpacing": 0.00026,
  "FlipAngle": 90,
  "HeudiconvVersion": "0.13.1",
  "ImageOrientationPatientDICOM": [0.999939, 0.0101325, 0.00438646, -0.0109954, 0.949992, 0.31208],
  "ImageOrientationText": "Tra>Cor(18.2)>Sag(0.1)",
  "ImageType": [
    "ORIGINAL",
    "PRIMARY",
    "M",
    "ND",
    "NORM",
    "MOSAIC"
],
  "ImagingFrequency": 123.259,
  "InPlanePhaseEncodingDirectionDICOM": "COL",
  "InstitutionAddress": "Maynard 3,Hanover,NH,US,03755",
  "InstitutionName": "Dartmouth College - PBS",
  "InstitutionalDepartmentName": "Department",
  "MRAcquisitionType": "2D",
  "MagneticFieldStrength": 3,
  "Manufacturer": "Siemens",
  "ManufacturersModelName": "Prisma",
  "MatrixCoilMode": "GRAPPA",
  "Modality": "MR",
  "NonlinearGradientCorrection": false,
  "ParallelReductionFactorInPlane": 2,
  "PartialFourier": 1,
  "PatientPosition": "HFS",
  "PercentPhaseFOV": 100,
  "PercentSampling": 100,
  "PhaseEncodingDirection": "j-",
  "PhaseEncodingSteps": 79,
  "PhaseResolution": 1,
  "PixelBandwidth": 2315,
  "ProcedureStepDescription": "dbic^QA",
  "ProtocolName": "func-bold_task-rest_acq-p2",
  "PulseSequenceDetails": "%SiemensSeq%\\ep2d_bold",
  "ReceiveCoilActiveElements": "HC1-7;NC1,2",
  "ReceiveCoilName": "HeadNeck_64",
  "ReconMatrixPE": 80,
  "RefLinesPE": 24,
  "RepetitionTime": 2,
  "SAR": 0.0444929,
  "ScanOptions": "FS",
  "ScanningSequence": "EP",
  "SequenceName": "*epfid2d1_80",
  "SequenceVariant": "SK",
  "SeriesDescription": "func-bold_task-rest_acq-p2",
  "SeriesNumber": 5,
  "ShimSetting": [4217, -7742, -7483, -128, -157, -137, -58, 89],
  "SliceThickness": 3.5,
  "SliceTiming": [0.99, 0, 1.055, 0.065, 1.12, 0.13, 1.1875, 0.1975, 1.2525, 0.2625, 1.32, 0.33, 1.385, 0.395, 1.45, 0.46, 1.5175, 0.5275, 1.5825, 0.5925, 1.65, 0.66, 1.715, 0.725, 1.78, 0.79, 1.8475, 0.8575, 1.9125, 0.9225],
  "SoftwareVersions": "syngo MR E11",
  "SpacingBetweenSlices": 3.99,
  "StationName": "AWP66112",
  "TaskName": "rest",
  "TotalReadoutTime": 0.02054,
  "TxRefAmp": 212.97,
  "dcmmeta_affine": [
    [-2.999817132949829, -0.032986175268888474, 0.004009746480733156, 123.27135467529297],
    [-0.030397502705454826, 2.8499767780303955, 1.2453150749206543, -121.65973663330078],
    [0.013159365393221378, -0.9362395405769348, 3.790682554244995, -15.753671646118164],
    [0.0, 0.0, 0.0, 1.0]
],
  "dcmmeta_reorient_transform": [
    [0.0, -1.0, 0.0, 79.0],
    [1.0, 0.0, 0.0, 0.0],
    [0.0, 0.0, 1.0, 0.0],
    [0.0, 0.0, 0.0, 1.0]
],
  "dcmmeta_shape": [80, 80, 30, 200],
  "dcmmeta_slice_dim": 2,
  "dcmmeta_version": 0.6,
  "global": {
    "const": {
      "AccessionNumber": "qa64",
      "AcquisitionMatrix": [80, 0, 0, 80],
      "AngioFlag": "N",
      "BitsAllocated": 16,
      "BitsStored": 12,
      "BodyPartExamined": "BRAIN",
      "Columns": 480,
      "EchoNumbers": 1,
      "EchoTime": 35.0,
      "EchoTrainLength": 39,
      "FlipAngle": 90.0,
      "HighBit": 11,
      "ImageOrientationPatient": [0.99993904385764, 0.01013250120804, 0.00438645509928, -0.0109953920653, 0.94999224875937, 0.3120798433902],
      "ImagePositionPatient": [-714.03163514873, -679.56327464267, -279.59637364534],
      "ImageType": [
        "ORIGINAL",
        "PRIMARY",
        "M",
        "ND",
        "NORM",
        "MOSAIC"
],
      "ImagedNucleus": "1H",
      "ImagingFrequency": 123.25928,
      "InPlanePhaseEncodingDirection": "COL",
      "MRAcquisitionType": "2D",
      "MagneticFieldStrength": 3.0,
      "Manufacturer": "SIEMENS",
      "ManufacturerModelName": "Prisma",
      "Modality": "MR",
      "NumberOfAverages": 1.0,
      "NumberOfPhaseEncodingSteps": 79,
      "PercentPhaseFieldOfView": 100.0,
      "PercentSampling": 100.0,
      "PerformedProcedureStepStartTime": "085959.808000",
      "PhotometricInterpretation": "MONOCHROME2",
      "PixelBandwidth": 2315.0,
      "PixelRepresentation": 0,
      "PixelSpacing": [3.0, 3.0],
      "ProtocolName": "func-bold_task-rest_acq-p2",
      "RepetitionTime": 2000.0,
      "Rows": 480,
      "SAR": 0.04449285243722,
      "SamplesPerPixel": 1,
      "ScanOptions": "FS",
      "ScanningSequence": "EP",
      "SequenceName": "*epfid2d1_80",
      "SequenceVariant": "SK",
      "SeriesDescription": "func-bold_task-rest_acq-p2",
      "SeriesNumber": 5,
      "SeriesTime": "090846.071000",
      "SliceLocation": -52.813932889953,
      "SliceThickness": 3.5,
      "SmallestImagePixelValue": 0,
      "SoftwareVersions": "syngo MR E11",
      "SpacingBetweenSlices": 3.9900000055858,
      "SpecificCharacterSet": "ISO_IR 100",
      "StudyID": "10",
      "StudyTime": "085959.744000",
      "TransmitCoilName": "Body",
      "VariableFlipAngleFlag": "N",
      "WindowCenterWidthExplanation": "Algo1"
    },
    "slices": {}
  },
  "time": {
    "samples": {
      "AcquisitionNumber": [1, 2, 3, 4, 5, 6, 7, 8, 9, 10, 11, 12, 13, 14, 15, 16, 17, 18, 19, 20, 21, 22, 23, 24, 25, 26, 27, 28, 29, 30, 31, 32, 33, 34, 35, 36, 37, 38, 39, 40, 41, 42, 43, 44, 45, 46, 47, 48, 49, 50, 51, 52, 53, 54, 55, 56, 57, 58, 59, 60, 61, 62, 63, 64, 65, 66, 67, 68, 69, 70, 71, 72, 73, 74, 75, 76, 77, 78, 79, 80, 81, 82, 83, 84, 85, 86, 87, 88, 89, 90, 91, 92, 93, 94, 95, 96, 97, 98, 99, 100, 101, 102, 103, 104, 105, 106, 107, 108, 109, 110, 111, 112, 113, 114, 115, 116, 117, 118, 119, 120, 121, 122, 123, 124, 125, 126, 127, 128, 129, 130, 131, 132, 133, 134, 135, 136, 137, 138, 139, 140, 141, 142, 143, 144, 145, 146, 147, 148, 149, 150, 151, 152, 153, 154, 155, 156, 157, 158, 159, 160, 161, 162, 163, 164, 165, 166, 167, 168, 169, 170, 171, 172, 173, 174, 175, 176, 177, 178, 179, 180, 181, 182, 183, 184, 185, 186, 187, 188, 189, 190, 191, 192, 193, 194, 195, 196, 197, 198, 199, 200],
      "AcquisitionTime": ["090752.777500", "090754.777500", "090756.777500", "090758.777500", "090800.777500", "090802.777500", "090804.777500", "090806.777500", "090808.777500", "090810.777500", "090812.777500", "090814.777500", "090816.777500", "090818.777500", "090820.777500", "090822.777500", "090824.777500", "090826.777500", "090828.777500", "090830.777500", "090832.777500", "090834.777500", "090836.777500", "090838.777500", "090840.777500", "090842.777500", "090844.777500", "090846.777500", "090848.777500", "090850.777500", "090852.777500", "090854.777500", "090856.777500", "090858.777500", "090900.777500", "090902.777500", "090904.777500", "090906.777500", "090908.777500", "090910.777500", "090912.777500", "090914.777500", "090916.777500", "090918.777500", "090920.777500", "090922.777500", "090924.777500", "090926.777500", "090928.777500", "090930.777500", "090932.777500", "090934.777500", "090936.777500", "090938.777500", "090940.777500", "090942.777500", "090944.777500", "090946.777500", "090948.777500", "090950.777500", "090952.777500", "090954.777500", "090956.777500", "090958.777500", "091000.777500", "091002.777500", "091004.777500", "091006.777500", "091008.777500", "091010.777500", "091012.777500", "091014.777500", "091016.777500", "091018.777500", "091020.777500", "091022.777500", "091024.777500", "091026.777500", "091028.777500", "091030.777500", "091032.777500", "091034.777500", "091036.777500", "091038.777500", "091040.777500", "091042.777500", "091044.777500", "091046.777500", "091048.777500", "091050.777500", "091052.777500", "091054.777500", "091056.777500", "091058.777500", "091100.777500", "091102.777500", "091104.777500", "091106.777500", "091108.777500", "091110.777500", "091112.777500", "091114.777500", "091116.777500", "091118.777500", "091120.777500", "091122.777500", "091124.777500", "091126.777500", "091128.777500", "091130.777500", "091132.777500", "091134.777500", "091136.777500", "091138.777500", "091140.777500", "091142.777500", "091144.777500", "091146.777500", "091148.777500", "091150.777500", "091152.777500", "091154.777500", "091156.777500", "091158.777500", "091200.777500", "091202.777500", "091204.777500", "091206.777500", "091208.777500", "091210.777500", "091212.777500", "091214.777500", "091216.777500", "091218.777500", "091220.777500", "091222.777500", "091224.777500", "091226.777500", "091228.777500", "091230.777500", "091232.777500", "091234.777500", "091236.777500", "091238.777500", "091240.777500", "091242.777500", "091244.777500", "091246.777500", "091248.777500", "091250.777500", "091252.777500", "091254.777500", "091256.777500", "091258.777500", "091300.777500", "091302.777500", "091304.777500", "091306.777500", "091308.777500", "091310.777500", "091312.777500", "091314.777500", "091316.777500", "091318.777500", "091320.777500", "091322.777500", "091324.777500", "091326.777500", "091328.777500", "091330.777500", "091332.777500", "091334.777500", "091336.777500", "091338.777500", "091340.777500", "091342.777500", "091344.777500", "091346.777500", "091348.777500", "091350.777500", "091352.777500", "091354.777500", "091356.777500", "091358.777500", "091400.777500", "091402.777500", "091404.777500", "091406.777500", "091408.777500", "091410.777500", "091412.777500", "091414.777500", "091416.777500", "091418.777500", "091420.777500", "091422.777500", "091424.777500", "091426.777500", "091428.777500", "091430.777500"],
      "ContentTime": ["090846.075000", "090846.078000", "090846.080000", "090846.083000", "090846.085000", "090846.087000", "090846.090000", "090846.092000", "090846.094000", "090846.097000", "090846.099000", "090846.102000", "090846.104000", "090846.106000", "090846.109000", "090846.111000", "090846.114000", "090846.116000", "090846.118000", "090846.121000", "090846.123000", "090846.126000", "090846.128000", "090846.130000", "090846.133000", "090846.135000", "090846.137000", "090926.070000", "090926.073000", "090926.075000", "090926.079000", "090926.081000", "090926.084000", "090926.086000", "090926.089000", "090926.091000", "090926.093000", "090926.096000", "090926.098000", "090926.101000", "090926.103000", "090926.106000", "090926.108000", "090926.110000", "090926.113000", "090926.115000", "090926.117000", "091006.069000", "091006.072000", "091006.074000", "091006.077000", "091006.079000", "091006.081000", "091006.083000", "091006.086000", "091006.088000", "091006.091000", "091006.093000", "091006.095000", "091006.098000", "091006.100000", "091006.102000", "091006.105000", "091006.107000", "091006.109000", "091006.112000", "091006.114000", "091046.069000", "091046.072000", "091046.074000", "091046.077000", "091046.079000", "091046.081000", "091046.084000", "091046.086000", "091046.088000", "091046.091000", "091046.093000", "091046.096000", "091046.098000", "091046.100000", "091046.103000", "091046.105000", "091046.108000", "091046.110000", "091046.112000", "091046.115000", "091126.070000", "091126.073000", "091126.075000", "091126.077000", "091126.080000", "091126.082000", "091126.084000", "091126.087000", "091126.089000", "091126.092000", "091126.094000", "091126.096000", "091126.099000", "091126.101000", "091126.103000", "091126.106000", "091126.108000", "091126.111000", "091126.113000", "091126.115000", "091206.069000", "091206.072000", "091206.074000", "091206.076000", "091206.079000", "091206.081000", "091206.083000", "091206.086000", "091206.088000", "091206.090000", "091206.093000", "091206.095000", "091206.098000", "091206.100000", "091206.102000", "091206.105000", "091206.107000", "091206.109000", "091206.112000", "091206.114000", "091246.069000", "091246.072000", "091246.074000", "091246.077000", "091246.079000", "091246.081000", "091246.084000", "091246.086000", "091246.088000", "091246.091000", "091246.093000", "091246.095000", "091246.098000", "091246.100000", "091246.102000", "091246.105000", "091246.107000", "091246.110000", "091246.112000", "091246.114000", "091326.069000", "091326.072000", "091326.074000", "091326.077000", "091326.079000", "091326.082000", "091326.084000", "091326.086000", "091326.089000", "091326.091000", "091326.093000", "091326.096000", "091326.098000", "091326.101000", "091326.103000", "091326.105000", "091326.108000", "091326.110000", "091326.112000", "091326.115000", "091406.070000", "091406.073000", "091406.075000", "091406.078000", "091406.080000", "091406.082000", "091406.085000", "091406.087000", "091406.089000", "091406.092000", "091406.094000", "091406.096000", "091406.099000", "091406.101000", "091406.104000", "091406.106000", "091406.108000", "091406.111000", "091406.113000", "091406.115000", "091431.836000", "091431.844000", "091431.847000", "091431.850000", "091431.855000", "091431.857000", "091431.860000", "091431.862000", "091431.865000", "091431.868000", "091431.871000", "091431.874000", "091431.876000"],
      "InstanceCreationTime": ["090846.075000", "090846.078000", "090846.080000", "090846.083000", "090846.085000", "090846.087000", "090846.090000", "090846.092000", "090846.094000", "090846.097000", "090846.099000", "090846.102000", "090846.104000", "090846.106000", "090846.109000", "090846.111000", "090846.114000", "090846.116000", "090846.118000", "090846.121000", "090846.123000", "090846.126000", "090846.128000", "090846.130000", "090846.133000", "090846.135000", "090846.137000", "090926.070000", "090926.073000", "090926.075000", "090926.079000", "090926.081000", "090926.084000", "090926.086000", "090926.089000", "090926.091000", "090926.093000", "090926.096000", "090926.098000", "090926.101000", "090926.103000", "090926.106000", "090926.108000", "090926.110000", "090926.113000", "090926.115000", "090926.117000", "091006.069000", "091006.072000", "091006.074000", "091006.077000", "091006.079000", "091006.081000", "091006.083000", "091006.086000", "091006.088000", "091006.091000", "091006.093000", "091006.095000", "091006.098000", "091006.100000", "091006.102000", "091006.105000", "091006.107000", "091006.109000", "091006.112000", "091006.114000", "091046.069000", "091046.072000", "091046.074000", "091046.077000", "091046.079000", "091046.081000", "091046.084000", "091046.086000", "091046.088000", "091046.091000", "091046.093000", "091046.096000", "091046.098000", "091046.100000", "091046.103000", "091046.105000", "091046.108000", "091046.110000", "091046.112000", "091046.115000", "091126.070000", "091126.073000", "091126.075000", "091126.077000", "091126.080000", "091126.082000", "091126.084000", "091126.087000", "091126.089000", "091126.092000", "091126.094000", "091126.096000", "091126.099000", "091126.101000", "091126.103000", "091126.106000", "091126.108000", "091126.111000", "091126.113000", "091126.115000", "091206.069000", "091206.072000", "091206.074000", "091206.076000", "091206.079000", "091206.081000", "091206.083000", "091206.086000", "091206.088000", "091206.090000", "091206.093000", "091206.095000", "091206.098000", "091206.100000", "091206.102000", "091206.105000", "091206.107000", "091206.109000", "091206.112000", "091206.114000", "091246.069000", "091246.072000", "091246.074000", "091246.077000", "091246.079000", "091246.081000", "091246.084000", "091246.086000", "091246.088000", "091246.091000", "091246.093000", "091246.095000", "091246.098000", "091246.100000", "091246.102000", "091246.105000", "091246.107000", "091246.110000", "091246.112000", "091246.114000", "091326.069000", "091326.072000", "091326.074000", "091326.077000", "091326.079000", "091326.082000", "091326.084000", "091326.086000", "091326.089000", "091326.091000", "091326.093000", "091326.096000", "091326.098000", "091326.101000", "091326.103000", "091326.105000", "091326.108000", "091326.110000", "091326.112000", "091326.115000", "091406.070000", "091406.073000", "091406.075000", "091406.078000", "091406.080000", "091406.082000", "091406.085000", "091406.087000", "091406.089000", "091406.092000", "091406.094000", "091406.096000", "091406.099000", "091406.101000", "091406.104000", "091406.106000", "091406.108000", "091406.111000", "091406.113000", "091406.115000", "091431.836000", "091431.844000", "091431.847000", "091431.850000", "091431.855000", "091431.857000", "091431.860000", "091431.862000", "091431.865000", "091431.868000", "091431.871000", "091431.874000", "091431.876000"],
      "InstanceNumber": [1, 2, 3, 4, 5, 6, 7, 8, 9, 10, 11, 12, 13, 14, 15, 16, 17, 18, 19, 20, 21, 22, 23, 24, 25, 26, 27, 28, 29, 30, 31, 32, 33, 34, 35, 36, 37, 38, 39, 40, 41, 42, 43, 44, 45, 46, 47, 48, 49, 50, 51, 52, 53, 54, 55, 56, 57, 58, 59, 60, 61, 62, 63, 64, 65, 66, 67, 68, 69, 70, 71, 72, 73, 74, 75, 76, 77, 78, 79, 80, 81, 82, 83, 84, 85, 86, 87, 88, 89, 90, 91, 92, 93, 94, 95, 96, 97, 98, 99, 100, 101, 102, 103, 104, 105, 106, 107, 108, 109, 110, 111, 112, 113, 114, 115, 116, 117, 118, 119, 120, 121, 122, 123, 124, 125, 126, 127, 128, 129, 130, 131, 132, 133, 134, 135, 136, 137, 138, 139, 140, 141, 142, 143, 144, 145, 146, 147, 148, 149, 150, 151, 152, 153, 154, 155, 156, 157, 158, 159, 160, 161, 162, 163, 164, 165, 166, 167, 168, 169, 170, 171, 172, 173, 174, 175, 176, 177, 178, 179, 180, 181, 182, 183, 184, 185, 186, 187, 188, 189, 190, 191, 192, 193, 194, 195, 196, 197, 198, 199, 200],
      "LargestImagePixelValue": [3799, 3790, 3796, 3800, 3788, 3799, 3800, 3791, 3795, 3797, 3793, 3793, 3798, 3797, 3800, 3805, 3801, 3793, 3797, 3795, 3796, 3799, 3792, 3797, 3798, 3796, 3786, 3789, 3794, 3796, 3795, 3796, 3788, 3800, 3809, 3789, 3797, 3791, 3805, 3796, 3798, 3800, 3788, 3793, 3797, 3797, 3797, 3800, 3798, 3791, 3798, 3803, 3798, 3798, 3787, 3792, 3804, 3792, 3800, 3785, 3801, 3789, 3788, 3796, 3793, 3784, 3793, 3793, 3797, 3793, 3791, 3794, 3798, 3792, 3788, 3798, 3799, 3797, 3796, 3791, 3792, 3794, 3790, 3793, 3802, 3798, 3790, 3800, 3789, 3789, 3785, 3792, 3789, 3793, 3782, 3794, 3799, 3794, 3792, 3794, 3792, 3792, 3787, 3798, 3794, 3792, 3793, 3798, 3788, 3791, 3797, 3792, 3792, 3788, 3792, 3786, 3798, 3789, 3794, 3783, 3791, 3799, 3788, 3791, 3790, 3797, 3783, 3795, 3783, 3788, 3791, 3793, 3785, 3792, 3802, 3789, 3791, 3798, 3795, 3794, 3790, 3788, 3785, 3790, 3792, 3788, 3798, 3790, 3786, 3795, 3790, 3788, 3798, 3793, 3791, 3795, 3795, 3790, 3796, 3790, 3793, 3793, 3795, 3790, 3794, 3792, 3788, 3782, 3798, 3790, 3797, 3790, 3792, 3793, 3789, 3793, 3799, 3799, 3795, 3791, 3795, 3787, 3789, 3790, 3796, 3792, 3796, 3788, 3786, 3791, 3804, 3790, 3787, 3795, 3787, 3788, 3792, 3791, 3789, 3791],
      "WindowCenter": [1429.0, 1428.0, 1428.0, 1428.0, 1428.0, 1428.0, 1428.0, 1428.0, 1427.0, 1428.0, 1427.0, 1428.0, 1428.0, 1427.0, 1427.0, 1427.0, 1428.0, 1427.0, 1427.0, 1427.0, 1427.0, 1427.0, 1427.0, 1427.0, 1428.0, 1427.0, 1427.0, 1427.0, 1427.0, 1427.0, 1427.0, 1426.0, 1426.0, 1426.0, 1426.0, 1426.0, 1427.0, 1427.0, 1426.0, 1427.0, 1427.0, 1426.0, 1427.0, 1426.0, 1425.0, 1427.0, 1426.0, 1426.0, 1426.0, 1426.0, 1426.0, 1426.0, 1425.0, 1426.0, 1426.0, 1426.0, 1425.0, 1427.0, 1425.0, 1426.0, 1425.0, 1426.0, 1425.0, 1425.0, 1425.0, 1426.0, 1425.0, 1425.0, 1425.0, 1426.0, 1426.0, 1425.0, 1425.0, 1425.0, 1425.0, 1425.0, 1425.0, 1426.0, 1424.0, 1424.0, 1425.0, 1425.0, 1425.0, 1424.0, 1424.0, 1425.0, 1425.0, 1425.0, 1424.0, 1425.0, 1425.0, 1425.0, 1425.0, 1424.0, 1424.0, 1424.0, 1424.0, 1424.0, 1424.0, 1424.0, 1424.0, 1424.0, 1425.0, 1424.0, 1424.0, 1424.0, 1424.0, 1424.0, 1423.0, 1424.0, 1424.0, 1424.0, 1424.0, 1423.0, 1424.0, 1423.0, 1423.0, 1423.0, 1424.0, 1423.0, 1423.0, 1423.0, 1424.0, 1424.0, 1424.0, 1424.0, 1424.0, 1423.0, 1424.0, 1424.0, 1424.0, 1424.0, 1423.0, 1424.0, 1424.0, 1423.0, 1423.0, 1423.0, 1423.0, 1423.0, 1423.0, 1423.0, 1423.0, 1422.0, 1423.0, 1423.0, 1423.0, 1422.0, 1423.0, 1423.0, 1423.0, 1423.0, 1423.0, 1423.0, 1422.0, 1422.0, 1422.0, 1423.0, 1423.0, 1423.0, 1422.0, 1422.0, 1423.0, 1423.0, 1422.0, 1422.0, 1422.0, 1423.0, 1422.0, 1422.0, 1422.0, 1423.0, 1422.0, 1422.0, 1423.0, 1422.0, 1422.0, 1421.0, 1423.0, 1422.0, 1422.0, 1422.0, 1422.0, 1422.0, 1422.0, 1422.0, 1422.0, 1422.0, 1423.0, 1422.0, 1422.0, 1421.0, 1421.0, 1421.0, 1422.0, 1422.0, 1422.0, 1421.0, 1422.0, 1422.0],
      "WindowWidth": [3300.0, 3298.0, 3298.0, 3298.0, 3298.0, 3298.0, 3298.0, 3297.0, 3298.0, 3298.0, 3298.0, 3298.0, 3298.0, 3298.0, 3298.0, 3298.0, 3298.0, 3298.0, 3297.0, 3297.0, 3297.0, 3297.0, 3297.0, 3297.0, 3297.0, 3297.0, 3297.0, 3297.0, 3297.0, 3297.0, 3297.0, 3297.0, 3297.0, 3297.0, 3297.0, 3297.0, 3297.0, 3297.0, 3297.0, 3297.0, 3297.0, 3297.0, 3297.0, 3296.0, 3297.0, 3296.0, 3296.0, 3296.0, 3296.0, 3296.0, 3296.0, 3296.0, 3297.0, 3296.0, 3296.0, 3296.0, 3296.0, 3296.0, 3296.0, 3296.0, 3296.0, 3296.0, 3296.0, 3296.0, 3296.0, 3296.0, 3296.0, 3296.0, 3296.0, 3296.0, 3296.0, 3296.0, 3296.0, 3296.0, 3296.0, 3296.0, 3296.0, 3295.0, 3296.0, 3296.0, 3296.0, 3296.0, 3296.0, 3296.0, 3296.0, 3296.0, 3295.0, 3295.0, 3295.0, 3295.0, 3295.0, 3295.0, 3295.0, 3295.0, 3295.0, 3295.0, 3295.0, 3295.0, 3295.0, 3295.0, 3295.0, 3295.0, 3295.0, 3295.0, 3295.0, 3295.0, 3295.0, 3295.0, 3295.0, 3295.0, 3295.0, 3295.0, 3295.0, 3295.0, 3295.0, 3295.0, 3295.0, 3295.0, 3295.0, 3295.0, 3295.0, 3295.0, 3295.0, 3295.0, 3295.0, 3295.0, 3294.0, 3295.0, 3295.0, 3294.0, 3294.0, 3294.0, 3294.0, 3295.0, 3294.0, 3294.0, 3294.0, 3295.0, 3294.0, 3294.0, 3294.0, 3294.0, 3294.0, 3295.0, 3294.0, 3294.0, 3294.0, 3295.0, 3294.0, 3294.0, 3294.0, 3294.0, 3294.0, 3294.0, 3294.0, 3294.0, 3294.0, 3294.0, 3294.0, 3294.0, 3294.0, 3294.0, 3294.0, 3294.0, 3294.0, 3294.0, 3293.0, 3293.0, 3293.0, 3293.0, 3293.0, 3294.0, 3293.0, 3293.0, 3293.0, 3293.0, 3293.0, 3294.0, 3293.0, 3293.0, 3293.0, 3293.0, 3293.0, 3293.0, 3293.0, 3293.0, 3293.0, 3293.0, 3293.0, 3293.0, 3293.0, 3293.0, 3293.0, 3293.0, 3293.0, 3293.0, 3293.0, 3293.0, 3293.0, 3293.0]
    },
    "slices": {}
  }
}