{
  "AcquisitionMatrixPE": 80,
  "AcquisitionNumber": 1,
  "AcquisitionTime": "09:14:43.432500",
  "BandwidthPerPixelPhaseEncode": 25,
  "BaseResolution": 80,
  "BodyPartExamined": "BRAIN",
  "CoilCombinationMethod": "Sum of Squares",
  "ConsistencyInfo": "N4_VE11E_LATEST_20181129",
  "ConversionSoftware": "dcm2niix",
  "ConversionSoftwareVersion": "v1.0.20220720",
  "DerivedVendorReportedEchoSpacing": 0.0005,
  "DeviceSerialNumber": "66112",
  "DwellTime": 2.7e-06,
  "EchoTime": 0.03,
  "EchoTrainLength": 80,
  "EffectiveEchoSpacing": 0.0005,
  "FlipAngle": 77,
  "HeudiconvVersion": "0.13.1",
  "ImageOrientationPatientDICOM": [0.999937, 0.0102982, 0.00444091, -0.0111698, 0.94999, 0.312079],
  "ImageOrientationText": "Tra>Cor(18.2)>Sag(0.1)",
  "ImageType": [
    "ORIGINAL",
    "PRIMARY",
    "M",
    "ND",
    "NORM",
    "MOSAIC"
],
  "ImagingFrequency": 123.259,
  "InPlanePhaseEncodingDirectionDICOM": "COL",
  "InstitutionAddress": "Maynard 3,Hanover,NH,US,03755",
  "InstitutionName": "Dartmouth College - PBS",
  "InstitutionalDepartmentName": "Department",
  "MRAcquisitionType": "2D",
  "MagneticFieldStrength": 3,
  "Manufacturer": "Siemens",
  "ManufacturersModelName": "Prisma",
  "MatrixCoilMode": "SENSE",
  "Modality": "MR",
  "NonlinearGradientCorrection": false,
  "PartialFourier": 1,
  "PatientPosition": "HFS",
  "PercentPhaseFOV": 100,
  "PercentSampling": 100,
  "PhaseEncodingDirection": "j-",
  "PhaseEncodingSteps": 80,
  "PhaseResolution": 1,
  "PixelBandwidth": 2315,
  "ProcedureStepDescription": "dbic^QA",
  "ProtocolName": "func-bold_fa-77",
  "PulseSequenceDetails": "%SiemensSeq%\\ep2d_bold",
  "ReceiveCoilActiveElements": "HC1-7;NC1,2",
  "ReceiveCoilName": "HeadNeck_64",
  "ReconMatrixPE": 80,
  "RepetitionTime": 2,
  "SAR": 0.0349647,
  "ScanOptions": "FS",
  "ScanningSequence": "EP",
  "SequenceName": "*epfid2d1_80",
  "SequenceVariant": "SK",
  "SeriesDescription": "func-bold_fa-77",
  "SeriesNumber": 7,
  "ShimSetting": [4217, -7742, -7483, -126, -156, -137, -57, 89],
  "SliceThickness": 3.5,
  "SliceTiming": [0.99, 0, 1.0575, 0.0675, 1.1225, 0.1325, 1.1875, 0.2, 1.255, 0.265, 1.32, 0.33, 1.3875, 0.3975, 1.4525, 0.4625, 1.5175, 0.53, 1.585, 0.595, 1.65, 0.66, 1.7175, 0.7275, 1.7825, 0.7925, 1.8475, 0.86, 1.915, 0.925],
  "SoftwareVersions": "syngo MR E11",
  "SpacingBetweenSlices": 3.99,
  "StationName": "AWP66112",
  "TotalReadoutTime": 0.0395,
  "TxRefAmp": 212.97,
  "dcmmeta_affine": [
    [-2.9998114109039307, -0.03350937366485596, 0.004009835422039032, 121.35163116455078],
    [-0.03089454583823681, 2.849971294403076, 1.2453151941299438, -119.43548583984375],
    [0.013322718441486359, -0.9362372159957886, 3.790682554244995, -15.136897087097168],
    [0.0, 0.0, 0.0, 1.0]
],
  "dcmmeta_reorient_transform": [
    [0.0, -1.0, 0.0, 79.0],
    [1.0, 0.0, 0.0, 0.0],
    [0.0, 0.0, 1.0, 0.0],
    [0.0, 0.0, 0.0, 1.0]
],
  "dcmmeta_shape": [80, 80, 30, 200],
  "dcmmeta_slice_dim": 2,
  "dcmmeta_version": 0.6,
  "global": {
    "const": {
      "AccessionNumber": "qa64",
      "AcquisitionMatrix": [80, 0, 0, 80],
      "AngioFlag": "N",
      "BitsAllocated": 16,
      "BitsStored": 12,
      "BodyPartExamined": "BRAIN",
      "Columns": 480,
      "EchoNumbers": 1,
      "EchoTime": 30.0,
      "EchoTrainLength": 80,
      "FlipAngle": 77.0,
      "HighBit": 11,
      "ImageOrientationPatient": [0.99993711092079, 0.01029818215896, 0.00444090616957, -0.0111697912259, 0.94999046549227, 0.31207907850055],
      "ImagePositionPatient": [-711.96478132136, -681.88543975798, -279.01162986825],
      "ImageType": [
        "ORIGINAL",
        "PRIMARY",
        "M",
        "ND",
        "NORM",
        "MOSAIC"
],
      "ImagedNucleus": "1H",
      "ImagingFrequency": 123.25928,
      "InPlanePhaseEncodingDirection": "COL",
      "MRAcquisitionType": "2D",
      "MagneticFieldStrength": 3.0,
      "Manufacturer": "SIEMENS",
      "ManufacturerModelName": "Prisma",
      "Modality": "MR",
      "NumberOfAverages": 1.0,
      "NumberOfPhaseEncodingSteps": 80,
      "PercentPhaseFieldOfView": 100.0,
      "PercentSampling": 100.0,
      "PerformedProcedureStepStartTime": "085959.808000",
      "PhotometricInterpretation": "MONOCHROME2",
      "PixelBandwidth": 2315.0,
      "PixelRepresentation": 0,
      "PixelSpacing": [3.0, 3.0],
      "ProtocolName": "func-bold_fa-77",
      "RepetitionTime": 2000.0,
      "Rows": 480,
      "SAR": 0.0349646988122,
      "SamplesPerPixel": 1,
      "ScanOptions": "FS",
      "ScanningSequence": "EP",
      "SequenceName": "*epfid2d1_80",
      "SequenceVariant": "SK",
      "SeriesDescription": "func-bold_fa-77",
      "SeriesNumber": 7,
      "SeriesTime": "091526.156000",
      "SliceLocation": -51.535687982131,
      "SliceThickness": 3.5,
      "SmallestImagePixelValue": 0,
      "SoftwareVersions": "syngo MR E11",
      "SpacingBetweenSlices": 3.9900000055821,
      "SpecificCharacterSet": "ISO_IR 100",
      "StudyID": "10",
      "StudyTime": "085959.744000",
      "TransmitCoilName": "Body",
      "VariableFlipAngleFlag": "N",
      "WindowCenterWidthExplanation": "Algo1"
    },
    "slices": {}
  },
  "time": {
    "samples": {
      "AcquisitionNumber": [1, 2, 3, 4, 5, 6, 7, 8, 9, 10, 11, 12, 13, 14, 15, 16, 17, 18, 19, 20, 21, 22, 23, 24, 25, 26, 27, 28, 29, 30, 31, 32, 33, 34, 35, 36, 37, 38, 39, 40, 41, 42, 43, 44, 45, 46, 47, 48, 49, 50, 51, 52, 53, 54, 55, 56, 57, 58, 59, 60, 61, 62, 63, 64, 65, 66, 67, 68, 69, 70, 71, 72, 73, 74, 75, 76, 77, 78, 79, 80, 81, 82, 83, 84, 85, 86, 87, 88, 89, 90, 91, 92, 93, 94, 95, 96, 97, 98, 99, 100, 101, 102, 103, 104, 105, 106, 107, 108, 109, 110, 111, 112, 113, 114, 115, 116, 117, 118, 119, 120, 121, 122, 123, 124, 125, 126, 127, 128, 129, 130, 131, 132, 133, 134, 135, 136, 137, 138, 139, 140, 141, 142, 143, 144, 145, 146, 147, 148, 149, 150, 151, 152, 153, 154, 155, 156, 157, 158, 159, 160, 161, 162, 163, 164, 165, 166, 167, 168, 169, 170, 171, 172, 173, 174, 175, 176, 177, 178, 179, 180, 181, 182, 183, 184, 185, 186, 187, 188, 189, 190, 191, 192, 193, 194, 195, 196, 197, 198, 199, 200],
      "AcquisitionTime": ["091443.432500", "091445.432500", "091447.432500", "091449.432500", "091451.432500", "091453.432500", "091455.432500", "091457.432500", "091459.432500", "091501.432500", "091503.432500", "091505.432500", "091507.432500", "091509.432500", "091511.432500", "091513.432500", "091515.432500", "091517.432500", "091519.432500", "091521.432500", "091523.432500", "091525.432500", "091527.432500", "091529.432500", "091531.432500", "091533.432500", "091535.432500", "091537.432500", "091539.432500", "091541.432500", "091543.432500", "091545.432500", "091547.432500", "091549.432500", "091551.432500", "091553.432500", "091555.432500", "091557.432500", "091559.432500", "091601.432500", "091603.432500", "091605.432500", "091607.432500", "091609.432500", "091611.432500", "091613.432500", "091615.432500", "091617.432500", "091619.432500", "091621.432500", "091623.432500", "091625.432500", "091627.432500", "091629.432500", "091631.432500", "091633.432500", "091635.432500", "091637.432500", "091639.432500", "091641.432500", "091643.432500", "091645.432500", "091647.432500", "091649.432500", "091651.432500", "091653.432500", "091655.432500", "091657.432500", "091659.432500", "091701.432500", "091703.432500", "091705.432500", "091707.432500", "091709.432500", "091711.432500", "091713.432500", "091715.432500", "091717.432500", "091719.432500", "091721.432500", "091723.432500", "091725.432500", "091727.432500", "091729.432500", "091731.432500", "091733.432500", "091735.432500", "091737.432500", "091739.432500", "091741.432500", "091743.432500", "091745.432500", "091747.432500", "091749.432500", "091751.432500", "091753.432500", "091755.432500", "091757.432500", "091759.432500", "091801.432500", "091803.432500", "091805.432500", "091807.432500", "091809.432500", "091811.432500", "091813.432500", "091815.432500", "091817.432500", "091819.432500", "091821.432500", "091823.432500", "091825.432500", "091827.432500", "091829.432500", "091831.432500", "091833.432500", "091835.432500", "091837.432500", "091839.432500", "091841.432500", "091843.432500", "091845.432500", "091847.432500", "091849.432500", "091851.432500", "091853.432500", "091855.432500", "091857.432500", "091859.432500", "091901.432500", "091903.432500", "091905.432500", "091907.432500", "091909.432500", "091911.432500", "091913.432500", "091915.432500", "091917.432500", "091919.432500", "091921.432500", "091923.432500", "091925.432500", "091927.432500", "091929.432500", "091931.432500", "091933.432500", "091935.432500", "091937.432500", "091939.432500", "091941.432500", "091943.432500", "091945.432500", "091947.432500", "091949.432500", "091951.432500", "091953.432500", "091955.432500", "091957.432500", "091959.432500", "092001.432500", "092003.432500", "092005.432500", "092007.432500", "092009.432500", "092011.432500", "092013.432500", "092015.432500", "092017.432500", "092019.432500", "092021.432500", "092023.432500", "092025.432500", "092027.432500", "092029.432500", "092031.432500", "092033.432500", "092035.432500", "092037.432500", "092039.432500", "092041.432500", "092043.432500", "092045.432500", "092047.432500", "092049.432500", "092051.432500", "092053.432500", "092055.432500", "092057.432500", "092059.432500", "092101.432500", "092103.432500", "092105.432500", "092107.432500", "092109.432500", "092111.432500", "092113.432500", "092115.432500", "092117.432500", "092119.432500", "092121.432500"],
      "ContentTime": ["091526.160000", "091526.173000", "091526.176000", "091526.178000", "091526.181000", "091526.192000", "091526.194000", "091526.197000", "091526.199000", "091526.202000", "091526.204000", "091526.206000", "091526.209000", "091526.211000", "091526.214000", "091526.216000", "091526.218000", "091526.221000", "091526.223000", "091526.226000", "091526.228000", "091606.155000", "091606.158000", "091606.160000", "091606.162000", "091606.165000", "091606.167000", "091606.170000", "091606.172000", "091606.174000", "091606.177000", "091606.180000", "091606.182000", "091606.185000", "091606.187000", "091606.190000", "091606.193000", "091606.195000", "091606.198000", "091606.200000", "091606.202000", "091646.154000", "091646.157000", "091646.159000", "091646.162000", "091646.164000", "091646.166000", "091646.169000", "091646.171000", "091646.174000", "091646.176000", "091646.178000", "091646.180000", "091646.183000", "091646.185000", "091646.202000", "091646.209000", "091646.212000", "091646.214000", "091646.217000", "091646.219000", "091726.154000", "091726.157000", "091726.159000", "091726.162000", "091726.164000", "091726.167000", "091726.169000", "091726.171000", "091726.174000", "091726.176000", "091726.178000", "091726.181000", "091726.183000", "091726.186000", "091726.188000", "091726.190000", "091726.193000", "091726.195000", "091726.197000", "091726.200000", "091806.154000", "091806.157000", "091806.159000", "091806.161000", "091806.164000", "091806.166000", "091806.168000", "091806.171000", "091806.173000", "091806.176000", "091806.178000", "091806.180000", "091806.183000", "091806.185000", "091806.187000", "091806.190000", "091806.192000", "091806.195000", "091806.197000", "091806.199000", "091846.155000", "091846.158000", "091846.160000", "091846.162000", "091846.165000", "091846.167000", "091846.169000", "091846.172000", "091846.174000", "091846.176000", "091846.179000", "091846.181000", "091846.184000", "091846.186000", "091846.188000", "091846.191000", "091846.193000", "091846.195000", "091846.198000", "091846.200000", "091926.154000", "091926.157000", "091926.159000", "091926.161000", "091926.164000", "091926.166000", "091926.168000", "091926.171000", "091926.173000", "091926.176000", "091926.178000", "091926.180000", "091926.183000", "091926.185000", "091926.187000", "091926.190000", "091926.192000", "091926.195000", "091926.197000", "091926.199000", "092006.154000", "092006.157000", "092006.159000", "092006.161000", "092006.164000", "092006.166000", "092006.168000", "092006.171000", "092006.173000", "092006.176000", "092006.178000", "092006.180000", "092006.183000", "092006.185000", "092006.188000", "092006.190000", "092006.193000", "092006.195000", "092006.197000", "092006.200000", "092046.155000", "092046.158000", "092046.160000", "092046.163000", "092046.165000", "092046.167000", "092046.170000", "092046.172000", "092046.174000", "092046.177000", "092046.179000", "092046.181000", "092046.191000", "092046.193000", "092046.196000", "092046.198000", "092046.201000", "092046.203000", "092046.205000", "092046.208000", "092122.504000", "092122.506000", "092122.509000", "092122.511000", "092122.514000", "092122.517000", "092122.519000", "092122.521000", "092122.524000", "092122.526000", "092122.529000", "092122.531000", "092122.536000", "092122.540000", "092122.544000", "092122.547000", "092122.553000", "092122.556000", "092122.558000"],
      "InstanceCreationTime": ["091526.160000", "091526.173000", "091526.176000", "091526.178000", "091526.181000", "091526.192000", "091526.194000", "091526.197000", "091526.199000", "091526.202000", "091526.204000", "091526.206000", "091526.209000", "091526.211000", "091526.214000", "091526.216000", "091526.218000", "091526.221000", "091526.223000", "091526.226000", "091526.228000", "091606.155000", "091606.158000", "091606.160000", "091606.162000", "091606.165000", "091606.167000", "091606.170000", "091606.172000", "091606.174000", "091606.177000", "091606.180000", "091606.182000", "091606.185000", "091606.187000", "091606.190000", "091606.193000", "091606.195000", "091606.198000", "091606.200000", "091606.202000", "091646.154000", "091646.157000", "091646.159000", "091646.162000", "091646.164000", "091646.166000", "091646.169000", "091646.171000", "091646.174000", "091646.176000", "091646.178000", "091646.180000", "091646.183000", "091646.185000", "091646.202000", "091646.209000", "091646.212000", "091646.214000", "091646.217000", "091646.219000", "091726.154000", "091726.157000", "091726.159000", "091726.162000", "091726.164000", "091726.167000", "091726.169000", "091726.171000", "091726.174000", "091726.176000", "091726.178000", "091726.181000", "091726.183000", "091726.186000", "091726.188000", "091726.190000", "091726.193000", "091726.195000", "091726.197000", "091726.200000", "091806.154000", "091806.157000", "091806.159000", "091806.161000", "091806.164000", "091806.166000", "091806.168000", "091806.171000", "091806.173000", "091806.176000", "091806.178000", "091806.180000", "091806.183000", "091806.185000", "091806.187000", "091806.190000", "091806.192000", "091806.195000", "091806.197000", "091806.199000", "091846.155000", "091846.158000", "091846.160000", "091846.162000", "091846.165000", "091846.167000", "091846.169000", "091846.172000", "091846.174000", "091846.176000", "091846.179000", "091846.181000", "091846.184000", "091846.186000", "091846.188000", "091846.191000", "091846.193000", "091846.195000", "091846.198000", "091846.200000", "091926.154000", "091926.157000", "091926.159000", "091926.161000", "091926.164000", "091926.166000", "091926.168000", "091926.171000", "091926.173000", "091926.176000", "091926.178000", "091926.180000", "091926.183000", "091926.185000", "091926.187000", "091926.190000", "091926.192000", "091926.195000", "091926.197000", "091926.199000", "092006.154000", "092006.157000", "092006.159000", "092006.161000", "092006.164000", "092006.166000", "092006.168000", "092006.171000", "092006.173000", "092006.176000", "092006.178000", "092006.180000", "092006.183000", "092006.185000", "092006.188000", "092006.190000", "092006.193000", "092006.195000", "092006.197000", "092006.200000", "092046.155000", "092046.158000", "092046.160000", "092046.163000", "092046.165000", "092046.167000", "092046.170000", "092046.172000", "092046.174000", "092046.177000", "092046.179000", "092046.181000", "092046.191000", "092046.193000", "092046.196000", "092046.198000", "092046.201000", "092046.203000", "092046.205000", "092046.208000", "092122.504000", "092122.506000", "092122.509000", "092122.511000", "092122.514000", "092122.517000", "092122.519000", "092122.521000", "092122.524000", "092122.526000", "092122.529000", "092122.531000", "092122.536000", "092122.540000", "092122.544000", "092122.547000", "092122.553000", "092122.556000", "092122.558000"],
      "InstanceNumber": [1, 2, 3, 4, 5, 6, 7, 8, 9, 10, 11, 12, 13, 14, 15, 16, 17, 18, 19, 20, 21, 22, 23, 24, 25, 26, 27, 28, 29, 30, 31, 32, 33, 34, 35, 36, 37, 38, 39, 40, 41, 42, 43, 44, 45, 46, 47, 48, 49, 50, 51, 52, 53, 54, 55, 56, 57, 58, 59, 60, 61, 62, 63, 64, 65, 66, 67, 68, 69, 70, 71, 72, 73, 74, 75, 76, 77, 78, 79, 80, 81, 82, 83, 84, 85, 86, 87, 88, 89, 90, 91, 92, 93, 94, 95, 96, 97, 98, 99, 100, 101, 102, 103, 104, 105, 106, 107, 108, 109, 110, 111, 112, 113, 114, 115, 116, 117, 118, 119, 120, 121, 122, 123, 124, 125, 126, 127, 128, 129, 130, 131, 132, 133, 134, 135, 136, 137, 138, 139, 140, 141, 142, 143, 144, 145, 146, 147, 148, 149, 150, 151, 152, 153, 154, 155, 156, 157, 158, 159, 160, 161, 162, 163, 164, 165, 166, 167, 168, 169, 170, 171, 172, 173, 174, 175, 176, 177, 178, 179, 180, 181, 182, 183, 184, 185, 186, 187, 188, 189, 190, 191, 192, 193, 194, 195, 196, 197, 198, 199, 200],
      "LargestImagePixelValue": [3647, 3645, 3642, 3644, 3647, 3645, 3647, 3645, 3643, 3645, 3641, 3647, 3645, 3644, 3644, 3643, 3643, 3644, 3641, 3640, 3646, 3645, 3644, 3643, 3642, 3647, 3646, 3644, 3644, 3643, 3644, 3642, 3642, 3642, 3638, 3641, 3642, 3640, 3642, 3642, 3646, 3646, 3643, 3639, 3642, 3642, 3644, 3641, 3645, 3642, 3642, 3641, 3645, 3643, 3640, 3645, 3641, 3640, 3640, 3641, 3641, 3638, 3643, 3645, 3640, 3641, 3645, 3639, 3641, 3647, 3641, 3640, 3644, 3643, 3643, 3643, 3641, 3643, 3641, 3645, 3645, 3642, 3641, 3647, 3641, 3646, 3642, 3640, 3641, 3641, 3642, 3640, 3641, 3640, 3640, 3642, 3637, 3643, 3641, 3642, 3643, 3644, 3640, 3642, 3646, 3640, 3643, 3641, 3640, 3638, 3638, 3639, 3640, 3640, 3643, 3642, 3643, 3638, 3643, 3640, 3641, 3641, 3642, 3643, 3643, 3642, 3640, 3642, 3639, 3641, 3646, 3642, 3642, 3644, 3638, 3639, 3641, 3643, 3644, 3639, 3638, 3642, 3637, 3640, 3643, 3641, 3638, 3643, 3638, 3641, 3638, 3642, 3639, 3638, 3640, 3644, 3642, 3642, 3640, 3641, 3645, 3644, 3641, 3641, 3638, 3646, 3642, 3641, 3643, 3642, 3639, 3643, 3638, 3642, 3639, 3643, 3639, 3642, 3639, 3642, 3643, 3643, 3640, 3644, 3640, 3638, 3642, 3642, 3642, 3645, 3641, 3639, 3640, 3641, 3638, 3638, 3640, 3640, 3640, 3635],
      "WindowCenter": [1357.0, 1356.0, 1357.0, 1356.0, 1356.0, 1357.0, 1356.0, 1356.0, 1357.0, 1357.0, 1357.0, 1356.0, 1357.0, 1357.0, 1357.0, 1356.0, 1356.0, 1356.0, 1356.0, 1356.0, 1355.0, 1356.0, 1356.0, 1357.0, 1356.0, 1356.0, 1356.0, 1356.0, 1356.0, 1356.0, 1357.0, 1356.0, 1356.0, 1355.0, 1355.0, 1356.0, 1355.0, 1356.0, 1356.0, 1356.0, 1356.0, 1355.0, 1355.0, 1355.0, 1354.0, 1355.0, 1355.0, 1356.0, 1355.0, 1355.0, 1356.0, 1356.0, 1355.0, 1356.0, 1356.0, 1355.0, 1356.0, 1355.0, 1355.0, 1355.0, 1355.0, 1356.0, 1355.0, 1355.0, 1355.0, 1355.0, 1355.0, 1355.0, 1355.0, 1354.0, 1355.0, 1355.0, 1355.0, 1355.0, 1355.0, 1354.0, 1355.0, 1355.0, 1355.0, 1354.0, 1354.0, 1355.0, 1355.0, 1355.0, 1355.0, 1354.0, 1355.0, 1354.0, 1355.0, 1354.0, 1354.0, 1355.0, 1354.0, 1354.0, 1355.0, 1354.0, 1354.0, 1355.0, 1354.0, 1355.0, 1354.0, 1353.0, 1354.0, 1354.0, 1354.0, 1353.0, 1354.0, 1354.0, 1354.0, 1354.0, 1354.0, 1354.0, 1354.0, 1354.0, 1354.0, 1354.0, 1354.0, 1354.0, 1354.0, 1354.0, 1354.0, 1354.0, 1354.0, 1353.0, 1354.0, 1353.0, 1354.0, 1353.0, 1353.0, 1353.0, 1353.0, 1354.0, 1353.0, 1354.0, 1354.0, 1354.0, 1354.0, 1353.0, 1353.0, 1353.0, 1353.0, 1353.0, 1352.0, 1353.0, 1352.0, 1353.0, 1353.0, 1353.0, 1353.0, 1354.0, 1353.0, 1352.0, 1352.0, 1353.0, 1352.0, 1353.0, 1353.0, 1353.0, 1352.0, 1352.0, 1353.0, 1352.0, 1353.0, 1352.0, 1353.0, 1353.0, 1352.0, 1353.0, 1353.0, 1352.0, 1352.0, 1352.0, 1352.0, 1352.0, 1353.0, 1352.0, 1352.0, 1352.0, 1352.0, 1352.0, 1352.0, 1352.0, 1352.0, 1352.0, 1352.0, 1352.0, 1352.0, 1352.0, 1352.0, 1352.0, 1352.0, 1352.0, 1352.0, 1352.0, 1351.0, 1352.0, 1352.0, 1351.0, 1351.0, 1351.0],
      "WindowWidth": [3252.0, 3253.0, 3252.0, 3253.0, 3253.0, 3252.0, 3253.0, 3253.0, 3252.0, 3252.0, 3252.0, 3252.0, 3252.0, 3252.0, 3252.0, 3252.0, 3252.0, 3252.0, 3252.0, 3251.0, 3251.0, 3252.0, 3252.0, 3251.0, 3252.0, 3252.0, 3252.0, 3252.0, 3251.0, 3252.0, 3251.0, 3251.0, 3251.0, 3251.0, 3251.0, 3251.0, 3251.0, 3251.0, 3252.0, 3252.0, 3251.0, 3251.0, 3251.0, 3251.0, 3251.0, 3252.0, 3252.0, 3252.0, 3252.0, 3252.0, 3251.0, 3251.0, 3251.0, 3251.0, 3251.0, 3251.0, 3251.0, 3251.0, 3251.0, 3251.0, 3251.0, 3251.0, 3251.0, 3251.0, 3251.0, 3251.0, 3251.0, 3251.0, 3251.0, 3251.0, 3251.0, 3251.0, 3251.0, 3251.0, 3251.0, 3251.0, 3251.0, 3251.0, 3251.0, 3251.0, 3251.0, 3251.0, 3251.0, 3250.0, 3251.0, 3251.0, 3251.0, 3251.0, 3250.0, 3251.0, 3251.0, 3250.0, 3250.0, 3250.0, 3250.0, 3250.0, 3250.0, 3250.0, 3250.0, 3250.0, 3250.0, 3250.0, 3250.0, 3250.0, 3250.0, 3250.0, 3250.0, 3250.0, 3250.0, 3250.0, 3250.0, 3250.0, 3250.0, 3250.0, 3250.0, 3250.0, 3250.0, 3250.0, 3250.0, 3250.0, 3250.0, 3250.0, 3250.0, 3250.0, 3249.0, 3250.0, 3249.0, 3249.0, 3249.0, 3249.0, 3250.0, 3249.0, 3249.0, 3249.0, 3249.0, 3249.0, 3249.0, 3249.0, 3249.0, 3249.0, 3248.0, 3248.0, 3249.0, 3249.0, 3249.0, 3249.0, 3248.0, 3249.0, 3249.0, 3248.0, 3249.0, 3248.0, 3248.0, 3248.0, 3249.0, 3249.0, 3248.0, 3248.0, 3248.0, 3249.0, 3248.0, 3249.0, 3249.0, 3249.0, 3248.0, 3248.0, 3248.0, 3248.0, 3248.0, 3248.0, 3248.0, 3248.0, 3248.0, 3248.0, 3248.0, 3248.0, 3248.0, 3248.0, 3248.0, 3248.0, 3248.0, 3248.0, 3248.0, 3248.0, 3248.0, 3248.0, 3248.0, 3248.0, 3248.0, 3248.0, 3248.0, 3248.0, 3247.0, 3247.0, 3248.0, 3247.0, 3247.0, 3247.0, 3247.0, 3247.0]
    },
    "slices": {}
  }
}