{
  "AcquisitionMatrixPE": 80,
  "AcquisitionNumber": 1,
  "AcquisitionTime": "09:47:37.125000",
  "BandwidthPerPixelPhaseEncode": 46.296,
  "BaseResolution": 80,
  "BodyPartExamined": "BRAIN",
  "CoilCombinationMethod": "Sum of Squares",
  "ConsistencyInfo": "N4_VE11E_LATEST_20181129",
  "ConversionSoftware": "dcm2niix",
  "ConversionSoftwareVersion": "v1.0.20220720",
  "DerivedVendorReportedEchoSpacing": 0.000540003,
  "DeviceSerialNumber": "66112",
  "DwellTime": 2.7e-06,
  "EchoTime": 0.035,
  "EchoTrainLength": 39,
  "EffectiveEchoSpacing": 0.000270002,
  "FlipAngle": 90,
  "HeudiconvVersion": "0.13.1",
  "ImageOrientationPatientDICOM": [0.999952, 0.00921019, 0.0032884, -0.00977371, 0.952851, 0.30328],
  "ImageOrientationText": "Tra>Cor(17.7)>Sag(0.0)",
  "ImageType": [
    "ORIGINAL",
    "PRIMARY",
    "M",
    "ND",
    "NORM",
    "MOSAIC"
],
  "ImagingFrequency": 123.259,
  "InPlanePhaseEncodingDirectionDICOM": "COL",
  "InstitutionAddress": "Maynard 3,Hanover,NH,US,03755",
  "InstitutionName": "Dartmouth College - PBS",
  "InstitutionalDepartmentName": "Department",
  "MRAcquisitionType": "2D",
  "MagneticFieldStrength": 3,
  "Manufacturer": "Siemens",
  "ManufacturersModelName": "Prisma",
  "Modality": "MR",
  "MultibandAccelerationFactor": 4,
  "NonlinearGradientCorrection": false,
  "ParallelReductionFactorInPlane": 2,
  "PartialFourier": 1,
  "PatientPosition": "HFS",
  "PercentPhaseFOV": 100,
  "PercentSampling": 100,
  "PhaseEncodingDirection": "j-",
  "PhaseEncodingSteps": 79,
  "PhaseResolution": 1,
  "PixelBandwidth": 2315,
  "ProcedureStepDescription": "dbic^QA",
  "ProtocolName": "func-bold_task-rest_acq-p2-s4-3.5mm",
  "PulseSequenceDetails": "%SiemensSeq%\\ep2d_bold",
  "ReceiveCoilActiveElements": "HEA;HEP",
  "ReceiveCoilName": "Head_32",
  "ReconMatrixPE": 80,
  "RefLinesPE": 24,
  "RepetitionTime": 2,
  "SAR": 0.0209031,
  "ScanOptions": "FS",
  "ScanningSequence": "EP",
  "SequenceName": "*epfid2d1_80",
  "SequenceVariant": "SK",
  "SeriesDescription": "func-bold_task-rest_acq-p2-s4-3.5mm",
  "SeriesNumber": 7,
  "ShimSetting": [4219, -7736, -7485, -55, -141, 47, -31, 68],
  "SliceThickness": 3.5,
  "SliceTiming": [1.485, 0, 0.99, 0.2475, 1.2375, 0.7425, 1.7325, 0.495, 1.485, 0, 0.99, 0.2475, 1.2375, 0.7425, 1.7325, 0.495, 1.485, 0, 0.99, 0.2475, 1.2375, 0.7425, 1.7325, 0.495, 1.485, 0, 0.99, 0.2475, 1.2375, 0.7425, 1.7325, 0.495],
  "SoftwareVersions": "syngo MR E11",
  "SpacingBetweenSlices": 3.99,
  "StationName": "AWP66112",
  "TaskName": "rest",
  "TotalReadoutTime": 0.0213301,
  "TxRefAmp": 228.196,
  "dcmmeta_affine": [
    [-2.999856472015381, -0.02932114154100418, 0.0013569412985816598, 122.86236572265625],
    [-0.02763056941330433, 2.8585541248321533, 1.2101575136184692, -115.98059844970703],
    [0.009865185245871544, -0.9098399877548218, 3.8020541667938232, -21.254701614379883],
    [0.0, 0.0, 0.0, 1.0]
],
  "dcmmeta_reorient_transform": [
    [0.0, -1.0, 0.0, 79.0],
    [1.0, 0.0, 0.0, 0.0],
    [0.0, 0.0, 1.0, 0.0],
    [0.0, 0.0, 0.0, 1.0]
],
  "dcmmeta_shape": [80, 80, 32, 200],
  "dcmmeta_slice_dim": 2,
  "dcmmeta_version": 0.6,
  "global": {
    "const": {
      "AccessionNumber": "qa",
      "AcquisitionMatrix": [80, 0, 0, 80],
      "AngioFlag": "N",
      "BitsAllocated": 16,
      "BitsStored": 12,
      "BodyPartExamined": "BRAIN",
      "Columns": 480,
      "EchoNumbers": 1,
      "EchoTime": 35.0,
      "EchoTrainLength": 39,
      "FlipAngle": 90.0,
      "HighBit": 11,
      "ImageOrientationPatient": [0.99995217828599, 0.00921018990399, 0.00328839520713, -0.0097737138759, 0.95285136382707, 0.30327999104782],
      "ImagePositionPatient": [-714.65307335193, -687.08210578048, -277.07309110039],
      "ImageType": [
        "ORIGINAL",
        "PRIMARY",
        "M",
        "ND",
        "NORM",
        "MOSAIC"
],
      "ImagedNucleus": "1H",
      "ImagingFrequency": 123.259342,
      "InPlanePhaseEncodingDirection": "COL",
      "MRAcquisitionType": "2D",
      "MagneticFieldStrength": 3.0,
      "Manufacturer": "SIEMENS",
      "ManufacturerModelName": "Prisma",
      "Modality": "MR",
      "NumberOfAverages": 1.0,
      "NumberOfPhaseEncodingSteps": 79,
      "PercentPhaseFieldOfView": 100.0,
      "PercentSampling": 100.0,
      "PerformedProcedureStepStartTime": "093156.641000",
      "PhotometricInterpretation": "MONOCHROME2",
      "PixelBandwidth": 2315.0,
      "PixelRepresentation": 0,
      "PixelSpacing": [3.0, 3.0],
      "ProtocolName": "func-bold_task-rest_acq-p2-s4-3.5mm",
      "RepetitionTime": 2000.0,
      "Rows": 480,
      "SAR": 0.02090308279821,
      "SamplesPerPixel": 1,
      "ScanOptions": "FS",
      "ScanningSequence": "EP",
      "SequenceName": "*epfid2d1_80",
      "SequenceVariant": "SK",
      "SeriesDescription": "func-bold_task-rest_acq-p2-s4-3.5mm",
      "SeriesNumber": 7,
      "SeriesTime": "094834.835000",
      "SliceLocation": -55.388373078047,
      "SliceThickness": 3.5,
      "SmallestImagePixelValue": 0,
      "SoftwareVersions": "syngo MR E11",
      "SpacingBetweenSlices": 3.9899999484933,
      "SpecificCharacterSet": "ISO_IR 100",
      "StudyID": "10",
      "StudyTime": "093156.599000",
      "TransmitCoilName": "Body",
      "VariableFlipAngleFlag": "N",
      "WindowCenterWidthExplanation": "Algo1"
    },
    "slices": {}
  },
  "time": {
    "samples": {
      "AcquisitionNumber": [1, 2, 3, 4, 5, 6, 7, 8, 9, 10, 11, 12, 13, 14, 15, 16, 17, 18, 19, 20, 21, 22, 23, 24, 25, 26, 27, 28, 29, 30, 31, 32, 33, 34, 35, 36, 37, 38, 39, 40, 41, 42, 43, 44, 45, 46, 47, 48, 49, 50, 51, 52, 53, 54, 55, 56, 57, 58, 59, 60, 61, 62, 63, 64, 65, 66, 67, 68, 69, 70, 71, 72, 73, 74, 75, 76, 77, 78, 79, 80, 81, 82, 83, 84, 85, 86, 87, 88, 89, 90, 91, 92, 93, 94, 95, 96, 97, 98, 99, 100, 101, 102, 103, 104, 105, 106, 107, 108, 109, 110, 111, 112, 113, 114, 115, 116, 117, 118, 119, 120, 121, 122, 123, 124, 125, 126, 127, 128, 129, 130, 131, 132, 133, 134, 135, 136, 137, 138, 139, 140, 141, 142, 143, 144, 145, 146, 147, 148, 149, 150, 151, 152, 153, 154, 155, 156, 157, 158, 159, 160, 161, 162, 163, 164, 165, 166, 167, 168, 169, 170, 171, 172, 173, 174, 175, 176, 177, 178, 179, 180, 181, 182, 183, 184, 185, 186, 187, 188, 189, 190, 191, 192, 193, 194, 195, 196, 197, 198, 199, 200],
      "AcquisitionTime": ["094737.125000", "094739.125000", "094741.125000", "094743.125000", "094745.125000", "094747.125000", "094749.125000", "094751.125000", "094753.125000", "094755.125000", "094757.125000", "094759.125000", "094801.125000", "094803.125000", "094805.125000", "094807.125000", "094809.125000", "094811.125000", "094813.125000", "094815.125000", "094817.125000", "094819.125000", "094821.125000", "094823.125000", "094825.125000", "094827.125000", "094829.125000", "094831.125000", "094833.125000", "094835.125000", "094837.125000", "094839.125000", "094841.125000", "094843.125000", "094845.125000", "094847.125000", "094849.125000", "094851.125000", "094853.125000", "094855.125000", "094857.125000", "094859.125000", "094901.125000", "094903.125000", "094905.125000", "094907.125000", "094909.125000", "094911.125000", "094913.125000", "094915.125000", "094917.125000", "094919.125000", "094921.125000", "094923.125000", "094925.125000", "094927.125000", "094929.125000", "094931.125000", "094933.125000", "094935.125000", "094937.125000", "094939.125000", "094941.125000", "094943.125000", "094945.125000", "094947.125000", "094949.125000", "094951.125000", "094953.125000", "094955.125000", "094957.125000", "094959.125000", "095001.125000", "095003.125000", "095005.125000", "095007.125000", "095009.125000", "095011.125000", "095013.125000", "095015.125000", "095017.125000", "095019.125000", "095021.125000", "095023.125000", "095025.125000", "095027.125000", "095029.125000", "095031.125000", "095033.125000", "095035.125000", "095037.125000", "095039.125000", "095041.125000", "095043.125000", "095045.125000", "095047.125000", "095049.125000", "095051.125000", "095053.125000", "095055.125000", "095057.125000", "095059.125000", "095101.125000", "095103.125000", "095105.125000", "095107.125000", "095109.125000", "095111.125000", "095113.125000", "095115.125000", "095117.125000", "095119.125000", "095121.125000", "095123.125000", "095125.125000", "095127.125000", "095129.125000", "095131.125000", "095133.125000", "095135.125000", "095137.125000", "095139.125000", "095141.125000", "095143.125000", "095145.125000", "095147.125000", "095149.125000", "095151.125000", "095153.125000", "095155.125000", "095157.125000", "095159.125000", "095201.125000", "095203.125000", "095205.125000", "095207.125000", "095209.125000", "095211.125000", "095213.125000", "095215.125000", "095217.125000", "095219.125000", "095221.125000", "095223.125000", "095225.125000", "095227.125000", "095229.125000", "095231.125000", "095233.125000", "095235.125000", "095237.125000", "095239.125000", "095241.125000", "095243.125000", "095245.125000", "095247.125000", "095249.125000", "095251.125000", "095253.125000", "095255.125000", "095257.125000", "095259.125000", "095301.125000", "095303.125000", "095305.125000", "095307.125000", "095309.125000", "095311.125000", "095313.125000", "095315.125000", "095317.125000", "095319.125000", "095321.125000", "095323.125000", "095325.125000", "095327.125000", "095329.125000", "095331.125000", "095333.125000", "095335.125000", "095337.125000", "095339.125000", "095341.125000", "095343.125000", "095345.125000", "095347.125000", "095349.125000", "095351.125000", "095353.125000", "095355.125000", "095357.125000", "095359.125000", "095401.125000", "095403.125000", "095405.125000", "095407.125000", "095409.125000", "095411.125000", "095413.125000", "095415.125000"],
      "ContentTime": ["094834.838000", "094834.841000", "094834.843000", "094834.852000", "094834.855000", "094834.863000", "094834.866000", "094834.868000", "094834.870000", "094834.873000", "094834.875000", "094834.877000", "094834.880000", "094834.882000", "094834.884000", "094834.886000", "094834.889000", "094834.901000", "094834.903000", "094834.905000", "094834.908000", "094834.910000", "094834.912000", "094834.915000", "094834.917000", "094834.919000", "094834.922000", "094834.924000", "094834.927000", "094914.834000", "094914.837000", "094914.839000", "094914.842000", "094914.844000", "094914.846000", "094914.849000", "094914.851000", "094914.853000", "094914.855000", "094914.858000", "094914.860000", "094914.862000", "094914.865000", "094914.867000", "094914.869000", "094914.872000", "094914.874000", "094914.876000", "094914.879000", "094954.833000", "094954.836000", "094954.838000", "094954.840000", "094954.843000", "094954.845000", "094954.847000", "094954.850000", "094954.852000", "094954.854000", "094954.856000", "094954.859000", "094954.861000", "094954.863000", "094954.866000", "094954.868000", "094954.870000", "094954.873000", "094954.875000", "094954.889000", "095034.833000", "095034.836000", "095034.838000", "095034.841000", "095034.843000", "095034.845000", "095034.847000", "095034.850000", "095034.852000", "095034.854000", "095034.857000", "095034.859000", "095034.861000", "095034.864000", "095034.866000", "095034.869000", "095034.871000", "095034.873000", "095034.876000", "095034.878000", "095114.834000", "095114.837000", "095114.839000", "095114.842000", "095114.844000", "095114.846000", "095114.849000", "095114.851000", "095114.853000", "095114.856000", "095114.858000", "095114.860000", "095114.862000", "095114.865000", "095114.867000", "095114.869000", "095114.872000", "095114.887000", "095114.889000", "095114.892000", "095154.834000", "095154.837000", "095154.839000", "095154.841000", "095154.844000", "095154.846000", "095154.848000", "095154.851000", "095154.853000", "095154.855000", "095154.858000", "095154.860000", "095154.862000", "095154.865000", "095154.867000", "095154.869000", "095154.872000", "095154.874000", "095154.876000", "095154.879000", "095234.833000", "095234.836000", "095234.839000", "095234.841000", "095234.843000", "095234.846000", "095234.848000", "095234.850000", "095234.853000", "095234.855000", "095234.858000", "095234.860000", "095234.862000", "095234.865000", "095234.867000", "095234.869000", "095234.872000", "095234.874000", "095234.877000", "095234.879000", "095314.833000", "095314.836000", "095314.838000", "095314.841000", "095314.843000", "095314.845000", "095314.848000", "095314.850000", "095314.852000", "095314.855000", "095314.857000", "095314.859000", "095314.862000", "095314.864000", "095314.866000", "095314.869000", "095314.871000", "095314.873000", "095314.876000", "095314.878000", "095354.834000", "095354.837000", "095354.839000", "095354.842000", "095354.844000", "095354.847000", "095354.849000", "095354.851000", "095354.862000", "095354.864000", "095354.867000", "095354.869000", "095354.871000", "095354.874000", "095354.876000", "095354.879000", "095354.881000", "095354.883000", "095354.886000", "095354.888000", "095416.190000", "095416.192000", "095416.195000", "095416.197000", "095416.199000", "095416.202000", "095416.204000", "095416.207000", "095416.209000", "095416.211000", "095416.214000"],
      "InstanceCreationTime": ["094834.838000", "094834.841000", "094834.843000", "094834.852000", "094834.855000", "094834.863000", "094834.866000", "094834.868000", "094834.870000", "094834.873000", "094834.875000", "094834.877000", "094834.880000", "094834.882000", "094834.884000", "094834.886000", "094834.889000", "094834.901000", "094834.903000", "094834.905000", "094834.908000", "094834.910000", "094834.912000", "094834.915000", "094834.917000", "094834.919000", "094834.922000", "094834.924000", "094834.927000", "094914.834000", "094914.837000", "094914.839000", "094914.842000", "094914.844000", "094914.846000", "094914.849000", "094914.851000", "094914.853000", "094914.855000", "094914.858000", "094914.860000", "094914.862000", "094914.865000", "094914.867000", "094914.869000", "094914.872000", "094914.874000", "094914.876000", "094914.879000", "094954.833000", "094954.836000", "094954.838000", "094954.840000", "094954.843000", "094954.845000", "094954.847000", "094954.850000", "094954.852000", "094954.854000", "094954.856000", "094954.859000", "094954.861000", "094954.863000", "094954.866000", "094954.868000", "094954.870000", "094954.873000", "094954.875000", "094954.889000", "095034.833000", "095034.836000", "095034.838000", "095034.841000", "095034.843000", "095034.845000", "095034.847000", "095034.850000", "095034.852000", "095034.854000", "095034.857000", "095034.859000", "095034.861000", "095034.864000", "095034.866000", "095034.869000", "095034.871000", "095034.873000", "095034.876000", "095034.878000", "095114.834000", "095114.837000", "095114.839000", "095114.842000", "095114.844000", "095114.846000", "095114.849000", "095114.851000", "095114.853000", "095114.856000", "095114.858000", "095114.860000", "095114.862000", "095114.865000", "095114.867000", "095114.869000", "095114.872000", "095114.887000", "095114.889000", "095114.892000", "095154.834000", "095154.837000", "095154.839000", "095154.841000", "095154.844000", "095154.846000", "095154.848000", "095154.851000", "095154.853000", "095154.855000", "095154.858000", "095154.860000", "095154.862000", "095154.865000", "095154.867000", "095154.869000", "095154.872000", "095154.874000", "095154.876000", "095154.879000", "095234.833000", "095234.836000", "095234.839000", "095234.841000", "095234.843000", "095234.846000", "095234.848000", "095234.850000", "095234.853000", "095234.855000", "095234.858000", "095234.860000", "095234.862000", "095234.865000", "095234.867000", "095234.869000", "095234.872000", "095234.874000", "095234.877000", "095234.879000", "095314.833000", "095314.836000", "095314.838000", "095314.841000", "095314.843000", "095314.845000", "095314.848000", "095314.850000", "095314.852000", "095314.855000", "095314.857000", "095314.859000", "095314.862000", "095314.864000", "095314.866000", "095314.869000", "095314.871000", "095314.873000", "095314.876000", "095314.878000", "095354.834000", "095354.837000", "095354.839000", "095354.842000", "095354.844000", "095354.847000", "095354.849000", "095354.851000", "095354.862000", "095354.864000", "095354.867000", "095354.869000", "095354.871000", "095354.874000", "095354.876000", "095354.879000", "095354.881000", "095354.883000", "095354.886000", "095354.888000", "095416.190000", "095416.192000", "095416.195000", "095416.197000", "095416.199000", "095416.202000", "095416.204000", "095416.207000", "095416.209000", "095416.211000", "095416.214000"],
      "InstanceNumber": [1, 2, 3, 4, 5, 6, 7, 8, 9, 10, 11, 12, 13, 14, 15, 16, 17, 18, 19, 20, 21, 22, 23, 24, 25, 26, 27, 28, 29, 30, 31, 32, 33, 34, 35, 36, 37, 38, 39, 40, 41, 42, 43, 44, 45, 46, 47, 48, 49, 50, 51, 52, 53, 54, 55, 56, 57, 58, 59, 60, 61, 62, 63, 64, 65, 66, 67, 68, 69, 70, 71, 72, 73, 74, 75, 76, 77, 78, 79, 80, 81, 82, 83, 84, 85, 86, 87, 88, 89, 90, 91, 92, 93, 94, 95, 96, 97, 98, 99, 100, 101, 102, 103, 104, 105, 106, 107, 108, 109, 110, 111, 112, 113, 114, 115, 116, 117, 118, 119, 120, 121, 122, 123, 124, 125, 126, 127, 128, 129, 130, 131, 132, 133, 134, 135, 136, 137, 138, 139, 140, 141, 142, 143, 144, 145, 146, 147, 148, 149, 150, 151, 152, 153, 154, 155, 156, 157, 158, 159, 160, 161, 162, 163, 164, 165, 166, 167, 168, 169, 170, 171, 172, 173, 174, 175, 176, 177, 178, 179, 180, 181, 182, 183, 184, 185, 186, 187, 188, 189, 190, 191, 192, 193, 194, 195, 196, 197, 198, 199, 200],
      "LargestImagePixelValue": [1965, 1968, 1966, 1963, 1970, 1967, 1968, 1965, 1966, 1966, 1971, 1968, 1963, 1964, 1969, 1969, 1965, 1969, 1966, 1965, 1970, 1968, 1967, 1967, 1962, 1966, 1968, 1968, 1963, 1965, 1968, 1967, 1970, 1967, 1963, 1968, 1961, 1966, 1965, 1962, 1962, 1968, 1966, 1966, 1965, 1962, 1966, 1964, 1965, 1963, 1962, 1963, 1964, 1964, 1963, 1966, 1969, 1963, 1964, 1967, 1965, 1965, 1957, 1966, 1960, 1960, 1964, 1963, 1962, 1962, 1964, 1963, 1962, 1964, 1966, 1962, 1964, 1967, 1960, 1963, 1961, 1963, 1964, 1966, 1964, 1960, 1966, 1961, 1965, 1961, 1969, 1962, 1963, 1963, 1963, 1961, 1962, 1959, 1961, 1962, 1958, 1961, 1962, 1963, 1960, 1968, 1957, 1963, 1961, 1961, 1966, 1959, 1961, 1960, 1965, 1962, 1962, 1970, 1962, 1965, 1965, 1961, 1964, 1963, 1958, 1959, 1960, 1962, 1965, 1963, 1962, 1963, 1963, 1959, 1966, 1958, 1960, 1965, 1960, 1960, 1964, 1959, 1964, 1964, 1962, 1963, 1957, 1960, 1958, 1959, 1961, 1964, 1961, 1962, 1960, 1962, 1963, 1961, 1964, 1961, 1956, 1963, 1961, 1956, 1961, 1962, 1960, 1966, 1961, 1964, 1961, 1962, 1959, 1959, 1962, 1958, 1956, 1961, 1956, 1959, 1958, 1957, 1958, 1958, 1958, 1961, 1958, 1961, 1959, 1958, 1961, 1960, 1959, 1962, 1958, 1959, 1957, 1958, 1957, 1959],
      "WindowCenter": [928.0, 929.0, 928.0, 927.0, 929.0, 929.0, 928.0, 929.0, 928.0, 929.0, 929.0, 929.0, 928.0, 928.0, 929.0, 929.0, 929.0, 929.0, 928.0, 927.0, 928.0, 929.0, 928.0, 928.0, 928.0, 928.0, 928.0, 927.0, 928.0, 928.0, 928.0, 928.0, 928.0, 927.0, 929.0, 929.0, 929.0, 928.0, 928.0, 928.0, 928.0, 927.0, 928.0, 928.0, 927.0, 928.0, 929.0, 929.0, 929.0, 928.0, 928.0, 928.0, 929.0, 929.0, 926.0, 929.0, 929.0, 929.0, 928.0, 928.0, 929.0, 928.0, 928.0, 929.0, 928.0, 928.0, 926.0, 928.0, 928.0, 928.0, 926.0, 928.0, 927.0, 928.0, 928.0, 929.0, 928.0, 928.0, 929.0, 929.0, 928.0, 929.0, 929.0, 928.0, 928.0, 927.0, 928.0, 927.0, 928.0, 928.0, 928.0, 929.0, 929.0, 928.0, 929.0, 928.0, 928.0, 928.0, 927.0, 928.0, 928.0, 929.0, 929.0, 928.0, 928.0, 929.0, 928.0, 929.0, 929.0, 928.0, 927.0, 927.0, 927.0, 928.0, 927.0, 928.0, 928.0, 928.0, 928.0, 928.0, 928.0, 928.0, 927.0, 928.0, 928.0, 928.0, 927.0, 928.0, 928.0, 928.0, 928.0, 928.0, 928.0, 928.0, 928.0, 928.0, 928.0, 928.0, 928.0, 928.0, 928.0, 928.0, 928.0, 928.0, 927.0, 928.0, 928.0, 927.0, 928.0, 928.0, 928.0, 928.0, 928.0, 927.0, 928.0, 928.0, 929.0, 928.0, 928.0, 928.0, 928.0, 928.0, 928.0, 928.0, 928.0, 927.0, 928.0, 928.0, 928.0, 929.0, 928.0, 928.0, 928.0, 928.0, 928.0, 928.0, 928.0, 928.0, 928.0, 928.0, 928.0, 928.0, 927.0, 928.0, 927.0, 927.0, 928.0, 928.0, 927.0, 928.0, 928.0, 928.0, 928.0, 928.0, 928.0, 928.0, 928.0, 928.0, 928.0, 928.0],
      "WindowWidth": [2126.0, 2127.0, 2126.0, 2125.0, 2126.0, 2126.0, 2125.0, 2126.0, 2126.0, 2126.0, 2126.0, 2126.0, 2125.0, 2125.0, 2126.0, 2126.0, 2126.0, 2126.0, 2126.0, 2125.0, 2126.0, 2126.0, 2127.0, 2125.0, 2126.0, 2126.0, 2125.0, 2125.0, 2125.0, 2125.0, 2126.0, 2126.0, 2126.0, 2125.0, 2127.0, 2126.0, 2126.0, 2125.0, 2126.0, 2126.0, 2126.0, 2125.0, 2127.0, 2126.0, 2125.0, 2126.0, 2126.0, 2127.0, 2127.0, 2127.0, 2126.0, 2126.0, 2127.0, 2127.0, 2125.0, 2127.0, 2127.0, 2127.0, 2126.0, 2126.0, 2127.0, 2126.0, 2126.0, 2127.0, 2127.0, 2126.0, 2124.0, 2127.0, 2127.0, 2126.0, 2125.0, 2126.0, 2125.0, 2127.0, 2126.0, 2127.0, 2127.0, 2126.0, 2127.0, 2127.0, 2126.0, 2127.0, 2127.0, 2126.0, 2126.0, 2125.0, 2127.0, 2125.0, 2127.0, 2127.0, 2125.0, 2127.0, 2127.0, 2126.0, 2127.0, 2126.0, 2126.0, 2126.0, 2125.0, 2127.0, 2127.0, 2127.0, 2127.0, 2126.0, 2126.0, 2127.0, 2127.0, 2126.0, 2126.0, 2126.0, 2125.0, 2125.0, 2124.0, 2126.0, 2125.0, 2126.0, 2127.0, 2126.0, 2126.0, 2126.0, 2126.0, 2127.0, 2125.0, 2127.0, 2126.0, 2127.0, 2125.0, 2126.0, 2127.0, 2127.0, 2127.0, 2126.0, 2126.0, 2126.0, 2127.0, 2125.0, 2126.0, 2127.0, 2127.0, 2127.0, 2126.0, 2126.0, 2126.0, 2127.0, 2125.0, 2127.0, 2127.0, 2125.0, 2126.0, 2127.0, 2126.0, 2127.0, 2126.0, 2125.0, 2127.0, 2126.0, 2127.0, 2126.0, 2126.0, 2126.0, 2127.0, 2126.0, 2127.0, 2127.0, 2127.0, 2125.0, 2127.0, 2126.0, 2126.0, 2126.0, 2126.0, 2126.0, 2126.0, 2127.0, 2127.0, 2126.0, 2126.0, 2126.0, 2126.0, 2125.0, 2126.0, 2127.0, 2125.0, 2125.0, 2124.0, 2124.0, 2126.0, 2127.0, 2125.0, 2127.0, 2126.0, 2125.0, 2126.0, 2126.0, 2125.0, 2126.0, 2125.0, 2125.0, 2127.0, 2126.0]
    },
    "slices": {}
  }
}