{
  "AcquisitionMatrixPE": 122,
  "AcquisitionNumber": 1,
  "AcquisitionTime": "11:13:3.492500",
  "BandwidthPerPixelPhaseEncode": 27.785,
  "BaseResolution": 122,
  "BodyPartExamined": "BRAIN",
  "CoilCombinationMethod": "Adaptive Combine",
  "ConsistencyInfo": "N4_VE11C_LATEST_20160120",
  "ConversionSoftware": "dcm2niix",
  "ConversionSoftwareVersion": "v1.0.20220720",
  "DerivedVendorReportedEchoSpacing": 0.000590011,
  "DeviceSerialNumber": "66112",
  "DiffusionScheme": "Monopolar",
  "DwellTime": 2e-06,
  "EchoTime": 0.068,
  "EchoTrainLength": 61,
  "EffectiveEchoSpacing": 0.000295005,
  "FlipAngle": 90,
  "HeudiconvVersion": "0.13.1",
  "ImageOrientationPatientDICOM": [0.987712, 0.155673, 0.0137854, -0.1522, 0.93813, 0.311041],
  "ImageOrientationText": "Tra>Cor(18.0)>Sag(-2.0)",
  "ImageType": [
    "ORIGINAL",
    "PRIMARY",
    "DIFFUSION",
    "NONE",
    "ND",
    "NORM"
],
  "ImagingFrequency": 123.252,
  "InPlanePhaseEncodingDirectionDICOM": "COL",
  "InstitutionAddress": "Maynard 3,Hanover,NH,US,03755",
  "InstitutionName": "Dartmouth College - PBS",
  "InstitutionalDepartmentName": "Department",
  "MRAcquisitionType": "2D",
  "MagneticFieldStrength": 3,
  "Manufacturer": "Siemens",
  "ManufacturersModelName": "Prisma",
  "Modality": "MR",
  "MultibandAccelerationFactor": 4,
  "NonlinearGradientCorrection": false,
  "ParallelReductionFactorInPlane": 2,
  "PartialFourier": 1,
  "PatientPosition": "HFS",
  "PercentPhaseFOV": 100,
  "PercentSampling": 100,
  "PhaseEncodingDirection": "j-",
  "PhaseEncodingSteps": 122,
  "PhaseResolution": 1,
  "PixelBandwidth": 2050,
  "ProcedureStepDescription": "dbic^QA",
  "ProtocolName": "dwi_acq-DTI-30-p2-s4",
  "PulseSequenceDetails": "%SiemensSeq%\\ep2d_diff",
  "ReceiveCoilActiveElements": "HEA;HEP",
  "ReceiveCoilName": "Head_32",
  "ReconMatrixPE": 122,
  "RefLinesPE": 38,
  "RepetitionTime": 3.6,
  "SAR": 0.162075,
  "ScanOptions": "FS",
  "ScanningSequence": "EP",
  "SequenceName": "*ep_b0",
  "SequenceVariant": "SK\\SP",
  "SeriesDescription": "dwi_acq-DTI-30-p2-s4",
  "SeriesNumber": 13,
  "ShimSetting": [4158, -7701, -7513, 274, 6, -126, -5, 61],
  "SliceThickness": 2,
  "SliceTiming": [2.58594, 0, 1.78906, 0.20312, 1.99219, 0.39844, 2.1875, 0.60156, 2.39062, 1, 2.78906, 1.19531, 2.98438, 1.39062, 3.1875, 1.59375, 3.38281, 0.79688, 2.58594, 0, 1.78906, 0.20312, 1.99219, 0.39844, 2.1875, 0.60156, 2.39062, 1, 2.78906, 1.19531, 2.98438, 1.39062, 3.1875, 1.59375, 3.38281, 0.79688, 2.58594, 0, 1.78906, 0.20312, 1.99219, 0.39844, 2.1875, 0.60156, 2.39062, 1, 2.78906, 1.19531, 2.98438, 1.39062, 3.1875, 1.59375, 3.38281, 0.79688, 2.58594, 0, 1.78906, 0.20312, 1.99219, 0.39844, 2.1875, 0.60156, 2.39062, 1, 2.78906, 1.19531, 2.98438, 1.39062, 3.1875, 1.59375, 3.38281, 0.79688],
  "SoftwareVersions": "syngo MR E11",
  "SpacingBetweenSlices": 2,
  "SpoilingState": true,
  "StationName": "AWP66112",
  "TotalReadoutTime": 0.0356956,
  "TxRefAmp": 220.22,
  "dcmmeta_affine": [
    [-1.9430407285690308, -0.29940977692604065, -0.07097667455673218, 141.07752990722656],
    [-0.30624279379844666, 1.845502257347107, 0.6186332702636719, -102.35433197021484],
    [0.02711891382932663, -0.6118847131729126, 1.9005928039550781, -35.50230407714844],
    [0.0, 0.0, 0.0, 1.0]
],
  "dcmmeta_reorient_transform": [
    [0.0, -1.0, 0.0, 121.0],
    [1.0, 0.0, 0.0, 0.0],
    [0.0, 0.0, -1.0, 71.0],
    [0.0, 0.0, 0.0, 1.0]
],
  "dcmmeta_shape": [122, 122, 72, 31],
  "dcmmeta_slice_dim": 2,
  "dcmmeta_version": 0.6,
  "global": {
    "const": {
      "AccessionNumber": "qa",
      "AcquisitionMatrix": [122, 0, 0, 122],
      "AngioFlag": "N",
      "BitsAllocated": 16,
      "BitsStored": 12,
      "BodyPartExamined": "BRAIN",
      "Columns": 122,
      "EchoNumbers": 1,
      "EchoTime": 68.0,
      "EchoTrainLength": 61,
      "FlipAngle": 90.0,
      "HighBit": 11,
      "ImageOrientationPatient": [0.98771238090761, 0.15567342109987, 0.01378544757651, -0.1521999705551, 0.93813028333796, 0.31104138060276],
      "ImageType": [
        "ORIGINAL",
        "PRIMARY",
        "DIFFUSION",
        "NONE",
        "ND",
        "NORM"
],
      "ImagedNucleus": "1H",
      "ImagingFrequency": 123.252376,
      "InPlanePhaseEncodingDirection": "COL",
      "MRAcquisitionType": "2D",
      "MagneticFieldStrength": 3.0,
      "Manufacturer": "SIEMENS",
      "ManufacturerModelName": "Prisma",
      "Modality": "MR",
      "NumberOfAverages": 1.0,
      "NumberOfPhaseEncodingSteps": 122,
      "PercentPhaseFieldOfView": 100.0,
      "PercentSampling": 100.0,
      "PerformedProcedureStepStartTime": "103653.836000",
      "PhotometricInterpretation": "MONOCHROME2",
      "PixelBandwidth": 2050.0,
      "PixelRepresentation": 0,
      "PixelSpacing": [1.9672131538391, 1.9672131538391],
      "ProtocolName": "dwi_acq-DTI-30-p2-s4",
      "RepetitionTime": 3600.0,
      "Rows": 122,
      "SAR": 0.16207464832252,
      "SamplesPerPixel": 1,
      "ScanOptions": "FS",
      "ScanningSequence": "EP",
      "SequenceVariant": [
        "SK",
        "SP"
],
      "SeriesDescription": "dwi_acq-DTI-30-p2-s4",
      "SeriesNumber": 13,
      "SeriesTime": "111309.695000",
      "SliceThickness": 2.0,
      "SmallestImagePixelValue": 0,
      "SoftwareVersions": "syngo MR E11",
      "SpacingBetweenSlices": 2.0,
      "SpecificCharacterSet": "ISO_IR 100",
      "StudyID": "4",
      "StudyTime": "103653.750000",
      "TransmitCoilName": "Body",
      "VariableFlipAngleFlag": "N",
      "WindowCenterWidthExplanation": "Algo1",
      "dBdt": 0.0},
    "slices": {
      "AcquisitionTime": ["111303.492500", "111300.907500", "111302.697500", "111301.107500", "111302.897500", "111301.305000", "111303.095000", "111301.505000", "111303.295000", "111301.902500", "111303.692500", "111302.102500", "111303.892500", "111302.300000", "111304.090000", "111302.500000", "111304.290000", "111301.702500", "111303.492500", "111300.907500", "111302.697500", "111301.107500", "111302.897500", "111301.305000", "111303.095000", "111301.505000", "111303.295000", "111301.902500", "111303.692500", "111302.102500", "111303.892500", "111302.300000", "111304.090000", "111302.500000", "111304.290000", "111301.702500", "111303.492500", "111300.907500", "111302.697500", "111301.107500", "111302.897500", "111301.305000", "111303.095000", "111301.505000", "111303.295000", "111301.902500", "111303.692500", "111302.102500", "111303.892500", "111302.300000", "111304.090000", "111302.500000", "111304.290000", "111301.702500", "111303.492500", "111300.907500", "111302.697500", "111301.107500", "111302.897500", "111301.305000", "111303.095000", "111301.505000", "111303.295000", "111301.902500", "111303.692500", "111302.102500", "111303.892500", "111302.300000", "111304.090000", "111302.500000", "111304.290000", "111301.702500", "111307.092500", "111304.507500", "111306.297500", "111304.707500", "111306.497500", "111304.905000", "111306.695000", "111305.105000", "111306.895000", "111305.502500", "111307.292500", "111305.702500", "111307.492500", "111305.900000", "111307.690000", "111306.100000", "111307.890000", "111305.302500", "111307.092500", "111304.507500", "111306.297500", "111304.707500", "111306.497500", "111304.905000", "111306.695000", "111305.105000", "111306.895000", "111305.502500", "111307.292500", "111305.702500", "111307.492500", "111305.900000", "111307.690000", "111306.100000", "111307.890000", "111305.302500", "111307.092500", "111304.507500", "111306.297500", "111304.707500", "111306.497500", "111304.905000", "111306.695000", "111305.105000", "111306.895000", "111305.502500", "111307.292500", "111305.702500", "111307.492500", "111305.900000", "111307.690000", "111306.100000", "111307.890000", "111305.302500", "111307.092500", "111304.507500", "111306.297500", "111304.707500", "111306.497500", "111304.905000", "111306.695000", "111305.105000", "111306.895000", "111305.502500", "111307.292500", "111305.702500", "111307.492500", "111305.900000", "111307.690000", "111306.100000", "111307.890000", "111305.302500", "111310.692500", "111308.107500", "111309.897500", "111308.307500", "111310.097500", "111308.505000", "111310.295000", "111308.705000", "111310.495000", "111309.102500", "111310.892500", "111309.302500", "111311.092500", "111309.500000", "111311.290000", "111309.700000", "111311.490000", "111308.902500", "111310.692500", "111308.107500", "111309.897500", "111308.307500", "111310.097500", "111308.505000", "111310.295000", "111308.705000", "111310.495000", "111309.102500", "111310.892500", "111309.302500", "111311.092500", "111309.500000", "111311.290000", "111309.700000", "111311.490000", "111308.902500", "111310.692500", "111308.107500", "111309.897500", "111308.307500", "111310.097500", "111308.505000", "111310.295000", "111308.705000", "111310.495000", "111309.102500", "111310.892500", "111309.302500", "111311.092500", "111309.500000", "111311.290000", "111309.700000", "111311.490000", "111308.902500", "111310.692500", "111308.107500", "111309.897500", "111308.307500", "111310.097500", "111308.505000", "111310.295000", "111308.705000", "111310.495000", "111309.102500", "111310.892500", "111309.302500", "111311.092500", "111309.500000", "111311.290000", "111309.700000", "111311.490000", "111308.902500", "111314.292500", "111311.707500", "111313.497500", "111311.907500", "111313.697500", "111312.105000", "111313.895000", "111312.305000", "111314.095000", "111312.702500", "111314.492500", "111312.902500", "111314.692500", "111313.100000", "111314.890000", "111313.300000", "111315.090000", "111312.502500", "111314.292500", "111311.707500", "111313.497500", "111311.907500", "111313.697500", "111312.105000", "111313.895000", "111312.305000", "111314.095000", "111312.702500", "111314.492500", "111312.902500", "111314.692500", "111313.100000", "111314.890000", "111313.300000", "111315.090000", "111312.502500", "111314.292500", "111311.707500", "111313.497500", "111311.907500", "111313.697500", "111312.105000", "111313.895000", "111312.305000", "111314.095000", "111312.702500", "111314.492500", "111312.902500", "111314.692500", "111313.100000", "111314.890000", "111313.300000", "111315.090000", "111312.502500", "111314.292500", "111311.707500", "111313.497500", "111311.907500", "111313.697500", "111312.105000", "111313.895000", "111312.305000", "111314.095000", "111312.702500", "111314.492500", "111312.902500", "111314.692500", "111313.100000", "111314.890000", "111313.300000", "111315.090000", "111312.502500", "111317.892500", "111315.307500", "111317.097500", "111315.507500", "111317.297500", "111315.705000", "111317.495000", "111315.905000", "111317.695000", "111316.302500", "111318.092500", "111316.502500", "111318.292500", "111316.700000", "111318.490000", "111316.900000", "111318.690000", "111316.102500", "111317.892500", "111315.307500", "111317.097500", "111315.507500", "111317.297500", "111315.705000", "111317.495000", "111315.905000", "111317.695000", "111316.302500", "111318.092500", "111316.502500", "111318.292500", "111316.700000", "111318.490000", "111316.900000", "111318.690000", "111316.102500", "111317.892500", "111315.307500", "111317.097500", "111315.507500", "111317.297500", "111315.705000", "111317.495000", "111315.905000", "111317.695000", "111316.302500", "111318.092500", "111316.502500", "111318.292500", "111316.700000", "111318.490000", "111316.900000", "111318.690000", "111316.102500", "111317.892500", "111315.307500", "111317.097500", "111315.507500", "111317.297500", "111315.705000", "111317.495000", "111315.905000", "111317.695000", "111316.302500", "111318.092500", "111316.502500", "111318.292500", "111316.700000", "111318.490000", "111316.900000", "111318.690000", "111316.102500", "111321.492500", "111318.907500", "111320.697500", "111319.107500", "111320.897500", "111319.305000", "111321.095000", "111319.505000", "111321.295000", "111319.902500", "111321.692500", "111320.102500", "111321.892500", "111320.300000", "111322.090000", "111320.500000", "111322.290000", "111319.702500", "111321.492500", "111318.907500", "111320.697500", "111319.107500", "111320.897500", "111319.305000", "111321.095000", "111319.505000", "111321.295000", "111319.902500", "111321.692500", "111320.102500", "111321.892500", "111320.300000", "111322.090000", "111320.500000", "111322.290000", "111319.702500", "111321.492500", "111318.907500", "111320.697500", "111319.107500", "111320.897500", "111319.305000", "111321.095000", "111319.505000", "111321.295000", "111319.902500", "111321.692500", "111320.102500", "111321.892500", "111320.300000", "111322.090000", "111320.500000", "111322.290000", "111319.702500", "111321.492500", "111318.907500", "111320.697500", "111319.107500", "111320.897500", "111319.305000", "111321.095000", "111319.505000", "111321.295000", "111319.902500", "111321.692500", "111320.102500", "111321.892500", "111320.300000", "111322.090000", "111320.500000", "111322.290000", "111319.702500", "111325.092500", "111322.507500", "111324.297500", "111322.707500", "111324.497500", "111322.905000", "111324.695000", "111323.105000", "111324.895000", "111323.502500", "111325.292500", "111323.702500", "111325.492500", "111323.900000", "111325.690000", "111324.100000", "111325.890000", "111323.302500", "111325.092500", "111322.507500", "111324.297500", "111322.707500", "111324.497500", "111322.905000", "111324.695000", "111323.105000", "111324.895000", "111323.502500", "111325.292500", "111323.702500", "111325.492500", "111323.900000", "111325.690000", "111324.100000", "111325.890000", "111323.302500", "111325.092500", "111322.507500", "111324.297500", "111322.707500", "111324.497500", "111322.905000", "111324.695000", "111323.105000", "111324.895000", "111323.502500", "111325.292500", "111323.702500", "111325.492500", "111323.900000", "111325.690000", "111324.100000", "111325.890000", "111323.302500", "111325.092500", "111322.507500", "111324.297500", "111322.707500", "111324.497500", "111322.905000", "111324.695000", "111323.105000", "111324.895000", "111323.502500", "111325.292500", "111323.702500", "111325.492500", "111323.900000", "111325.690000", "111324.100000", "111325.890000", "111323.302500", "111328.692500", "111326.107500", "111327.897500", "111326.307500", "111328.097500", "111326.505000", "111328.295000", "111326.705000", "111328.495000", "111327.102500", "111328.892500", "111327.302500", "111329.092500", "111327.500000", "111329.290000", "111327.700000", "111329.490000", "111326.902500", "111328.692500", "111326.107500", "111327.897500", "111326.307500", "111328.097500", "111326.505000", "111328.295000", "111326.705000", "111328.495000", "111327.102500", "111328.892500", "111327.302500", "111329.092500", "111327.500000", "111329.290000", "111327.700000", "111329.490000", "111326.902500", "111328.692500", "111326.107500", "111327.897500", "111326.307500", "111328.097500", "111326.505000", "111328.295000", "111326.705000", "111328.495000", "111327.102500", "111328.892500", "111327.302500", "111329.092500", "111327.500000", "111329.290000", "111327.700000", "111329.490000", "111326.902500", "111328.692500", "111326.107500", "111327.897500", "111326.307500", "111328.097500", "111326.505000", "111328.295000", "111326.705000", "111328.495000", "111327.102500", "111328.892500", "111327.302500", "111329.092500", "111327.500000", "111329.290000", "111327.700000", "111329.490000", "111326.902500", "111332.292500", "111329.707500", "111331.497500", "111329.907500", "111331.697500", "111330.105000", "111331.895000", "111330.305000", "111332.095000", "111330.702500", "111332.492500", "111330.902500", "111332.692500", "111331.100000", "111332.890000", "111331.300000", "111333.090000", "111330.502500", "111332.292500", "111329.707500", "111331.497500", "111329.907500", "111331.697500", "111330.105000", "111331.895000", "111330.305000", "111332.095000", "111330.702500", "111332.492500", "111330.902500", "111332.692500", "111331.100000", "111332.890000", "111331.300000", "111333.090000", "111330.502500", "111332.292500", "111329.707500", "111331.497500", "111329.907500", "111331.697500", "111330.105000", "111331.895000", "111330.305000", "111332.095000", "111330.702500", "111332.492500", "111330.902500", "111332.692500", "111331.100000", "111332.890000", "111331.300000", "111333.090000", "111330.502500", "111332.292500", "111329.707500", "111331.497500", "111329.907500", "111331.697500", "111330.105000", "111331.895000", "111330.305000", "111332.095000", "111330.702500", "111332.492500", "111330.902500", "111332.692500", "111331.100000", "111332.890000", "111331.300000", "111333.090000", "111330.502500", "111335.892500", "111333.307500", "111335.097500", "111333.507500", "111335.297500", "111333.705000", "111335.495000", "111333.905000", "111335.695000", "111334.302500", "111336.092500", "111334.502500", "111336.292500", "111334.700000", "111336.490000", "111334.900000", "111336.690000", "111334.102500", "111335.892500", "111333.307500", "111335.097500", "111333.507500", "111335.297500", "111333.705000", "111335.495000", "111333.905000", "111335.695000", "111334.302500", "111336.092500", "111334.502500", "111336.292500", "111334.700000", "111336.490000", "111334.900000", "111336.690000", "111334.102500", "111335.892500", "111333.307500", "111335.097500", "111333.507500", "111335.297500", "111333.705000", "111335.495000", "111333.905000", "111335.695000", "111334.302500", "111336.092500", "111334.502500", "111336.292500", "111334.700000", "111336.490000", "111334.900000", "111336.690000", "111334.102500", "111335.892500", "111333.307500", "111335.097500", "111333.507500", "111335.297500", "111333.705000", "111335.495000", "111333.905000", "111335.695000", "111334.302500", "111336.092500", "111334.502500", "111336.292500", "111334.700000", "111336.490000", "111334.900000", "111336.690000", "111334.102500", "111339.492500", "111336.907500", "111338.697500", "111337.107500", "111338.897500", "111337.305000", "111339.095000", "111337.505000", "111339.295000", "111337.902500", "111339.692500", "111338.102500", "111339.892500", "111338.300000", "111340.090000", "111338.500000", "111340.290000", "111337.702500", "111339.492500", "111336.907500", "111338.697500", "111337.107500", "111338.897500", "111337.305000", "111339.095000", "111337.505000", "111339.295000", "111337.902500", "111339.692500", "111338.102500", "111339.892500", "111338.300000", "111340.090000", "111338.500000", "111340.290000", "111337.702500", "111339.492500", "111336.907500", "111338.697500", "111337.107500", "111338.897500", "111337.305000", "111339.095000", "111337.505000", "111339.295000", "111337.902500", "111339.692500", "111338.102500", "111339.892500", "111338.300000", "111340.090000", "111338.500000", "111340.290000", "111337.702500", "111339.492500", "111336.907500", "111338.697500", "111337.107500", "111338.897500", "111337.305000", "111339.095000", "111337.505000", "111339.295000", "111337.902500", "111339.692500", "111338.102500", "111339.892500", "111338.300000", "111340.090000", "111338.500000", "111340.290000", "111337.702500", "111343.092500", "111340.507500", "111342.297500", "111340.707500", "111342.497500", "111340.905000", "111342.695000", "111341.105000", "111342.895000", "111341.502500", "111343.292500", "111341.702500", "111343.492500", "111341.900000", "111343.690000", "111342.100000", "111343.890000", "111341.302500", "111343.092500", "111340.507500", "111342.297500", "111340.707500", "111342.497500", "111340.905000", "111342.695000", "111341.105000", "111342.895000", "111341.502500", "111343.292500", "111341.702500", "111343.492500", "111341.900000", "111343.690000", "111342.100000", "111343.890000", "111341.302500", "111343.092500", "111340.507500", "111342.297500", "111340.707500", "111342.497500", "111340.905000", "111342.695000", "111341.105000", "111342.895000", "111341.502500", "111343.292500", "111341.702500", "111343.492500", "111341.900000", "111343.690000", "111342.100000", "111343.890000", "111341.302500", "111343.092500", "111340.507500", "111342.297500", "111340.707500", "111342.497500", "111340.905000", "111342.695000", "111341.105000", "111342.895000", "111341.502500", "111343.292500", "111341.702500", "111343.492500", "111341.900000", "111343.690000", "111342.100000", "111343.890000", "111341.302500", "111346.692500", "111344.107500", "111345.897500", "111344.307500", "111346.097500", "111344.505000", "111346.295000", "111344.705000", "111346.495000", "111345.102500", "111346.892500", "111345.302500", "111347.092500", "111345.500000", "111347.290000", "111345.700000", "111347.490000", "111344.902500", "111346.692500", "111344.107500", "111345.897500", "111344.307500", "111346.097500", "111344.505000", "111346.295000", "111344.705000", "111346.495000", "111345.102500", "111346.892500", "111345.302500", "111347.092500", "111345.500000", "111347.290000", "111345.700000", "111347.490000", "111344.902500", "111346.692500", "111344.107500", "111345.897500", "111344.307500", "111346.097500", "111344.505000", "111346.295000", "111344.705000", "111346.495000", "111345.102500", "111346.892500", "111345.302500", "111347.092500", "111345.500000", "111347.290000", "111345.700000", "111347.490000", "111344.902500", "111346.692500", "111344.107500", "111345.897500", "111344.307500", "111346.097500", "111344.505000", "111346.295000", "111344.705000", "111346.495000", "111345.102500", "111346.892500", "111345.302500", "111347.092500", "111345.500000", "111347.290000", "111345.700000", "111347.490000", "111344.902500", "111350.292500", "111347.707500", "111349.497500", "111347.907500", "111349.697500", "111348.105000", "111349.895000", "111348.305000", "111350.095000", "111348.702500", "111350.492500", "111348.902500", "111350.692500", "111349.100000", "111350.890000", "111349.300000", "111351.090000", "111348.502500", "111350.292500", "111347.707500", "111349.497500", "111347.907500", "111349.697500", "111348.105000", "111349.895000", "111348.305000", "111350.095000", "111348.702500", "111350.492500", "111348.902500", "111350.692500", "111349.100000", "111350.890000", "111349.300000", "111351.090000", "111348.502500", "111350.292500", "111347.707500", "111349.497500", "111347.907500", "111349.697500", "111348.105000", "111349.895000", "111348.305000", "111350.095000", "111348.702500", "111350.492500", "111348.902500", "111350.692500", "111349.100000", "111350.890000", "111349.300000", "111351.090000", "111348.502500", "111350.292500", "111347.707500", "111349.497500", "111347.907500", "111349.697500", "111348.105000", "111349.895000", "111348.305000", "111350.095000", "111348.702500", "111350.492500", "111348.902500", "111350.692500", "111349.100000", "111350.890000", "111349.300000", "111351.090000", "111348.502500", "111353.892500", "111351.307500", "111353.097500", "111351.507500", "111353.297500", "111351.705000", "111353.495000", "111351.905000", "111353.695000", "111352.302500", "111354.092500", "111352.502500", "111354.292500", "111352.700000", "111354.490000", "111352.900000", "111354.690000", "111352.102500", "111353.892500", "111351.307500", "111353.097500", "111351.507500", "111353.297500", "111351.705000", "111353.495000", "111351.905000", "111353.695000", "111352.302500", "111354.092500", "111352.502500", "111354.292500", "111352.700000", "111354.490000", "111352.900000", "111354.690000", "111352.102500", "111353.892500", "111351.307500", "111353.097500", "111351.507500", "111353.297500", "111351.705000", "111353.495000", "111351.905000", "111353.695000", "111352.302500", "111354.092500", "111352.502500", "111354.292500", "111352.700000", "111354.490000", "111352.900000", "111354.690000", "111352.102500", "111353.892500", "111351.307500", "111353.097500", "111351.507500", "111353.297500", "111351.705000", "111353.495000", "111351.905000", "111353.695000", "111352.302500", "111354.092500", "111352.502500", "111354.292500", "111352.700000", "111354.490000", "111352.900000", "111354.690000", "111352.102500", "111357.492500", "111354.907500", "111356.697500", "111355.107500", "111356.897500", "111355.305000", "111357.095000", "111355.505000", "111357.295000", "111355.902500", "111357.692500", "111356.102500", "111357.892500", "111356.300000", "111358.090000", "111356.500000", "111358.290000", "111355.702500", "111357.492500", "111354.907500", "111356.697500", "111355.107500", "111356.897500", "111355.305000", "111357.095000", "111355.505000", "111357.295000", "111355.902500", "111357.692500", "111356.102500", "111357.892500", "111356.300000", "111358.090000", "111356.500000", "111358.290000", "111355.702500", "111357.492500", "111354.907500", "111356.697500", "111355.107500", "111356.897500", "111355.305000", "111357.095000", "111355.505000", "111357.295000", "111355.902500", "111357.692500", "111356.102500", "111357.892500", "111356.300000", "111358.090000", "111356.500000", "111358.290000", "111355.702500", "111357.492500", "111354.907500", "111356.697500", "111355.107500", "111356.897500", "111355.305000", "111357.095000", "111355.505000", "111357.295000", "111355.902500", "111357.692500", "111356.102500", "111357.892500", "111356.300000", "111358.090000", "111356.500000", "111358.290000", "111355.702500", "111401.092500", "111358.507500", "111400.297500", "111358.707500", "111400.497500", "111358.905000", "111400.695000", "111359.105000", "111400.895000", "111359.502500", "111401.292500", "111359.702500", "111401.492500", "111359.900000", "111401.690000", "111400.100000", "111401.890000", "111359.302500", "111401.092500", "111358.507500", "111400.297500", "111358.707500", "111400.497500", "111358.905000", "111400.695000", "111359.105000", "111400.895000", "111359.502500", "111401.292500", "111359.702500", "111401.492500", "111359.900000", "111401.690000", "111400.100000", "111401.890000", "111359.302500", "111401.092500", "111358.507500", "111400.297500", "111358.707500", "111400.497500", "111358.905000", "111400.695000", "111359.105000", "111400.895000", "111359.502500", "111401.292500", "111359.702500", "111401.492500", "111359.900000", "111401.690000", "111400.100000", "111401.890000", "111359.302500", "111401.092500", "111358.507500", "111400.297500", "111358.707500", "111400.497500", "111358.905000", "111400.695000", "111359.105000", "111400.895000", "111359.502500", "111401.292500", "111359.702500", "111401.492500", "111359.900000", "111401.690000", "111400.100000", "111401.890000", "111359.302500", "111404.692500", "111402.107500", "111403.897500", "111402.307500", "111404.097500", "111402.505000", "111404.295000", "111402.705000", "111404.495000", "111403.102500", "111404.892500", "111403.302500", "111405.092500", "111403.500000", "111405.290000", "111403.700000", "111405.490000", "111402.902500", "111404.692500", "111402.107500", "111403.897500", "111402.307500", "111404.097500", "111402.505000", "111404.295000", "111402.705000", "111404.495000", "111403.102500", "111404.892500", "111403.302500", "111405.092500", "111403.500000", "111405.290000", "111403.700000", "111405.490000", "111402.902500", "111404.692500", "111402.107500", "111403.897500", "111402.307500", "111404.097500", "111402.505000", "111404.295000", "111402.705000", "111404.495000", "111403.102500", "111404.892500", "111403.302500", "111405.092500", "111403.500000", "111405.290000", "111403.700000", "111405.490000", "111402.902500", "111404.692500", "111402.107500", "111403.897500", "111402.307500", "111404.097500", "111402.505000", "111404.295000", "111402.705000", "111404.495000", "111403.102500", "111404.892500", "111403.302500", "111405.092500", "111403.500000", "111405.290000", "111403.700000", "111405.490000", "111402.902500", "111408.292500", "111405.707500", "111407.497500", "111405.907500", "111407.697500", "111406.105000", "111407.895000", "111406.305000", "111408.095000", "111406.702500", "111408.492500", "111406.902500", "111408.692500", "111407.100000", "111408.890000", "111407.300000", "111409.090000", "111406.502500", "111408.292500", "111405.707500", "111407.497500", "111405.907500", "111407.697500", "111406.105000", "111407.895000", "111406.305000", "111408.095000", "111406.702500", "111408.492500", "111406.902500", "111408.692500", "111407.100000", "111408.890000", "111407.300000", "111409.090000", "111406.502500", "111408.292500", "111405.707500", "111407.497500", "111405.907500", "111407.697500", "111406.105000", "111407.895000", "111406.305000", "111408.095000", "111406.702500", "111408.492500", "111406.902500", "111408.692500", "111407.100000", "111408.890000", "111407.300000", "111409.090000", "111406.502500", "111408.292500", "111405.707500", "111407.497500", "111405.907500", "111407.697500", "111406.105000", "111407.895000", "111406.305000", "111408.095000", "111406.702500", "111408.492500", "111406.902500", "111408.692500", "111407.100000", "111408.890000", "111407.300000", "111409.090000", "111406.502500", "111411.892500", "111409.307500", "111411.097500", "111409.507500", "111411.297500", "111409.705000", "111411.495000", "111409.905000", "111411.695000", "111410.302500", "111412.092500", "111410.502500", "111412.292500", "111410.700000", "111412.490000", "111410.900000", "111412.690000", "111410.102500", "111411.892500", "111409.307500", "111411.097500", "111409.507500", "111411.297500", "111409.705000", "111411.495000", "111409.905000", "111411.695000", "111410.302500", "111412.092500", "111410.502500", "111412.292500", "111410.700000", "111412.490000", "111410.900000", "111412.690000", "111410.102500", "111411.892500", "111409.307500", "111411.097500", "111409.507500", "111411.297500", "111409.705000", "111411.495000", "111409.905000", "111411.695000", "111410.302500", "111412.092500", "111410.502500", "111412.292500", "111410.700000", "111412.490000", "111410.900000", "111412.690000", "111410.102500", "111411.892500", "111409.307500", "111411.097500", "111409.507500", "111411.297500", "111409.705000", "111411.495000", "111409.905000", "111411.695000", "111410.302500", "111412.092500", "111410.502500", "111412.292500", "1