{
  "AcquisitionMatrixPE": 80,
  "AcquisitionNumber": 1,
  "AcquisitionTime": "09:04:22.480000",
  "BandwidthPerPixelPhaseEncode": 25,
  "BaseResolution": 80,
  "BodyPartExamined": "BRAIN",
  "CoilCombinationMethod": "Sum of Squares",
  "ConsistencyInfo": "N4_VE11E_LATEST_20181129",
  "ConversionSoftware": "dcm2niix",
  "ConversionSoftwareVersion": "v1.0.20220720",
  "DerivedVendorReportedEchoSpacing": 0.0005,
  "DeviceSerialNumber": "66112",
  "DwellTime": 2.7e-06,
  "EchoTime": 0.03,
  "EchoTrainLength": 80,
  "EffectiveEchoSpacing": 0.0005,
  "FlipAngle": 10,
  "HeudiconvVersion": "0.13.1",
  "ImageOrientationPatientDICOM": [0.995495, -0.0947758, 0.0025358, 0.0891958, 0.945282, 0.313826],
  "ImageOrientationText": "Tra>Cor(18.2)>Sag(1.8)",
  "ImageType": [
    "ORIGINAL",
    "PRIMARY",
    "M",
    "ND",
    "NORM",
    "MOSAIC"
],
  "ImagingFrequency": 123.259,
  "InPlanePhaseEncodingDirectionDICOM": "COL",
  "InstitutionAddress": "Maynard 3,Hanover,NH,US,03755",
  "InstitutionName": "Dartmouth College - PBS",
  "InstitutionalDepartmentName": "Department",
  "MRAcquisitionType": "2D",
  "MagneticFieldStrength": 3,
  "Manufacturer": "Siemens",
  "ManufacturersModelName": "Prisma",
  "MatrixCoilMode": "SENSE",
  "Modality": "MR",
  "NonlinearGradientCorrection": false,
  "PartialFourier": 1,
  "PatientPosition": "HFS",
  "PercentPhaseFOV": 100,
  "PercentSampling": 100,
  "PhaseEncodingDirection": "j-",
  "PhaseEncodingSteps": 80,
  "PhaseResolution": 1,
  "PixelBandwidth": 2315,
  "ProcedureStepDescription": "dbic^QA",
  "ProtocolName": "func-bold_fa-10",
  "PulseSequenceDetails": "%SiemensSeq%\\ep2d_bold",
  "ReceiveCoilActiveElements": "HC1-7;NC1,2",
  "ReceiveCoilName": "HeadNeck_64",
  "ReconMatrixPE": 80,
  "RepetitionTime": 2,
  "SAR": 0.00772325,
  "ScanOptions": "FS",
  "ScanningSequence": "EP",
  "SequenceName": "*epfid2d1_80",
  "SequenceVariant": "SK",
  "SeriesDescription": "func-bold_fa-10",
  "SeriesNumber": 9,
  "ShimSetting": [4217, -7719, -7482, -168, -156, -310, -88, 102],
  "SliceThickness": 3.5,
  "SliceTiming": [0.99, 0, 1.055, 0.065, 1.1225, 0.1325, 1.1875, 0.1975, 1.2525, 0.2625, 1.32, 0.33, 1.385, 0.395, 1.45, 0.4625, 1.5175, 0.5275, 1.5825, 0.5925, 1.65, 0.66, 1.715, 0.725, 1.78, 0.7925, 1.8475, 0.8575, 1.9125, 0.9225],
  "SoftwareVersions": "syngo MR E11",
  "SpacingBetweenSlices": 3.99,
  "StationName": "AWP66112",
  "TotalReadoutTime": 0.0395,
  "TxRefAmp": 220.396,
  "dcmmeta_affine": [
    [-2.9864861965179443, 0.26758748292922974, 0.12823905050754547, 108.88921356201172],
    [0.2843273878097534, 2.8358452320098877, 1.2456209659576416, -124.4437484741211],
    [0.0076074013486504555, -0.941476583480835, 3.788414478302002, -35.607383728027344],
    [0.0, 0.0, 0.0, 1.0]
],
  "dcmmeta_reorient_transform": [
    [0.0, -1.0, 0.0, 79.0],
    [1.0, 0.0, 0.0, 0.0],
    [0.0, 0.0, 1.0, 0.0],
    [0.0, 0.0, 0.0, 1.0]
],
  "dcmmeta_shape": [80, 80, 30, 200],
  "dcmmeta_slice_dim": 2,
  "dcmmeta_version": 0.6,
  "global": {
    "const": {
      "AccessionNumber": "qa64",
      "AcquisitionMatrix": [80, 0, 0, 80],
      "AngioFlag": "N",
      "BitsAllocated": 16,
      "BitsStored": 12,
      "BodyPartExamined": "BRAIN",
      "Columns": 480,
      "EchoNumbers": 1,
      "EchoTime": 30.0,
      "EchoTrainLength": 80,
      "FlipAngle": 10.0,
      "HighBit": 11,
      "ImageOrientationPatient": [0.9954954134233, -0.0947757963255, 0.00253580047439, 0.08919582465583, 0.94528177814083, 0.31382553238842],
      "ImagePositionPatient": [-780.84336837136, -609.89162061629, -299.8008353204],
      "ImageType": [
        "ORIGINAL",
        "PRIMARY",
        "M",
        "ND",
        "NORM",
        "MOSAIC"
],
      "ImagedNucleus": "1H",
      "ImagingFrequency": 123.259282,
      "InPlanePhaseEncodingDirection": "COL",
      "MRAcquisitionType": "2D",
      "MagneticFieldStrength": 3.0,
      "Manufacturer": "SIEMENS",
      "ManufacturerModelName": "Prisma",
      "Modality": "MR",
      "NumberOfAverages": 1.0,
      "NumberOfPhaseEncodingSteps": 80,
      "PercentPhaseFieldOfView": 100.0,
      "PercentSampling": 100.0,
      "PerformedProcedureStepStartTime": "084759.884000",
      "PhotometricInterpretation": "MONOCHROME2",
      "PixelBandwidth": 2315.0,
      "PixelRepresentation": 0,
      "PixelSpacing": [3.0, 3.0],
      "ProtocolName": "func-bold_fa-10",
      "RepetitionTime": 2000.0,
      "Rows": 480,
      "SAR": 0.00772324739697,
      "SamplesPerPixel": 1,
      "ScanOptions": "FS",
      "ScanningSequence": "EP",
      "SequenceName": "*epfid2d1_80",
      "SequenceVariant": "SK",
      "SeriesDescription": "func-bold_fa-10",
      "SeriesNumber": 9,
      "SeriesTime": "090511.772000",
      "SliceLocation": -69.158249663771,
      "SliceThickness": 3.5,
      "SmallestImagePixelValue": 0,
      "SoftwareVersions": "syngo MR E11",
      "SpacingBetweenSlices": 3.9900000645769,
      "SpecificCharacterSet": "ISO_IR 100",
      "StudyID": "8",
      "StudyTime": "084759.810000",
      "TransmitCoilName": "Body",
      "VariableFlipAngleFlag": "N",
      "WindowCenterWidthExplanation": "Algo1"
    },
    "slices": {}
  },
  "time": {
    "samples": {
      "AcquisitionNumber": [1, 2, 3, 4, 5, 6, 7, 8, 9, 10, 11, 12, 13, 14, 15, 16, 17, 18, 19, 20, 21, 22, 23, 24, 25, 26, 27, 28, 29, 30, 31, 32, 33, 34, 35, 36, 37, 38, 39, 40, 41, 42, 43, 44, 45, 46, 47, 48, 49, 50, 51, 52, 53, 54, 55, 56, 57, 58, 59, 60, 61, 62, 63, 64, 65, 66, 67, 68, 69, 70, 71, 72, 73, 74, 75, 76, 77, 78, 79, 80, 81, 82, 83, 84, 85, 86, 87, 88, 89, 90, 91, 92, 93, 94, 95, 96, 97, 98, 99, 100, 101, 102, 103, 104, 105, 106, 107, 108, 109, 110, 111, 112, 113, 114, 115, 116, 117, 118, 119, 120, 121, 122, 123, 124, 125, 126, 127, 128, 129, 130, 131, 132, 133, 134, 135, 136, 137, 138, 139, 140, 141, 142, 143, 144, 145, 146, 147, 148, 149, 150, 151, 152, 153, 154, 155, 156, 157, 158, 159, 160, 161, 162, 163, 164, 165, 166, 167, 168, 169, 170, 171, 172, 173, 174, 175, 176, 177, 178, 179, 180, 181, 182, 183, 184, 185, 186, 187, 188, 189, 190, 191, 192, 193, 194, 195, 196, 197, 198, 199, 200],
      "AcquisitionTime": ["090422.480000", "090424.480000", "090426.480000", "090428.480000", "090430.480000", "090432.480000", "090434.480000", "090436.480000", "090438.480000", "090440.480000", "090442.480000", "090444.480000", "090446.480000", "090448.480000", "090450.480000", "090452.480000", "090454.480000", "090456.480000", "090458.480000", "090500.480000", "090502.480000", "090504.480000", "090506.480000", "090508.480000", "090510.480000", "090512.480000", "090514.480000", "090516.480000", "090518.480000", "090520.480000", "090522.480000", "090524.480000", "090526.480000", "090528.480000", "090530.480000", "090532.480000", "090534.480000", "090536.480000", "090538.480000", "090540.480000", "090542.480000", "090544.480000", "090546.480000", "090548.480000", "090550.480000", "090552.480000", "090554.480000", "090556.480000", "090558.480000", "090600.480000", "090602.480000", "090604.480000", "090606.480000", "090608.480000", "090610.480000", "090612.480000", "090614.480000", "090616.480000", "090618.480000", "090620.480000", "090622.480000", "090624.480000", "090626.480000", "090628.480000", "090630.480000", "090632.480000", "090634.480000", "090636.480000", "090638.480000", "090640.480000", "090642.480000", "090644.480000", "090646.480000", "090648.480000", "090650.480000", "090652.480000", "090654.480000", "090656.480000", "090658.480000", "090700.480000", "090702.480000", "090704.480000", "090706.480000", "090708.480000", "090710.480000", "090712.480000", "090714.480000", "090716.480000", "090718.480000", "090720.480000", "090722.480000", "090724.480000", "090726.480000", "090728.480000", "090730.480000", "090732.480000", "090734.480000", "090736.480000", "090738.480000", "090740.480000", "090742.480000", "090744.480000", "090746.480000", "090748.480000", "090750.480000", "090752.480000", "090754.480000", "090756.480000", "090758.480000", "090800.480000", "090802.480000", "090804.480000", "090806.480000", "090808.480000", "090810.480000", "090812.480000", "090814.480000", "090816.480000", "090818.480000", "090820.480000", "090822.480000", "090824.480000", "090826.480000", "090828.480000", "090830.480000", "090832.480000", "090834.480000", "090836.480000", "090838.480000", "090840.480000", "090842.480000", "090844.480000", "090846.480000", "090848.480000", "090850.480000", "090852.480000", "090854.480000", "090856.480000", "090858.480000", "090900.480000", "090902.480000", "090904.480000", "090906.480000", "090908.480000", "090910.480000", "090912.480000", "090914.480000", "090916.480000", "090918.480000", "090920.480000", "090922.480000", "090924.480000", "090926.480000", "090928.480000", "090930.480000", "090932.480000", "090934.480000", "090936.480000", "090938.480000", "090940.480000", "090942.480000", "090944.480000", "090946.480000", "090948.480000", "090950.480000", "090952.480000", "090954.480000", "090956.480000", "090958.480000", "091000.480000", "091002.480000", "091004.480000", "091006.480000", "091008.480000", "091010.480000", "091012.480000", "091014.480000", "091016.480000", "091018.480000", "091020.480000", "091022.480000", "091024.480000", "091026.480000", "091028.480000", "091030.480000", "091032.480000", "091034.480000", "091036.480000", "091038.480000", "091040.480000", "091042.480000", "091044.480000", "091046.480000", "091048.480000", "091050.480000", "091052.480000", "091054.480000", "091056.480000", "091058.480000", "091100.480000"],
      "ContentTime": ["090511.776000", "090511.787000", "090511.790000", "090511.792000", "090511.794000", "090511.797000", "090511.799000", "090511.801000", "090511.804000", "090511.806000", "090511.808000", "090511.811000", "090511.813000", "090511.815000", "090511.818000", "090511.820000", "090511.822000", "090511.825000", "090511.827000", "090511.829000", "090511.832000", "090511.834000", "090511.836000", "090511.839000", "090551.771000", "090551.774000", "090551.776000", "090551.778000", "090551.781000", "090551.783000", "090551.785000", "090551.788000", "090551.790000", "090551.792000", "090551.795000", "090551.797000", "090551.799000", "090551.802000", "090551.804000", "090551.806000", "090551.809000", "090551.811000", "090551.813000", "090551.816000", "090631.770000", "090631.773000", "090631.775000", "090631.777000", "090631.780000", "090631.782000", "090631.785000", "090631.787000", "090631.789000", "090631.792000", "090631.794000", "090631.796000", "090631.799000", "090631.801000", "090631.804000", "090631.806000", "090631.808000", "090631.811000", "090631.813000", "090631.815000", "090711.771000", "090711.774000", "090711.776000", "090711.778000", "090711.790000", "090711.792000", "090711.794000", "090711.797000", "090711.799000", "090711.802000", "090711.804000", "090711.806000", "090711.809000", "090711.811000", "090711.813000", "090711.816000", "090711.818000", "090711.820000", "090711.823000", "090711.825000", "090751.771000", "090751.774000", "090751.776000", "090751.778000", "090751.781000", "090751.783000", "090751.786000", "090751.788000", "090751.790000", "090751.793000", "090751.795000", "090751.797000", "090751.800000", "090751.802000", "090751.804000", "090751.807000", "090751.809000", "090751.812000", "090751.814000", "090751.816000", "090831.770000", "090831.773000", "090831.775000", "090831.777000", "090831.780000", "090831.782000", "090831.785000", "090831.787000", "090831.789000", "090831.792000", "090831.794000", "090831.796000", "090831.799000", "090831.801000", "090831.803000", "090831.806000", "090831.808000", "090831.811000", "090831.813000", "090831.815000", "090911.771000", "090911.774000", "090911.776000", "090911.778000", "090911.781000", "090911.783000", "090911.786000", "090911.788000", "090911.790000", "090911.793000", "090911.795000", "090911.797000", "090911.800000", "090911.802000", "090911.805000", "090911.807000", "090911.809000", "090911.812000", "090911.814000", "090911.816000", "090951.771000", "090951.774000", "090951.776000", "090951.778000", "090951.781000", "090951.783000", "090951.786000", "090951.788000", "090951.790000", "090951.793000", "090951.795000", "090951.797000", "090951.800000", "090951.802000", "090951.804000", "090951.806000", "090951.809000", "090951.811000", "090951.814000", "090951.816000", "091031.771000", "091031.773000", "091031.775000", "091031.778000", "091031.780000", "091031.783000", "091031.785000", "091031.787000", "091031.790000", "091031.792000", "091031.794000", "091031.797000", "091031.799000", "091031.802000", "091031.804000", "091031.806000", "091031.808000", "091031.811000", "091031.813000", "091031.815000", "091051.770000", "091051.773000", "091051.775000", "091051.778000", "091051.780000", "091051.783000", "091051.785000", "091051.787000", "091051.790000", "091051.792000", "091102.221000", "091102.223000", "091102.226000", "091102.229000", "091102.231000", "091102.234000"],
      "InstanceCreationTime": ["090511.776000", "090511.787000", "090511.790000", "090511.792000", "090511.794000", "090511.797000", "090511.799000", "090511.801000", "090511.804000", "090511.806000", "090511.808000", "090511.811000", "090511.813000", "090511.815000", "090511.818000", "090511.820000", "090511.822000", "090511.825000", "090511.827000", "090511.829000", "090511.832000", "090511.834000", "090511.836000", "090511.839000", "090551.771000", "090551.774000", "090551.776000", "090551.778000", "090551.781000", "090551.783000", "090551.785000", "090551.788000", "090551.790000", "090551.792000", "090551.795000", "090551.797000", "090551.799000", "090551.802000", "090551.804000", "090551.806000", "090551.809000", "090551.811000", "090551.813000", "090551.816000", "090631.770000", "090631.773000", "090631.775000", "090631.777000", "090631.780000", "090631.782000", "090631.785000", "090631.787000", "090631.789000", "090631.792000", "090631.794000", "090631.796000", "090631.799000", "090631.801000", "090631.804000", "090631.806000", "090631.808000", "090631.811000", "090631.813000", "090631.815000", "090711.771000", "090711.774000", "090711.776000", "090711.778000", "090711.790000", "090711.792000", "090711.794000", "090711.797000", "090711.799000", "090711.802000", "090711.804000", "090711.806000", "090711.809000", "090711.811000", "090711.813000", "090711.816000", "090711.818000", "090711.820000", "090711.823000", "090711.825000", "090751.771000", "090751.774000", "090751.776000", "090751.778000", "090751.781000", "090751.783000", "090751.786000", "090751.788000", "090751.790000", "090751.793000", "090751.795000", "090751.797000", "090751.800000", "090751.802000", "090751.804000", "090751.807000", "090751.809000", "090751.812000", "090751.814000", "090751.816000", "090831.770000", "090831.773000", "090831.775000", "090831.777000", "090831.780000", "090831.782000", "090831.785000", "090831.787000", "090831.789000", "090831.792000", "090831.794000", "090831.796000", "090831.799000", "090831.801000", "090831.803000", "090831.806000", "090831.808000", "090831.811000", "090831.813000", "090831.815000", "090911.771000", "090911.774000", "090911.776000", "090911.778000", "090911.781000", "090911.783000", "090911.786000", "090911.788000", "090911.790000", "090911.793000", "090911.795000", "090911.797000", "090911.800000", "090911.802000", "090911.805000", "090911.807000", "090911.809000", "090911.812000", "090911.814000", "090911.816000", "090951.771000", "090951.774000", "090951.776000", "090951.778000", "090951.781000", "090951.783000", "090951.786000", "090951.788000", "090951.790000", "090951.793000", "090951.795000", "090951.797000", "090951.800000", "090951.802000", "090951.804000", "090951.806000", "090951.809000", "090951.811000", "090951.814000", "090951.816000", "091031.771000", "091031.773000", "091031.775000", "091031.778000", "091031.780000", "091031.783000", "091031.785000", "091031.787000", "091031.790000", "091031.792000", "091031.794000", "091031.797000", "091031.799000", "091031.802000", "091031.804000", "091031.806000", "091031.808000", "091031.811000", "091031.813000", "091031.815000", "091051.770000", "091051.773000", "091051.775000", "091051.778000", "091051.780000", "091051.783000", "091051.785000", "091051.787000", "091051.790000", "091051.792000", "091102.221000", "091102.223000", "091102.226000", "091102.229000", "091102.231000", "091102.234000"],
      "InstanceNumber": [1, 2, 3, 4, 5, 6, 7, 8, 9, 10, 11, 12, 13, 14, 15, 16, 17, 18, 19, 20, 21, 22, 23, 24, 25, 26, 27, 28, 29, 30, 31, 32, 33, 34, 35, 36, 37, 38, 39, 40, 41, 42, 43, 44, 45, 46, 47, 48, 49, 50, 51, 52, 53, 54, 55, 56, 57, 58, 59, 60, 61, 62, 63, 64, 65, 66, 67, 68, 69, 70, 71, 72, 73, 74, 75, 76, 77, 78, 79, 80, 81, 82, 83, 84, 85, 86, 87, 88, 89, 90, 91, 92, 93, 94, 95, 96, 97, 98, 99, 100, 101, 102, 103, 104, 105, 106, 107, 108, 109, 110, 111, 112, 113, 114, 115, 116, 117, 118, 119, 120, 121, 122, 123, 124, 125, 126, 127, 128, 129, 130, 131, 132, 133, 134, 135, 136, 137, 138, 139, 140, 141, 142, 143, 144, 145, 146, 147, 148, 149, 150, 151, 152, 153, 154, 155, 156, 157, 158, 159, 160, 161, 162, 163, 164, 165, 166, 167, 168, 169, 170, 171, 172, 173, 174, 175, 176, 177, 178, 179, 180, 181, 182, 183, 184, 185, 186, 187, 188, 189, 190, 191, 192, 193, 194, 195, 196, 197, 198, 199, 200],
      "LargestImagePixelValue": [647, 645, 646, 644, 641, 646, 645, 646, 643, 650, 645, 649, 645, 646, 645, 646, 645, 646, 647, 647, 643, 648, 646, 641, 644, 647, 645, 649, 646, 645, 645, 644, 647, 645, 645, 650, 646, 650, 645, 650, 642, 642, 645, 645, 643, 647, 644, 650, 645, 645, 643, 649, 646, 646, 645, 648, 645, 648, 645, 651, 645, 644, 652, 645, 647, 646, 643, 648, 646, 643, 646, 648, 644, 649, 644, 644, 647, 646, 647, 643, 650, 644, 646, 640, 646, 644, 648, 650, 645, 644, 643, 645, 646, 644, 644, 650, 653, 643, 647, 643, 647, 643, 648, 644, 649, 647, 648, 645, 646, 643, 647, 646, 643, 647, 644, 645, 646, 645, 648, 644, 647, 644, 649, 644, 646, 647, 649, 644, 648, 640, 649, 640, 645, 645, 643, 648, 646, 646, 651, 644, 650, 643, 647, 648, 646, 643, 648, 646, 641, 647, 647, 644, 650, 640, 646, 648, 648, 649, 646, 645, 646, 639, 653, 647, 650, 643, 648, 644, 647, 645, 649, 650, 646, 647, 647, 643, 646, 648, 647, 646, 646, 649, 644, 643, 643, 646, 641, 643, 644, 647, 643, 647, 644, 646, 643, 650, 645, 644, 645, 648],
      "WindowCenter": [444.0, 444.0, 444.0, 444.0, 444.0, 443.0, 443.0, 443.0, 443.0, 445.0, 444.0, 444.0, 443.0, 443.0, 443.0, 443.0, 443.0, 443.0, 443.0, 443.0, 443.0, 443.0, 443.0, 443.0, 443.0, 443.0, 443.0, 443.0, 443.0, 443.0, 443.0, 443.0, 443.0, 443.0, 443.0, 444.0, 443.0, 444.0, 443.0, 444.0, 443.0, 443.0, 443.0, 443.0, 443.0, 443.0, 443.0, 444.0, 443.0, 443.0, 443.0, 443.0, 443.0, 443.0, 443.0, 443.0, 443.0, 443.0, 443.0, 444.0, 443.0, 443.0, 444.0, 443.0, 443.0, 443.0, 443.0, 443.0, 443.0, 443.0, 443.0, 443.0, 443.0, 443.0, 443.0, 443.0, 443.0, 443.0, 443.0, 443.0, 444.0, 443.0, 443.0, 443.0, 443.0, 443.0, 443.0, 444.0, 443.0, 443.0, 443.0, 443.0, 443.0, 443.0, 443.0, 444.0, 444.0, 443.0, 443.0, 443.0, 443.0, 443.0, 443.0, 443.0, 443.0, 443.0, 443.0, 443.0, 443.0, 443.0, 443.0, 443.0, 443.0, 443.0, 443.0, 443.0, 443.0, 443.0, 443.0, 443.0, 443.0, 443.0, 443.0, 443.0, 443.0, 443.0, 443.0, 443.0, 443.0, 443.0, 443.0, 443.0, 443.0, 443.0, 443.0, 443.0, 443.0, 443.0, 443.0, 443.0, 444.0, 443.0, 443.0, 443.0, 443.0, 443.0, 443.0, 443.0, 443.0, 443.0, 443.0, 443.0, 444.0, 443.0, 443.0, 443.0, 443.0, 443.0, 443.0, 443.0, 443.0, 443.0, 443.0, 443.0, 443.0, 443.0, 443.0, 443.0, 443.0, 443.0, 443.0, 443.0, 443.0, 443.0, 442.0, 443.0, 442.0, 443.0, 442.0, 443.0, 442.0, 443.0, 442.0, 443.0, 442.0, 443.0, 442.0, 443.0, 442.0, 443.0, 442.0, 443.0, 442.0, 443.0, 442.0, 443.0, 442.0, 443.0, 442.0, 443.0],
      "WindowWidth": [923.0, 924.0, 924.0, 924.0, 923.0, 923.0, 923.0, 923.0, 923.0, 924.0, 923.0, 923.0, 923.0, 923.0, 923.0, 923.0, 923.0, 923.0, 923.0, 923.0, 923.0, 923.0, 923.0, 923.0, 923.0, 923.0, 923.0, 923.0, 923.0, 922.0, 923.0, 923.0, 923.0, 922.0, 923.0, 923.0, 923.0, 923.0, 923.0, 923.0, 923.0, 922.0, 923.0, 922.0, 923.0, 922.0, 923.0, 923.0, 922.0, 922.0, 923.0, 922.0, 923.0, 922.0, 922.0, 922.0, 922.0, 922.0, 922.0, 923.0, 922.0, 922.0, 923.0, 922.0, 922.0, 922.0, 922.0, 922.0, 922.0, 922.0, 922.0, 922.0, 922.0, 922.0, 922.0, 922.0, 922.0, 922.0, 922.0, 921.0, 923.0, 922.0, 922.0, 921.0, 922.0, 921.0, 922.0, 923.0, 922.0, 922.0, 922.0, 921.0, 922.0, 922.0, 922.0, 923.0, 923.0, 922.0, 922.0, 922.0, 922.0, 921.0, 922.0, 922.0, 922.0, 922.0, 922.0, 922.0, 922.0, 922.0, 922.0, 922.0, 922.0, 922.0, 922.0, 921.0, 922.0, 922.0, 922.0, 921.0, 921.0, 921.0, 921.0, 921.0, 922.0, 921.0, 921.0, 921.0, 922.0, 921.0, 921.0, 921.0, 921.0, 921.0, 922.0, 921.0, 921.0, 921.0, 922.0, 921.0, 922.0, 921.0, 921.0, 922.0, 921.0, 921.0, 921.0, 921.0, 921.0, 921.0, 921.0, 922.0, 922.0, 922.0, 921.0, 921.0, 921.0, 921.0, 921.0, 921.0, 921.0, 921.0, 921.0, 921.0, 921.0, 921.0, 921.0, 921.0, 921.0, 921.0, 921.0, 922.0, 921.0, 921.0, 921.0, 921.0, 921.0, 921.0, 921.0, 921.0, 921.0, 921.0, 921.0, 921.0, 921.0, 921.0, 921.0, 921.0, 921.0, 921.0, 921.0, 921.0, 921.0, 921.0, 921.0, 922.0, 920.0, 921.0, 920.0, 921.0]
    },
    "slices": {}
  }
}