{
  "AcquisitionMatrixPE": 80,
  "AcquisitionNumber": 1,
  "AcquisitionTime": "11:00:55.547500",
  "BandwidthPerPixelPhaseEncode": 25,
  "BaseResolution": 80,
  "BodyPartExamined": "BRAIN",
  "CoilCombinationMethod": "Sum of Squares",
  "ConsistencyInfo": "N4_VE11C_LATEST_20160120",
  "ConversionSoftware": "dcm2niix",
  "ConversionSoftwareVersion": "v1.0.20220720",
  "DerivedVendorReportedEchoSpacing": 0.0005,
  "DeviceSerialNumber": "66112",
  "DwellTime": 2.7e-06,
  "EchoTime": 0.03,
  "EchoTrainLength": 80,
  "EffectiveEchoSpacing": 0.0005,
  "FlipAngle": 77,
  "HeudiconvVersion": "0.13.1",
  "ImageOrientationPatientDICOM": [0.982784, -0.184757, 2.76569e-05, 0.176123, 0.936897, 0.302],
  "ImageOrientationText": "Tra>Cor(17.3)>Sag(3.2)",
  "ImageType": [
    "ORIGINAL",
    "PRIMARY",
    "M",
    "ND",
    "NORM",
    "MOSAIC"
],
  "ImagingFrequency": 123.252,
  "InPlanePhaseEncodingDirectionDICOM": "COL",
  "InstitutionAddress": "Maynard 3,Hanover,NH,US,03755",
  "InstitutionName": "Dartmouth College - PBS",
  "InstitutionalDepartmentName": "Department",
  "MRAcquisitionType": "2D",
  "MagneticFieldStrength": 3,
  "Manufacturer": "Siemens",
  "ManufacturersModelName": "Prisma",
  "MatrixCoilMode": "SENSE",
  "Modality": "MR",
  "NonlinearGradientCorrection": false,
  "PartialFourier": 1,
  "PatientPosition": "HFS",
  "PercentPhaseFOV": 100,
  "PercentSampling": 100,
  "PhaseEncodingDirection": "j-",
  "PhaseEncodingSteps": 80,
  "PhaseResolution": 1,
  "PixelBandwidth": 2315,
  "ProcedureStepDescription": "dbic^QA",
  "ProtocolName": "func-bold_fa-77",
  "PulseSequenceDetails": "%SiemensSeq%\\ep2d_bold",
  "ReceiveCoilActiveElements": "HC1-7;NC1,2",
  "ReceiveCoilName": "HeadNeck_64",
  "ReconMatrixPE": 80,
  "RepetitionTime": 2,
  "SAR": 0.0281897,
  "ScanOptions": "FS",
  "ScanningSequence": "EP",
  "SequenceName": "*epfid2d1_80",
  "SequenceVariant": "SK",
  "SeriesDescription": "func-bold_fa-77",
  "SeriesNumber": 7,
  "ShimSetting": [4142, -7709, -7511, 204, -91, -319, -40, 90],
  "SliceThickness": 3.5,
  "SliceTiming": [0.99, 0, 1.0575, 0.0675, 1.1225, 0.1325, 1.1875, 0.2, 1.255, 0.265, 1.32, 0.33, 1.3875, 0.3975, 1.4525, 0.4625, 1.5175, 0.53, 1.585, 0.595, 1.65, 0.66, 1.7175, 0.7275, 1.7825, 0.7925, 1.8475, 0.86, 1.915, 0.925],
  "SoftwareVersions": "syngo MR E11",
  "SpacingBetweenSlices": 3.99,
  "StationName": "AWP66112",
  "TotalReadoutTime": 0.0395,
  "TxRefAmp": 209.553,
  "dcmmeta_affine": [
    [-2.948352336883545, 0.5283675789833069, 0.22273238003253937, 93.43958282470703],
    [0.5542723536491394, 2.810692310333252, 1.1842156648635864, -135.62631225585938],
    [8.297085150843486e-05, -0.9059998989105225, 3.8036985397338867, -24.153953552246094],
    [0.0, 0.0, 0.0, 1.0]
],
  "dcmmeta_reorient_transform": [
    [0.0, -1.0, 0.0, 79.0],
    [1.0, 0.0, 0.0, 0.0],
    [0.0, 0.0, 1.0, 0.0],
    [0.0, 0.0, 0.0, 1.0]
],
  "dcmmeta_shape": [80, 80, 30, 200],
  "dcmmeta_slice_dim": 2,
  "dcmmeta_version": 0.6,
  "global": {
    "const": {
      "AccessionNumber": "qa64",
      "AcquisitionMatrix": [80, 0, 0, 80],
      "AngioFlag": "N",
      "BitsAllocated": 16,
      "BitsStored": 12,
      "BodyPartExamined": "BRAIN",
      "Columns": 480,
      "EchoNumbers": 1,
      "EchoTime": 30.0,
      "EchoTrainLength": 80,
      "FlipAngle": 77.0,
      "HighBit": 11,
      "ImageOrientationPatient": [0.98278414971115, -0.1847574472427, 2.765694947e-05, 0.17612253224056, 0.93689747327702, 0.30199996391441],
      "ImagePositionPatient": [-830.52463337195, -537.70240765198, -276.94451760671],
      "ImageType": [
        "ORIGINAL",
        "PRIMARY",
        "M",
        "ND",
        "NORM",
        "MOSAIC"
],
      "ImagedNucleus": "1H",
      "ImagingFrequency": 123.252333,
      "InPlanePhaseEncodingDirection": "COL",
      "MRAcquisitionType": "2D",
      "MagneticFieldStrength": 3.0,
      "Manufacturer": "SIEMENS",
      "ManufacturerModelName": "Prisma",
      "Modality": "MR",
      "NumberOfAverages": 1.0,
      "NumberOfPhaseEncodingSteps": 80,
      "PercentPhaseFieldOfView": 100.0,
      "PercentSampling": 100.0,
      "PerformedProcedureStepStartTime": "105203.956000",
      "PhotometricInterpretation": "MONOCHROME2",
      "PixelBandwidth": 2315.0,
      "PixelRepresentation": 0,
      "PixelSpacing": [3.0, 3.0],
      "ProtocolName": "func-bold_fa-77",
      "RepetitionTime": 2000.0,
      "Rows": 480,
      "SAR": 0.02818971901485,
      "SamplesPerPixel": 1,
      "ScanOptions": "FS",
      "ScanningSequence": "EP",
      "SequenceName": "*epfid2d1_80",
      "SequenceVariant": "SK",
      "SeriesDescription": "func-bold_fa-77",
      "SeriesNumber": 7,
      "SeriesTime": "110147.288000",
      "SliceLocation": -58.06344350828,
      "SliceThickness": 3.5,
      "SmallestImagePixelValue": 0,
      "SoftwareVersions": "syngo MR E11",
      "SpacingBetweenSlices": 3.9899998921181,
      "SpecificCharacterSet": "ISO_IR 100",
      "StudyID": "40",
      "StudyTime": "105203.901000",
      "TransmitCoilName": "Body",
      "VariableFlipAngleFlag": "N",
      "WindowCenterWidthExplanation": "Algo1",
      "dBdt": 0.0},
    "slices": {}
  },
  "time": {
    "samples": {
      "AcquisitionNumber": [1, 2, 3, 4, 5, 6, 7, 8, 9, 10, 11, 12, 13, 14, 15, 16, 17, 18, 19, 20, 21, 22, 23, 24, 25, 26, 27, 28, 29, 30, 31, 32, 33, 34, 35, 36, 37, 38, 39, 40, 41, 42, 43, 44, 45, 46, 47, 48, 49, 50, 51, 52, 53, 54, 55, 56, 57, 58, 59, 60, 61, 62, 63, 64, 65, 66, 67, 68, 69, 70, 71, 72, 73, 74, 75, 76, 77, 78, 79, 80, 81, 82, 83, 84, 85, 86, 87, 88, 89, 90, 91, 92, 93, 94, 95, 96, 97, 98, 99, 100, 101, 102, 103, 104, 105, 106, 107, 108, 109, 110, 111, 112, 113, 114, 115, 116, 117, 118, 119, 120, 121, 122, 123, 124, 125, 126, 127, 128, 129, 130, 131, 132, 133, 134, 135, 136, 137, 138, 139, 140, 141, 142, 143, 144, 145, 146, 147, 148, 149, 150, 151, 152, 153, 154, 155, 156, 157, 158, 159, 160, 161, 162, 163, 164, 165, 166, 167, 168, 169, 170, 171, 172, 173, 174, 175, 176, 177, 178, 179, 180, 181, 182, 183, 184, 185, 186, 187, 188, 189, 190, 191, 192, 193, 194, 195, 196, 197, 198, 199, 200],
      "AcquisitionTime": ["110055.547500", "110057.547500", "110059.547500", "110101.547500", "110103.547500", "110105.547500", "110107.547500", "110109.547500", "110111.547500", "110113.547500", "110115.547500", "110117.547500", "110119.547500", "110121.547500", "110123.547500", "110125.547500", "110127.547500", "110129.547500", "110131.547500", "110133.547500", "110135.547500", "110137.547500", "110139.547500", "110141.547500", "110143.547500", "110145.547500", "110147.547500", "110149.547500", "110151.547500", "110153.547500", "110155.547500", "110157.547500", "110159.547500", "110201.547500", "110203.547500", "110205.547500", "110207.547500", "110209.547500", "110211.547500", "110213.547500", "110215.547500", "110217.547500", "110219.547500", "110221.547500", "110223.547500", "110225.547500", "110227.547500", "110229.547500", "110231.547500", "110233.547500", "110235.547500", "110237.547500", "110239.547500", "110241.547500", "110243.547500", "110245.547500", "110247.547500", "110249.547500", "110251.547500", "110253.547500", "110255.547500", "110257.547500", "110259.547500", "110301.547500", "110303.547500", "110305.547500", "110307.547500", "110309.547500", "110311.547500", "110313.547500", "110315.547500", "110317.547500", "110319.547500", "110321.547500", "110323.547500", "110325.547500", "110327.547500", "110329.547500", "110331.547500", "110333.547500", "110335.547500", "110337.547500", "110339.547500", "110341.547500", "110343.547500", "110345.547500", "110347.547500", "110349.547500", "110351.547500", "110353.547500", "110355.547500", "110357.547500", "110359.547500", "110401.547500", "110403.547500", "110405.547500", "110407.547500", "110409.547500", "110411.547500", "110413.547500", "110415.547500", "110417.547500", "110419.547500", "110421.547500", "110423.547500", "110425.547500", "110427.547500", "110429.547500", "110431.547500", "110433.547500", "110435.547500", "110437.547500", "110439.547500", "110441.547500", "110443.547500", "110445.547500", "110447.547500", "110449.547500", "110451.547500", "110453.547500", "110455.547500", "110457.547500", "110459.547500", "110501.547500", "110503.547500", "110505.547500", "110507.547500", "110509.547500", "110511.547500", "110513.547500", "110515.547500", "110517.547500", "110519.547500", "110521.547500", "110523.547500", "110525.547500", "110527.547500", "110529.547500", "110531.547500", "110533.547500", "110535.547500", "110537.547500", "110539.547500", "110541.547500", "110543.547500", "110545.547500", "110547.547500", "110549.547500", "110551.547500", "110553.547500", "110555.547500", "110557.547500", "110559.547500", "110601.547500", "110603.547500", "110605.547500", "110607.547500", "110609.547500", "110611.547500", "110613.547500", "110615.547500", "110617.547500", "110619.547500", "110621.547500", "110623.547500", "110625.547500", "110627.547500", "110629.547500", "110631.547500", "110633.547500", "110635.547500", "110637.547500", "110639.547500", "110641.547500", "110643.547500", "110645.547500", "110647.547500", "110649.547500", "110651.547500", "110653.547500", "110655.547500", "110657.547500", "110659.547500", "110701.547500", "110703.547500", "110705.547500", "110707.547500", "110709.547500", "110711.547500", "110713.547500", "110715.547500", "110717.547500", "110719.547500", "110721.547500", "110723.547500", "110725.547500", "110727.547500", "110729.547500", "110731.547500", "110733.547500"],
      "ContentTime": ["110147.291000", "110147.295000", "110147.297000", "110147.300000", "110147.303000", "110147.305000", "110147.308000", "110147.310000", "110147.313000", "110147.315000", "110147.318000", "110147.320000", "110147.323000", "110147.325000", "110147.328000", "110147.330000", "110147.333000", "110147.335000", "110147.338000", "110147.341000", "110147.343000", "110147.346000", "110147.348000", "110147.351000", "110147.353000", "110147.356000", "110227.286000", "110227.289000", "110227.292000", "110227.294000", "110227.297000", "110227.300000", "110227.310000", "110227.312000", "110227.315000", "110227.318000", "110227.320000", "110227.323000", "110227.326000", "110227.328000", "110227.331000", "110227.333000", "110227.336000", "110227.339000", "110227.348000", "110227.351000", "110307.286000", "110307.289000", "110307.292000", "110307.294000", "110307.297000", "110307.300000", "110307.302000", "110307.305000", "110307.307000", "110307.310000", "110307.313000", "110307.315000", "110307.318000", "110307.320000", "110307.323000", "110307.325000", "110307.328000", "110307.330000", "110307.333000", "110307.336000", "110347.287000", "110347.289000", "110347.292000", "110347.295000", "110347.297000", "110347.300000", "110347.302000", "110347.305000", "110347.307000", "110347.310000", "110347.313000", "110347.315000", "110347.318000", "110347.320000", "110347.323000", "110347.325000", "110347.328000", "110347.331000", "110347.333000", "110347.336000", "110427.286000", "110427.289000", "110427.298000", "110427.300000", "110427.303000", "110427.306000", "110427.308000", "110427.311000", "110427.314000", "110427.316000", "110427.319000", "110427.321000", "110427.324000", "110427.326000", "110427.329000", "110427.332000", "110427.334000", "110427.337000", "110427.339000", "110427.342000", "110507.287000", "110507.289000", "110507.292000", "110507.295000", "110507.297000", "110507.300000", "110507.302000", "110507.305000", "110507.307000", "110507.310000", "110507.313000", "110507.315000", "110507.318000", "110507.320000", "110507.323000", "110507.325000", "110507.328000", "110507.331000", "110507.333000", "110507.336000", "110547.287000", "110547.289000", "110547.292000", "110547.295000", "110547.297000", "110547.300000", "110547.302000", "110547.305000", "110547.308000", "110547.310000", "110547.313000", "110547.315000", "110547.318000", "110547.320000", "110547.323000", "110547.326000", "110547.328000", "110547.331000", "110547.333000", "110547.336000", "110627.286000", "110627.289000", "110627.292000", "110627.294000", "110627.310000", "110627.313000", "110627.316000", "110627.318000", "110627.321000", "110627.323000", "110627.327000", "110627.330000", "110627.332000", "110627.335000", "110627.337000", "110627.340000", "110627.343000", "110627.345000", "110627.348000", "110627.350000", "110707.286000", "110707.289000", "110707.292000", "110707.294000", "110707.297000", "110707.300000", "110707.302000", "110707.305000", "110707.308000", "110707.310000", "110707.313000", "110707.315000", "110707.318000", "110707.320000", "110707.323000", "110707.326000", "110707.328000", "110707.331000", "110707.333000", "110707.336000", "110735.198000", "110735.201000", "110735.204000", "110735.207000", "110735.209000", "110735.212000", "110735.215000", "110735.217000", "110735.220000", "110735.222000", "110735.225000", "110735.228000", "110735.239000", "110735.250000"],
      "InstanceCreationTime": ["110147.291000", "110147.295000", "110147.297000", "110147.300000", "110147.303000", "110147.305000", "110147.308000", "110147.310000", "110147.313000", "110147.315000", "110147.318000", "110147.320000", "110147.323000", "110147.325000", "110147.328000", "110147.330000", "110147.333000", "110147.335000", "110147.338000", "110147.341000", "110147.343000", "110147.346000", "110147.348000", "110147.351000", "110147.353000", "110147.356000", "110227.286000", "110227.289000", "110227.292000", "110227.294000", "110227.297000", "110227.300000", "110227.310000", "110227.312000", "110227.315000", "110227.318000", "110227.320000", "110227.323000", "110227.326000", "110227.328000", "110227.331000", "110227.333000", "110227.336000", "110227.339000", "110227.348000", "110227.351000", "110307.286000", "110307.289000", "110307.292000", "110307.294000", "110307.297000", "110307.300000", "110307.302000", "110307.305000", "110307.307000", "110307.310000", "110307.313000", "110307.315000", "110307.318000", "110307.320000", "110307.323000", "110307.325000", "110307.328000", "110307.330000", "110307.333000", "110307.336000", "110347.287000", "110347.289000", "110347.292000", "110347.295000", "110347.297000", "110347.300000", "110347.302000", "110347.305000", "110347.307000", "110347.310000", "110347.313000", "110347.315000", "110347.318000", "110347.320000", "110347.323000", "110347.325000", "110347.328000", "110347.331000", "110347.333000", "110347.336000", "110427.286000", "110427.289000", "110427.298000", "110427.300000", "110427.303000", "110427.306000", "110427.308000", "110427.311000", "110427.314000", "110427.316000", "110427.319000", "110427.321000", "110427.324000", "110427.326000", "110427.329000", "110427.332000", "110427.334000", "110427.337000", "110427.339000", "110427.342000", "110507.287000", "110507.289000", "110507.292000", "110507.295000", "110507.297000", "110507.300000", "110507.302000", "110507.305000", "110507.307000", "110507.310000", "110507.313000", "110507.315000", "110507.318000", "110507.320000", "110507.323000", "110507.325000", "110507.328000", "110507.331000", "110507.333000", "110507.336000", "110547.287000", "110547.289000", "110547.292000", "110547.295000", "110547.297000", "110547.300000", "110547.302000", "110547.305000", "110547.308000", "110547.310000", "110547.313000", "110547.315000", "110547.318000", "110547.320000", "110547.323000", "110547.326000", "110547.328000", "110547.331000", "110547.333000", "110547.336000", "110627.286000", "110627.289000", "110627.292000", "110627.294000", "110627.310000", "110627.313000", "110627.316000", "110627.318000", "110627.321000", "110627.323000", "110627.327000", "110627.330000", "110627.332000", "110627.335000", "110627.337000", "110627.340000", "110627.343000", "110627.345000", "110627.348000", "110627.350000", "110707.286000", "110707.289000", "110707.292000", "110707.294000", "110707.297000", "110707.300000", "110707.302000", "110707.305000", "110707.308000", "110707.310000", "110707.313000", "110707.315000", "110707.318000", "110707.320000", "110707.323000", "110707.326000", "110707.328000", "110707.331000", "110707.333000", "110707.336000", "110735.198000", "110735.201000", "110735.204000", "110735.207000", "110735.209000", "110735.212000", "110735.215000", "110735.217000", "110735.220000", "110735.222000", "110735.225000", "110735.228000", "110735.239000", "110735.250000"],
      "InstanceNumber": [1, 2, 3, 4, 5, 6, 7, 8, 9, 10, 11, 12, 13, 14, 15, 16, 17, 18, 19, 20, 21, 22, 23, 24, 25, 26, 27, 28, 29, 30, 31, 32, 33, 34, 35, 36, 37, 38, 39, 40, 41, 42, 43, 44, 45, 46, 47, 48, 49, 50, 51, 52, 53, 54, 55, 56, 57, 58, 59, 60, 61, 62, 63, 64, 65, 66, 67, 68, 69, 70, 71, 72, 73, 74, 75, 76, 77, 78, 79, 80, 81, 82, 83, 84, 85, 86, 87, 88, 89, 90, 91, 92, 93, 94, 95, 96, 97, 98, 99, 100, 101, 102, 103, 104, 105, 106, 107, 108, 109, 110, 111, 112, 113, 114, 115, 116, 117, 118, 119, 120, 121, 122, 123, 124, 125, 126, 127, 128, 129, 130, 131, 132, 133, 134, 135, 136, 137, 138, 139, 140, 141, 142, 143, 144, 145, 146, 147, 148, 149, 150, 151, 152, 153, 154, 155, 156, 157, 158, 159, 160, 161, 162, 163, 164, 165, 166, 167, 168, 169, 170, 171, 172, 173, 174, 175, 176, 177, 178, 179, 180, 181, 182, 183, 184, 185, 186, 187, 188, 189, 190, 191, 192, 193, 194, 195, 196, 197, 198, 199, 200],
      "LargestImagePixelValue": [3866, 3870, 3867, 3865, 3867, 3866, 3870, 3864, 3865, 3868, 3870, 3870, 3872, 3869, 3869, 3868, 3867, 3864, 3868, 3867, 3868, 3867, 3866, 3868, 3867, 3867, 3866, 3864, 3862, 3863, 3867, 3870, 3866, 3868, 3869, 3866, 3865, 3865, 3866, 3865, 3864, 3863, 3865, 3868, 3866, 3865, 3866, 3862, 3869, 3868, 3866, 3867, 3867, 3871, 3869, 3864, 3866, 3866, 3868, 3869, 3866, 3871, 3866, 3870, 3865, 3869, 3863, 3867, 3866, 3868, 3867, 3869, 3870, 3866, 3867, 3867, 3865, 3866, 3869, 3867, 3866, 3867, 3868, 3870, 3868, 3868, 3869, 3869, 3869, 3869, 3867, 3870, 3868, 3868, 3866, 3871, 3864, 3866, 3868, 3867, 3862, 3867, 3865, 3866, 3869, 3867, 3866, 3866, 3862, 3867, 3862, 3868, 3868, 3868, 3865, 3866, 3864, 3864, 3865, 3867, 3863, 3866, 3868, 3869, 3869, 3864, 3865, 3869, 3866, 3869, 3867, 3870, 3863, 3868, 3862, 3869, 3868, 3866, 3869, 3862, 3866, 3868, 3866, 3865, 3867, 3869, 3866, 3871, 3864, 3866, 3869, 3868, 3867, 3863, 3865, 3868, 3868, 3863, 3870, 3871, 3864, 3864, 3864, 3867, 3869, 3869, 3865, 3867, 3865, 3865, 3868, 3869, 3867, 3865, 3862, 3869, 3867, 3866, 3868, 3867, 3869, 3868, 3865, 3863, 3867, 3866, 3870, 3863, 3864, 3866, 3867, 3865, 3865, 3869, 3862, 3866, 3871, 3866, 3863, 3866],
      "WindowCenter": [1344.0, 1344.0, 1344.0, 1344.0, 1344.0, 1344.0, 1344.0, 1344.0, 1344.0, 1344.0, 1344.0, 1343.0, 1343.0, 1344.0, 1344.0, 1343.0, 1343.0, 1343.0, 1344.0, 1343.0, 1343.0, 1343.0, 1342.0, 1343.0, 1342.0, 1342.0, 1343.0, 1342.0, 1342.0, 1342.0, 1342.0, 1342.0, 1342.0, 1342.0, 1342.0, 1342.0, 1341.0, 1342.0, 1341.0, 1341.0, 1341.0, 1341.0, 1341.0, 1341.0, 1341.0, 1342.0, 1342.0, 1342.0, 1342.0, 1342.0, 1342.0, 1342.0, 1341.0, 1342.0, 1342.0, 1341.0, 1341.0, 1342.0, 1343.0, 1342.0, 1342.0, 1342.0, 1342.0, 1342.0, 1342.0, 1341.0, 1342.0, 1342.0, 1342.0, 1341.0, 1341.0, 1342.0, 1342.0, 1342.0, 1342.0, 1342.0, 1342.0, 1341.0, 1342.0, 1342.0, 1342.0, 1341.0, 1342.0, 1341.0, 1341.0, 1342.0, 1342.0, 1342.0, 1341.0, 1342.0, 1342.0, 1342.0, 1341.0, 1341.0, 1341.0, 1341.0, 1341.0, 1342.0, 1341.0, 1341.0, 1341.0, 1341.0, 1340.0, 1341.0, 1341.0, 1341.0, 1341.0, 1341.0, 1341.0, 1341.0, 1341.0, 1341.0, 1341.0, 1341.0, 1341.0, 1341.0, 1341.0, 1341.0, 1341.0, 1340.0, 1341.0, 1340.0, 1341.0, 1341.0, 1341.0, 1341.0, 1341.0, 1341.0, 1341.0, 1341.0, 1341.0, 1341.0, 1341.0, 1342.0, 1341.0, 1341.0, 1341.0, 1341.0, 1341.0, 1340.0, 1341.0, 1341.0, 1341.0, 1341.0, 1341.0, 1341.0, 1340.0, 1340.0, 1340.0, 1340.0, 1341.0, 1341.0, 1341.0, 1340.0, 1340.0, 1340.0, 1341.0, 1340.0, 1340.0, 1340.0, 1341.0, 1341.0, 1340.0, 1340.0, 1340.0, 1340.0, 1340.0, 1340.0, 1340.0, 1340.0, 1340.0, 1340.0, 1340.0, 1340.0, 1339.0, 1340.0, 1340.0, 1340.0, 1340.0, 1339.0, 1340.0, 1340.0, 1340.0, 1340.0, 1340.0, 1340.0, 1340.0, 1340.0, 1339.0, 1339.0, 1340.0, 1340.0, 1340.0, 1340.0, 1340.0, 1340.0, 1340.0, 1339.0, 1340.0, 1340.0],
      "WindowWidth": [3236.0, 3236.0, 3236.0, 3236.0, 3236.0, 3236.0, 3236.0, 3236.0, 3236.0, 3236.0, 3236.0, 3236.0, 3237.0, 3236.0, 3236.0, 3236.0, 3236.0, 3236.0, 3236.0, 3236.0, 3235.0, 3236.0, 3236.0, 3235.0, 3236.0, 3235.0, 3235.0, 3235.0, 3234.0, 3234.0, 3235.0, 3235.0, 3235.0, 3235.0, 3235.0, 3235.0, 3235.0, 3235.0, 3235.0, 3235.0, 3235.0, 3235.0, 3235.0, 3235.0, 3235.0, 3234.0, 3235.0, 3235.0, 3235.0, 3235.0, 3236.0, 3235.0, 3236.0, 3235.0, 3235.0, 3235.0, 3235.0, 3235.0, 3235.0, 3235.0, 3236.0, 3236.0, 3235.0, 3236.0, 3236.0, 3236.0, 3235.0, 3235.0, 3235.0, 3236.0, 3235.0, 3235.0, 3235.0, 3235.0, 3235.0, 3235.0, 3235.0, 3235.0, 3235.0, 3235.0, 3235.0, 3235.0, 3235.0, 3235.0, 3235.0, 3235.0, 3235.0, 3235.0, 3235.0, 3236.0, 3236.0, 3236.0, 3235.0, 3235.0, 3235.0, 3235.0, 3235.0, 3235.0, 3235.0, 3235.0, 3235.0, 3235.0, 3235.0, 3235.0, 3235.0, 3235.0, 3235.0, 3235.0, 3235.0, 3235.0, 3235.0, 3235.0, 3235.0, 3235.0, 3235.0, 3235.0, 3235.0, 3235.0, 3235.0, 3235.0, 3235.0, 3235.0, 3234.0, 3235.0, 3236.0, 3235.0, 3236.0, 3235.0, 3236.0, 3235.0, 3235.0, 3236.0, 3235.0, 3235.0, 3235.0, 3235.0, 3235.0, 3235.0, 3235.0, 3235.0, 3235.0, 3235.0, 3235.0, 3235.0, 3235.0, 3235.0, 3235.0, 3236.0, 3235.0, 3235.0, 3235.0, 3235.0, 3235.0, 3235.0, 3235.0, 3234.0, 3235.0, 3235.0, 3235.0, 3235.0, 3235.0, 3235.0, 3235.0, 3235.0, 3235.0, 3234.0, 3234.0, 3235.0, 3235.0, 3235.0, 3234.0, 3235.0, 3234.0, 3235.0, 3235.0, 3235.0, 3235.0, 3235.0, 3234.0, 3234.0, 3235.0, 3235.0, 3235.0, 3234.0, 3234.0, 3234.0, 3234.0, 3234.0, 3234.0, 3234.0, 3234.0, 3234.0, 3234.0, 3235.0, 3234.0, 3234.0, 3234.0, 3234.0, 3234.0, 3234.0]
    },
    "slices": {}
  }
}