{
  "AcquisitionMatrixPE": 80,
  "AcquisitionNumber": 1,
  "AcquisitionTime": "10:54:6.815000",
  "BandwidthPerPixelPhaseEncode": 48.077,
  "BaseResolution": 80,
  "BodyPartExamined": "BRAIN",
  "CoilCombinationMethod": "Sum of Squares",
  "ConsistencyInfo": "N4_VE11C_LATEST_20160120",
  "ConversionSoftware": "dcm2niix",
  "ConversionSoftwareVersion": "v1.0.20220720",
  "DerivedVendorReportedEchoSpacing": 0.000519999,
  "DeviceSerialNumber": "66112",
  "DwellTime": 2.7e-06,
  "EchoTime": 0.035,
  "EchoTrainLength": 39,
  "EffectiveEchoSpacing": 0.00026,
  "FlipAngle": 90,
  "HeudiconvVersion": "0.13.1",
  "ImageOrientationPatientDICOM": [0.982784, -0.184757, 2.76569e-05, 0.176123, 0.936897, 0.302],
  "ImageOrientationText": "Tra>Cor(17.3)>Sag(3.2)",
  "ImageType": [
    "ORIGINAL",
    "PRIMARY",
    "M",
    "ND",
    "NORM",
    "MOSAIC"
],
  "ImagingFrequency": 123.252,
  "InPlanePhaseEncodingDirectionDICOM": "COL",
  "InstitutionAddress": "Maynard 3,Hanover,NH,US,03755",
  "InstitutionName": "Dartmouth College - PBS",
  "InstitutionalDepartmentName": "Department",
  "MRAcquisitionType": "2D",
  "MagneticFieldStrength": 3,
  "Manufacturer": "Siemens",
  "ManufacturersModelName": "Prisma",
  "MatrixCoilMode": "GRAPPA",
  "Modality": "MR",
  "NonlinearGradientCorrection": false,
  "ParallelReductionFactorInPlane": 2,
  "PartialFourier": 1,
  "PatientPosition": "HFS",
  "PercentPhaseFOV": 100,
  "PercentSampling": 100,
  "PhaseEncodingDirection": "j-",
  "PhaseEncodingSteps": 79,
  "PhaseResolution": 1,
  "PixelBandwidth": 2315,
  "ProcedureStepDescription": "dbic^QA",
  "ProtocolName": "func-bold_task-rest_acq-p2",
  "PulseSequenceDetails": "%SiemensSeq%\\ep2d_bold",
  "ReceiveCoilActiveElements": "HC1-7;NC1,2",
  "ReceiveCoilName": "HeadNeck_64",
  "ReconMatrixPE": 80,
  "RefLinesPE": 24,
  "RepetitionTime": 2,
  "SAR": 0.0358716,
  "ScanOptions": "FS",
  "ScanningSequence": "EP",
  "SequenceName": "*epfid2d1_80",
  "SequenceVariant": "SK",
  "SeriesDescription": "func-bold_task-rest_acq-p2",
  "SeriesNumber": 5,
  "ShimSetting": [4142, -7709, -7511, 203, -91, -319, -41, 90],
  "SliceThickness": 3.5,
  "SliceTiming": [0.99, 0, 1.055, 0.065, 1.1225, 0.1325, 1.1875, 0.1975, 1.2525, 0.2625, 1.32, 0.33, 1.385, 0.395, 1.4525, 0.4625, 1.5175, 0.5275, 1.5825, 0.5925, 1.65, 0.66, 1.715, 0.725, 1.78, 0.7925, 1.8475, 0.8575, 1.9125, 0.9225],
  "SoftwareVersions": "syngo MR E11",
  "SpacingBetweenSlices": 3.99,
  "StationName": "AWP66112",
  "TaskName": "rest",
  "TotalReadoutTime": 0.02054,
  "TxRefAmp": 209.553,
  "dcmmeta_affine": [
    [-2.948352336883545, 0.5283675789833069, 0.22273239493370056, 94.91677856445312],
    [0.5542723536491394, 2.810692310333252, 1.1842156648635864, -138.16012573242188],
    [8.297085150843486e-05, -0.9059998989105225, 3.803698778152466, -24.792430877685547],
    [0.0, 0.0, 0.0, 1.0]
],
  "dcmmeta_reorient_transform": [
    [0.0, -1.0, 0.0, 79.0],
    [1.0, 0.0, 0.0, 0.0],
    [0.0, 0.0, 1.0, 0.0],
    [0.0, 0.0, 0.0, 1.0]
],
  "dcmmeta_shape": [80, 80, 30, 200],
  "dcmmeta_slice_dim": 2,
  "dcmmeta_version": 0.6,
  "global": {
    "const": {
      "AccessionNumber": "qa64",
      "AcquisitionMatrix": [80, 0, 0, 80],
      "AngioFlag": "N",
      "BitsAllocated": 16,
      "BitsStored": 12,
      "BodyPartExamined": "BRAIN",
      "Columns": 480,
      "EchoNumbers": 1,
      "EchoTime": 35.0,
      "EchoTrainLength": 39,
      "FlipAngle": 90.0,
      "HighBit": 11,
      "ImageOrientationPatient": [0.98278414971115, -0.1847574472427, 2.765694947e-05, 0.17612253224056, 0.93689747327702, 0.30199996391441],
      "ImagePositionPatient": [-832.00183006537, -535.16858535393, -277.58299493215],
      "ImageType": [
        "ORIGINAL",
        "PRIMARY",
        "M",
        "ND",
        "NORM",
        "MOSAIC"
],
      "ImagedNucleus": "1H",
      "ImagingFrequency": 123.25233,
      "InPlanePhaseEncodingDirection": "COL",
      "MRAcquisitionType": "2D",
      "MagneticFieldStrength": 3.0,
      "Manufacturer": "SIEMENS",
      "ManufacturerModelName": "Prisma",
      "Modality": "MR",
      "NumberOfAverages": 1.0,
      "NumberOfPhaseEncodingSteps": 79,
      "PercentPhaseFieldOfView": 100.0,
      "PercentSampling": 100.0,
      "PerformedProcedureStepStartTime": "105203.956000",
      "PhotometricInterpretation": "MONOCHROME2",
      "PixelBandwidth": 2315.0,
      "PixelRepresentation": 0,
      "PixelSpacing": [3.0, 3.0],
      "ProtocolName": "func-bold_task-rest_acq-p2",
      "RepetitionTime": 2000.0,
      "Rows": 480,
      "SAR": 0.03587163090189,
      "SamplesPerPixel": 1,
      "ScanOptions": "FS",
      "ScanningSequence": "EP",
      "SequenceName": "*epfid2d1_80",
      "SequenceVariant": "SK",
      "SeriesDescription": "func-bold_task-rest_acq-p2",
      "SeriesNumber": 5,
      "SeriesTime": "105447.218000",
      "SliceLocation": -59.341676056007,
      "SliceThickness": 3.5,
      "SmallestImagePixelValue": 0,
      "SoftwareVersions": "syngo MR E11",
      "SpacingBetweenSlices": 3.9900000292588,
      "SpecificCharacterSet": "ISO_IR 100",
      "StudyID": "40",
      "StudyTime": "105203.901000",
      "TransmitCoilName": "Body",
      "VariableFlipAngleFlag": "N",
      "WindowCenterWidthExplanation": "Algo1",
      "dBdt": 0.0},
    "slices": {}
  },
  "time": {
    "samples": {
      "AcquisitionNumber": [1, 2, 3, 4, 5, 6, 7, 8, 9, 10, 11, 12, 13, 14, 15, 16, 17, 18, 19, 20, 21, 22, 23, 24, 25, 26, 27, 28, 29, 30, 31, 32, 33, 34, 35, 36, 37, 38, 39, 40, 41, 42, 43, 44, 45, 46, 47, 48, 49, 50, 51, 52, 53, 54, 55, 56, 57, 58, 59, 60, 61, 62, 63, 64, 65, 66, 67, 68, 69, 70, 71, 72, 73, 74, 75, 76, 77, 78, 79, 80, 81, 82, 83, 84, 85, 86, 87, 88, 89, 90, 91, 92, 93, 94, 95, 96, 97, 98, 99, 100, 101, 102, 103, 104, 105, 106, 107, 108, 109, 110, 111, 112, 113, 114, 115, 116, 117, 118, 119, 120, 121, 122, 123, 124, 125, 126, 127, 128, 129, 130, 131, 132, 133, 134, 135, 136, 137, 138, 139, 140, 141, 142, 143, 144, 145, 146, 147, 148, 149, 150, 151, 152, 153, 154, 155, 156, 157, 158, 159, 160, 161, 162, 163, 164, 165, 166, 167, 168, 169, 170, 171, 172, 173, 174, 175, 176, 177, 178, 179, 180, 181, 182, 183, 184, 185, 186, 187, 188, 189, 190, 191, 192, 193, 194, 195, 196, 197, 198, 199, 200],
      "AcquisitionTime": ["105406.815000", "105408.815000", "105410.815000", "105412.815000", "105414.815000", "105416.815000", "105418.815000", "105420.815000", "105422.815000", "105424.815000", "105426.815000", "105428.815000", "105430.815000", "105432.815000", "105434.815000", "105436.815000", "105438.815000", "105440.815000", "105442.815000", "105444.815000", "105446.815000", "105448.815000", "105450.815000", "105452.815000", "105454.815000", "105456.815000", "105458.815000", "105500.815000", "105502.815000", "105504.815000", "105506.815000", "105508.815000", "105510.815000", "105512.815000", "105514.815000", "105516.815000", "105518.815000", "105520.815000", "105522.815000", "105524.815000", "105526.815000", "105528.815000", "105530.815000", "105532.815000", "105534.815000", "105536.815000", "105538.815000", "105540.815000", "105542.815000", "105544.815000", "105546.815000", "105548.815000", "105550.815000", "105552.815000", "105554.815000", "105556.815000", "105558.815000", "105600.815000", "105602.815000", "105604.815000", "105606.815000", "105608.815000", "105610.815000", "105612.815000", "105614.815000", "105616.815000", "105618.815000", "105620.815000", "105622.815000", "105624.815000", "105626.815000", "105628.815000", "105630.815000", "105632.815000", "105634.815000", "105636.815000", "105638.815000", "105640.815000", "105642.815000", "105644.815000", "105646.815000", "105648.815000", "105650.815000", "105652.815000", "105654.815000", "105656.815000", "105658.815000", "105700.815000", "105702.815000", "105704.815000", "105706.815000", "105708.815000", "105710.815000", "105712.815000", "105714.815000", "105716.815000", "105718.815000", "105720.815000", "105722.815000", "105724.815000", "105726.815000", "105728.815000", "105730.815000", "105732.815000", "105734.815000", "105736.815000", "105738.815000", "105740.815000", "105742.815000", "105744.815000", "105746.815000", "105748.815000", "105750.815000", "105752.815000", "105754.815000", "105756.815000", "105758.815000", "105800.815000", "105802.815000", "105804.815000", "105806.815000", "105808.815000", "105810.815000", "105812.815000", "105814.815000", "105816.815000", "105818.815000", "105820.815000", "105822.815000", "105824.815000", "105826.815000", "105828.815000", "105830.815000", "105832.815000", "105834.815000", "105836.815000", "105838.815000", "105840.815000", "105842.815000", "105844.815000", "105846.815000", "105848.815000", "105850.815000", "105852.815000", "105854.815000", "105856.815000", "105858.815000", "105900.815000", "105902.815000", "105904.815000", "105906.815000", "105908.815000", "105910.815000", "105912.815000", "105914.815000", "105916.815000", "105918.815000", "105920.815000", "105922.815000", "105924.815000", "105926.815000", "105928.815000", "105930.815000", "105932.815000", "105934.815000", "105936.815000", "105938.815000", "105940.815000", "105942.815000", "105944.815000", "105946.815000", "105948.815000", "105950.815000", "105952.815000", "105954.815000", "105956.815000", "105958.815000", "110000.815000", "110002.815000", "110004.815000", "110006.815000", "110008.815000", "110010.815000", "110012.815000", "110014.815000", "110016.815000", "110018.815000", "110020.815000", "110022.815000", "110024.815000", "110026.815000", "110028.815000", "110030.815000", "110032.815000", "110034.815000", "110036.815000", "110038.815000", "110040.815000", "110042.815000", "110044.815000"],
      "ContentTime": ["105447.221000", "105447.225000", "105447.228000", "105447.240000", "105447.242000", "105447.245000", "105447.247000", "105447.250000", "105447.252000", "105447.255000", "105447.258000", "105447.260000", "105447.263000", "105447.265000", "105447.268000", "105447.270000", "105447.273000", "105447.276000", "105447.278000", "105447.281000", "105527.217000", "105527.219000", "105527.222000", "105527.225000", "105527.231000", "105527.234000", "105527.237000", "105527.239000", "105527.242000", "105527.244000", "105527.247000", "105527.250000", "105527.252000", "105527.255000", "105527.257000", "105527.260000", "105527.263000", "105527.265000", "105527.268000", "105527.270000", "105607.217000", "105607.220000", "105607.222000", "105607.225000", "105607.228000", "105607.230000", "105607.233000", "105607.235000", "105607.238000", "105607.241000", "105607.243000", "105607.246000", "105607.248000", "105607.251000", "105607.254000", "105607.257000", "105607.259000", "105607.262000", "105607.264000", "105607.267000", "105647.217000", "105647.220000", "105647.222000", "105647.225000", "105647.227000", "105647.230000", "105647.233000", "105647.235000", "105647.238000", "105647.240000", "105647.243000", "105647.246000", "105647.248000", "105647.251000", "105647.253000", "105647.256000", "105647.259000", "105647.261000", "105647.264000", "105647.266000", "105727.217000", "105727.219000", "105727.222000", "105727.225000", "105727.227000", "105727.230000", "105727.233000", "105727.235000", "105727.238000", "105727.241000", "105727.243000", "105727.246000", "105727.248000", "105727.251000", "105727.253000", "105727.256000", "105727.259000", "105727.261000", "105727.264000", "105727.266000", "105807.217000", "105807.220000", "105807.222000", "105807.225000", "105807.227000", "105807.230000", "105807.233000", "105807.235000", "105807.238000", "105807.240000", "105807.243000", "105807.246000", "105807.248000", "105807.251000", "105807.254000", "105807.256000", "105807.259000", "105807.261000", "105807.264000", "105807.267000", "105847.217000", "105847.219000", "105847.230000", "105847.233000", "105847.236000", "105847.238000", "105847.241000", "105847.243000", "105847.246000", "105847.249000", "105847.251000", "105847.254000", "105847.256000", "105847.259000", "105847.262000", "105847.264000", "105847.267000", "105847.269000", "105847.272000", "105847.275000", "105927.217000", "105927.220000", "105927.222000", "105927.225000", "105927.227000", "105927.230000", "105927.233000", "105927.235000", "105927.238000", "105927.240000", "105927.243000", "105927.246000", "105927.248000", "105927.251000", "105927.253000", "105927.256000", "105927.259000", "105927.261000", "105927.264000", "105927.267000", "110007.217000", "110007.219000", "110007.222000", "110007.225000", "110007.227000", "110007.230000", "110007.232000", "110007.235000", "110007.238000", "110007.240000", "110007.243000", "110007.256000", "110007.258000", "110007.261000", "110007.264000", "110007.266000", "110007.269000", "110007.272000", "110007.274000", "110007.277000", "110027.217000", "110027.220000", "110027.222000", "110027.225000", "110027.227000", "110027.230000", "110027.233000", "110027.236000", "110027.238000", "110027.241000", "110046.312000", "110046.315000", "110046.318000", "110046.321000", "110046.323000", "110046.326000", "110046.329000", "110046.331000", "110046.334000", "110046.337000"],
      "InstanceCreationTime": ["105447.221000", "105447.225000", "105447.228000", "105447.240000", "105447.242000", "105447.245000", "105447.247000", "105447.250000", "105447.252000", "105447.255000", "105447.258000", "105447.260000", "105447.263000", "105447.265000", "105447.268000", "105447.270000", "105447.273000", "105447.276000", "105447.278000", "105447.281000", "105527.217000", "105527.219000", "105527.222000", "105527.225000", "105527.231000", "105527.234000", "105527.237000", "105527.239000", "105527.242000", "105527.244000", "105527.247000", "105527.250000", "105527.252000", "105527.255000", "105527.257000", "105527.260000", "105527.263000", "105527.265000", "105527.268000", "105527.270000", "105607.217000", "105607.220000", "105607.222000", "105607.225000", "105607.228000", "105607.230000", "105607.233000", "105607.235000", "105607.238000", "105607.241000", "105607.243000", "105607.246000", "105607.248000", "105607.251000", "105607.254000", "105607.257000", "105607.259000", "105607.262000", "105607.264000", "105607.267000", "105647.217000", "105647.220000", "105647.222000", "105647.225000", "105647.227000", "105647.230000", "105647.233000", "105647.235000", "105647.238000", "105647.240000", "105647.243000", "105647.246000", "105647.248000", "105647.251000", "105647.253000", "105647.256000", "105647.259000", "105647.261000", "105647.264000", "105647.266000", "105727.217000", "105727.219000", "105727.222000", "105727.225000", "105727.227000", "105727.230000", "105727.233000", "105727.235000", "105727.238000", "105727.241000", "105727.243000", "105727.246000", "105727.248000", "105727.251000", "105727.253000", "105727.256000", "105727.259000", "105727.261000", "105727.264000", "105727.266000", "105807.217000", "105807.220000", "105807.222000", "105807.225000", "105807.227000", "105807.230000", "105807.233000", "105807.235000", "105807.238000", "105807.240000", "105807.243000", "105807.246000", "105807.248000", "105807.251000", "105807.254000", "105807.256000", "105807.259000", "105807.261000", "105807.264000", "105807.267000", "105847.217000", "105847.219000", "105847.230000", "105847.233000", "105847.236000", "105847.238000", "105847.241000", "105847.243000", "105847.246000", "105847.249000", "105847.251000", "105847.254000", "105847.256000", "105847.259000", "105847.262000", "105847.264000", "105847.267000", "105847.269000", "105847.272000", "105847.275000", "105927.217000", "105927.220000", "105927.222000", "105927.225000", "105927.227000", "105927.230000", "105927.233000", "105927.235000", "105927.238000", "105927.240000", "105927.243000", "105927.246000", "105927.248000", "105927.251000", "105927.253000", "105927.256000", "105927.259000", "105927.261000", "105927.264000", "105927.267000", "110007.217000", "110007.219000", "110007.222000", "110007.225000", "110007.227000", "110007.230000", "110007.232000", "110007.235000", "110007.238000", "110007.240000", "110007.243000", "110007.256000", "110007.258000", "110007.261000", "110007.264000", "110007.266000", "110007.269000", "110007.272000", "110007.274000", "110007.277000", "110027.217000", "110027.220000", "110027.222000", "110027.225000", "110027.227000", "110027.230000", "110027.233000", "110027.236000", "110027.238000", "110027.241000", "110046.312000", "110046.315000", "110046.318000", "110046.321000", "110046.323000", "110046.326000", "110046.329000", "110046.331000", "110046.334000", "110046.337000"],
      "InstanceNumber": [1, 2, 3, 4, 5, 6, 7, 8, 9, 10, 11, 12, 13, 14, 15, 16, 17, 18, 19, 20, 21, 22, 23, 24, 25, 26, 27, 28, 29, 30, 31, 32, 33, 34, 35, 36, 37, 38, 39, 40, 41, 42, 43, 44, 45, 46, 47, 48, 49, 50, 51, 52, 53, 54, 55, 56, 57, 58, 59, 60, 61, 62, 63, 64, 65, 66, 67, 68, 69, 70, 71, 72, 73, 74, 75, 76, 77, 78, 79, 80, 81, 82, 83, 84, 85, 86, 87, 88, 89, 90, 91, 92, 93, 94, 95, 96, 97, 98, 99, 100, 101, 102, 103, 104, 105, 106, 107, 108, 109, 110, 111, 112, 113, 114, 115, 116, 117, 118, 119, 120, 121, 122, 123, 124, 125, 126, 127, 128, 129, 130, 131, 132, 133, 134, 135, 136, 137, 138, 139, 140, 141, 142, 143, 144, 145, 146, 147, 148, 149, 150, 151, 152, 153, 154, 155, 156, 157, 158, 159, 160, 161, 162, 163, 164, 165, 166, 167, 168, 169, 170, 171, 172, 173, 174, 175, 176, 177, 178, 179, 180, 181, 182, 183, 184, 185, 186, 187, 188, 189, 190, 191, 192, 193, 194, 195, 196, 197, 198, 199, 200],
      "LargestImagePixelValue": [3889, 3884, 3888, 3887, 3897, 3890, 3886, 3892, 3866, 3874, 3885, 3885, 3894, 3878, 3891, 3898, 3890, 3870, 3891, 3887, 3897, 3886, 3880, 3899, 3891, 3896, 3881, 3880, 3902, 3881, 3900, 3883, 3881, 3879, 3874, 3895, 3893, 3903, 3887, 3888, 3879, 3873, 3881, 3889, 3873, 3877, 3899, 3889, 3893, 3888, 3898, 3872, 3887, 3887, 3875, 3887, 3879, 3884, 3886, 3877, 3891, 3895, 3890, 3871, 3893, 3882, 3889, 3899, 3880, 3879, 3883, 3877, 3894, 3879, 3885, 3875, 3879, 3877, 3892, 3884, 3888, 3883, 3883, 3886, 3867, 3899, 3885, 3899, 3865, 3897, 3880, 3868, 3891, 3881, 3878, 3886, 3873, 3889, 3879, 3895, 3885, 3909, 3884, 3869, 3887, 3886, 3889, 3887, 3884, 3880, 3881, 3881, 3877, 3882, 3886, 3888, 3879, 3888, 3875, 3871, 3888, 3887, 3864, 3886, 3874, 3876, 3879, 3880, 3873, 3879, 3868, 3871, 3880, 3884, 3876, 3881, 3882, 3890, 3874, 3880, 3877, 3896, 3872, 3884, 3883, 3898, 3881, 3879, 3878, 3882, 3873, 3888, 3877, 3875, 3896, 3875, 3882, 3866, 3886, 3878, 3875, 3886, 3883, 3877, 3884, 3885, 3891, 3867, 3888, 3891, 3900, 3874, 3904, 3881, 3868, 3886, 3871, 3886, 3886, 3886, 3892, 3872, 3895, 3881, 3878, 3881, 3886, 3878, 3874, 3887, 3884, 3870, 3880, 3882, 3875, 3868, 3887, 3880, 3884, 3883],
      "WindowCenter": [1410.0, 1410.0, 1410.0, 1410.0, 1410.0, 1409.0, 1409.0, 1410.0, 1410.0, 1410.0, 1409.0, 1409.0, 1409.0, 1409.0, 1409.0, 1409.0, 1409.0, 1409.0, 1409.0, 1409.0, 1408.0, 1409.0, 1408.0, 1409.0, 1409.0, 1409.0, 1409.0, 1410.0, 1409.0, 1409.0, 1409.0, 1409.0, 1409.0, 1409.0, 1409.0, 1408.0, 1409.0, 1409.0, 1409.0, 1409.0, 1408.0, 1409.0, 1409.0, 1409.0, 1408.0, 1408.0, 1409.0, 1409.0, 1408.0, 1408.0, 1409.0, 1408.0, 1408.0, 1408.0, 1408.0, 1408.0, 1408.0, 1408.0, 1408.0, 1408.0, 1408.0, 1408.0, 1408.0, 1408.0, 1408.0, 1407.0, 1407.0, 1408.0, 1408.0, 1408.0, 1408.0, 1408.0, 1408.0, 1408.0, 1408.0, 1408.0, 1408.0, 1408.0, 1408.0, 1408.0, 1408.0, 1407.0, 1408.0, 1408.0, 1409.0, 1408.0, 1408.0, 1408.0, 1408.0, 1408.0, 1407.0, 1408.0, 1407.0, 1408.0, 1407.0, 1408.0, 1408.0, 1407.0, 1407.0, 1408.0, 1408.0, 1408.0, 1408.0, 1408.0, 1408.0, 1407.0, 1407.0, 1408.0, 1408.0, 1408.0, 1407.0, 1407.0, 1407.0, 1407.0, 1408.0, 1407.0, 1407.0, 1407.0, 1406.0, 1407.0, 1406.0, 1407.0, 1407.0, 1407.0, 1407.0, 1408.0, 1407.0, 1407.0, 1407.0, 1407.0, 1407.0, 1407.0, 1406.0, 1407.0, 1407.0, 1407.0, 1406.0, 1406.0, 1407.0, 1407.0, 1407.0, 1406.0, 1406.0, 1406.0, 1406.0, 1407.0, 1407.0, 1407.0, 1406.0, 1406.0, 1407.0, 1407.0, 1407.0, 1407.0, 1407.0, 1407.0, 1407.0, 1407.0, 1406.0, 1407.0, 1406.0, 1407.0, 1406.0, 1407.0, 1406.0, 1406.0, 1406.0, 1406.0, 1406.0, 1406.0, 1406.0, 1406.0, 1406.0, 1407.0, 1406.0, 1406.0, 1406.0, 1406.0, 1406.0, 1406.0, 1407.0, 1405.0, 1405.0, 1407.0, 1406.0, 1406.0, 1406.0, 1406.0, 1406.0, 1406.0, 1407.0, 1406.0, 1406.0, 1406.0, 1406.0, 1406.0, 1407.0, 1406.0, 1406.0, 1406.0],
      "WindowWidth": [3274.0, 3273.0, 3272.0, 3272.0, 3273.0, 3273.0, 3273.0, 3272.0, 3272.0, 3272.0, 3272.0, 3273.0, 3272.0, 3272.0, 3272.0, 3272.0, 3272.0, 3272.0, 3272.0, 3272.0, 3273.0, 3272.0, 3273.0, 3272.0, 3272.0, 3272.0, 3272.0, 3272.0, 3272.0, 3272.0, 3272.0, 3272.0, 3272.0, 3272.0, 3272.0, 3272.0, 3272.0, 3272.0, 3272.0, 3272.0, 3273.0, 3272.0, 3272.0, 3272.0, 3272.0, 3272.0, 3272.0, 3271.0, 3272.0, 3272.0, 3271.0, 3272.0, 3272.0, 3272.0, 3272.0, 3271.0, 3272.0, 3272.0, 3272.0, 3271.0, 3272.0, 3272.0, 3271.0, 3271.0, 3271.0, 3271.0, 3271.0, 3271.0, 3271.0, 3271.0, 3271.0, 3271.0, 3271.0, 3270.0, 3271.0, 3271.0, 3271.0, 3271.0, 3271.0, 3271.0, 3271.0, 3271.0, 3271.0, 3271.0, 3271.0, 3271.0, 3271.0, 3271.0, 3271.0, 3271.0, 3271.0, 3271.0, 3270.0, 3270.0, 3270.0, 3270.0, 3270.0, 3270.0, 3271.0, 3270.0, 3270.0, 3270.0, 3271.0, 3270.0, 3270.0, 3270.0, 3271.0, 3270.0, 3270.0, 3270.0, 3271.0, 3270.0, 3270.0, 3270.0, 3270.0, 3270.0, 3270.0, 3270.0, 3271.0, 3270.0, 3271.0, 3270.0, 3270.0, 3270.0, 3270.0, 3270.0, 3270.0, 3270.0, 3270.0, 3270.0, 3270.0, 3270.0, 3270.0, 3270.0, 3270.0, 3270.0, 3270.0, 3270.0, 3270.0, 3270.0, 3270.0, 3270.0, 3270.0, 3270.0, 3270.0, 3270.0, 3270.0, 3270.0, 3270.0, 3270.0, 3270.0, 3270.0, 3269.0, 3269.0, 3270.0, 3270.0, 3270.0, 3270.0, 3270.0, 3270.0, 3270.0, 3270.0, 3270.0, 3269.0, 3269.0, 3270.0, 3269.0, 3269.0, 3270.0, 3270.0, 3269.0, 3269.0, 3270.0, 3270.0, 3269.0, 3269.0, 3269.0, 3270.0, 3270.0, 3269.0, 3270.0, 3270.0, 3270.0, 3269.0, 3270.0, 3270.0, 3269.0, 3269.0, 3269.0, 3269.0, 3269.0, 3269.0, 3269.0, 3269.0, 3269.0, 3269.0, 3269.0, 3269.0, 3269.0, 3269.0]
    },
    "slices": {}
  }
}