{
  "AcquisitionMatrixPE": 80,
  "AcquisitionNumber": 1,
  "AcquisitionTime": "10:29:38.212500",
  "BandwidthPerPixelPhaseEncode": 48.077,
  "BaseResolution": 80,
  "BodyPartExamined": "BRAIN",
  "CoilCombinationMethod": "Sum of Squares",
  "ConsistencyInfo": "N4_VE11C_LATEST_20160120",
  "ConversionSoftware": "dcm2niix",
  "ConversionSoftwareVersion": "v1.0.20220720",
  "DerivedVendorReportedEchoSpacing": 0.000519999,
  "DeviceSerialNumber": "66112",
  "DwellTime": 2.7e-06,
  "EchoTime": 0.035,
  "EchoTrainLength": 39,
  "EffectiveEchoSpacing": 0.00026,
  "FlipAngle": 90,
  "HeudiconvVersion": "0.13.1",
  "ImageOrientationPatientDICOM": [0.972065, 0.234111, 0.0167897, -0.227996, 0.924837, 0.304458],
  "ImageOrientationText": "Tra>Cor(17.5)>Sag(-3.2)",
  "ImageType": [
    "ORIGINAL",
    "PRIMARY",
    "M",
    "ND",
    "NORM",
    "MOSAIC"
],
  "ImagingFrequency": 123.252,
  "InPlanePhaseEncodingDirectionDICOM": "COL",
  "InstitutionAddress": "Maynard 3,Hanover,NH,US,03755",
  "InstitutionName": "Dartmouth College - PBS",
  "InstitutionalDepartmentName": "Department",
  "MRAcquisitionType": "2D",
  "MagneticFieldStrength": 3,
  "Manufacturer": "Siemens",
  "ManufacturersModelName": "Prisma",
  "MatrixCoilMode": "GRAPPA",
  "Modality": "MR",
  "NonlinearGradientCorrection": false,
  "ParallelReductionFactorInPlane": 2,
  "PartialFourier": 1,
  "PatientPosition": "HFS",
  "PercentPhaseFOV": 100,
  "PercentSampling": 100,
  "PhaseEncodingDirection": "j-",
  "PhaseEncodingSteps": 79,
  "PhaseResolution": 1,
  "PixelBandwidth": 2315,
  "ProcedureStepDescription": "dbic^QA",
  "ProtocolName": "func-bold_task-rest_acq-p2",
  "PulseSequenceDetails": "%SiemensSeq%\\ep2d_bold",
  "ReceiveCoilActiveElements": "HEA;HEP",
  "ReceiveCoilName": "Head_32",
  "ReconMatrixPE": 80,
  "RefLinesPE": 24,
  "RepetitionTime": 2,
  "SAR": 0.05565,
  "ScanOptions": "FS",
  "ScanningSequence": "EP",
  "SequenceName": "*epfid2d1_80",
  "SequenceVariant": "SK",
  "SeriesDescription": "func-bold_task-rest_acq-p2",
  "SeriesNumber": 5,
  "ShimSetting": [4147, -7686, -7505, 286, -40, -135, -33, 43],
  "SliceThickness": 3.5,
  "SliceTiming": [0.99, 0, 1.055, 0.065, 1.1225, 0.1325, 1.1875, 0.1975, 1.255, 0.265, 1.32, 0.33, 1.385, 0.395, 1.4525, 0.4625, 1.5175, 0.5275, 1.585, 0.595, 1.65, 0.66, 1.715, 0.725, 1.7825, 0.7925, 1.8475, 0.8575, 1.9125, 0.925],
  "SoftwareVersions": "syngo MR E11",
  "SpacingBetweenSlices": 3.99,
  "StationName": "AWP66112",
  "TaskName": "rest",
  "TotalReadoutTime": 0.02054,
  "TxRefAmp": 232.648,
  "dcmmeta_affine": [
    [-2.916194438934326, -0.6839871406555176, -0.22243957221508026, 154.14981079101562],
    [-0.7023341059684753, 2.7745108604431152, 1.1961252689361572, -93.45773315429688],
    [0.050369247794151306, -0.913373589515686, 3.799987554550171, -13.319053649902344],
    [0.0, 0.0, 0.0, 1.0]
],
  "dcmmeta_reorient_transform": [
    [0.0, -1.0, 0.0, 79.0],
    [1.0, 0.0, 0.0, 0.0],
    [0.0, 0.0, 1.0, 0.0],
    [0.0, 0.0, 0.0, 1.0]
],
  "dcmmeta_shape": [80, 80, 30, 200],
  "dcmmeta_slice_dim": 2,
  "dcmmeta_version": 0.6,
  "global": {
    "const": {
      "AccessionNumber": "qa",
      "AcquisitionMatrix": [80, 0, 0, 80],
      "AngioFlag": "N",
      "BitsAllocated": 16,
      "BitsStored": 12,
      "BodyPartExamined": "BRAIN",
      "Columns": 480,
      "EchoNumbers": 1,
      "EchoTime": 35.0,
      "EchoTrainLength": 39,
      "FlipAngle": 90.0,
      "HighBit": 11,
      "ImageOrientationPatient": [0.97206479702977, 0.23411137241403, 0.01678974931008, -0.2279957226759, 0.92483693759789, 0.3044578612814],
      "ImagePositionPatient": [-546.55626208396, -821.0976103265, -278.22413335511],
      "ImageType": [
        "ORIGINAL",
        "PRIMARY",
        "M",
        "ND",
        "NORM",
        "MOSAIC"
],
      "ImagedNucleus": "1H",
      "ImagingFrequency": 123.252423,
      "InPlanePhaseEncodingDirection": "COL",
      "MRAcquisitionType": "2D",
      "MagneticFieldStrength": 3.0,
      "Manufacturer": "SIEMENS",
      "ManufacturerModelName": "Prisma",
      "Modality": "MR",
      "NumberOfAverages": 1.0,
      "NumberOfPhaseEncodingSteps": 79,
      "PercentPhaseFieldOfView": 100.0,
      "PercentSampling": 100.0,
      "PerformedProcedureStepStartTime": "101022.428000",
      "PhotometricInterpretation": "MONOCHROME2",
      "PixelBandwidth": 2315.0,
      "PixelRepresentation": 0,
      "PixelSpacing": [3.0, 3.0],
      "ProtocolName": "func-bold_task-rest_acq-p2",
      "RepetitionTime": 2000.0,
      "Rows": 480,
      "SAR": 0.05565004928237,
      "SamplesPerPixel": 1,
      "ScanOptions": "FS",
      "ScanningSequence": "EP",
      "SequenceName": "*epfid2d1_80",
      "SequenceVariant": "SK",
      "SeriesDescription": "func-bold_task-rest_acq-p2",
      "SeriesNumber": 5,
      "SeriesTime": "103036.844000",
      "SliceLocation": -49.295339456326,
      "SliceThickness": 3.5,
      "SmallestImagePixelValue": 0,
      "SoftwareVersions": "syngo MR E11",
      "SpacingBetweenSlices": 3.9899999999502,
      "SpecificCharacterSet": "ISO_IR 100",
      "StudyID": "98",
      "StudyTime": "101022.301000",
      "TransmitCoilName": "Body",
      "VariableFlipAngleFlag": "N",
      "WindowCenterWidthExplanation": "Algo1",
      "dBdt": 0.0},
    "slices": {}
  },
  "time": {
    "samples": {
      "AcquisitionNumber": [1, 2, 3, 4, 5, 6, 7, 8, 9, 10, 11, 12, 13, 14, 15, 16, 17, 18, 19, 20, 21, 22, 23, 24, 25, 26, 27, 28, 29, 30, 31, 32, 33, 34, 35, 36, 37, 38, 39, 40, 41, 42, 43, 44, 45, 46, 47, 48, 49, 50, 51, 52, 53, 54, 55, 56, 57, 58, 59, 60, 61, 62, 63, 64, 65, 66, 67, 68, 69, 70, 71, 72, 73, 74, 75, 76, 77, 78, 79, 80, 81, 82, 83, 84, 85, 86, 87, 88, 89, 90, 91, 92, 93, 94, 95, 96, 97, 98, 99, 100, 101, 102, 103, 104, 105, 106, 107, 108, 109, 110, 111, 112, 113, 114, 115, 116, 117, 118, 119, 120, 121, 122, 123, 124, 125, 126, 127, 128, 129, 130, 131, 132, 133, 134, 135, 136, 137, 138, 139, 140, 141, 142, 143, 144, 145, 146, 147, 148, 149, 150, 151, 152, 153, 154, 155, 156, 157, 158, 159, 160, 161, 162, 163, 164, 165, 166, 167, 168, 169, 170, 171, 172, 173, 174, 175, 176, 177, 178, 179, 180, 181, 182, 183, 184, 185, 186, 187, 188, 189, 190, 191, 192, 193, 194, 195, 196, 197, 198, 199, 200],
      "AcquisitionTime": ["102938.212500", "102940.212500", "102942.212500", "102944.212500", "102946.212500", "102948.212500", "102950.212500", "102952.212500", "102954.212500", "102956.212500", "102958.212500", "103000.212500", "103002.212500", "103004.212500", "103006.212500", "103008.212500", "103010.212500", "103012.212500", "103014.212500", "103016.212500", "103018.212500", "103020.212500", "103022.212500", "103024.212500", "103026.212500", "103028.212500", "103030.212500", "103032.212500", "103034.212500", "103036.212500", "103038.212500", "103040.212500", "103042.212500", "103044.212500", "103046.212500", "103048.212500", "103050.212500", "103052.212500", "103054.212500", "103056.212500", "103058.212500", "103100.212500", "103102.212500", "103104.212500", "103106.212500", "103108.212500", "103110.212500", "103112.212500", "103114.212500", "103116.212500", "103118.212500", "103120.212500", "103122.212500", "103124.212500", "103126.212500", "103128.212500", "103130.212500", "103132.212500", "103134.212500", "103136.212500", "103138.212500", "103140.212500", "103142.212500", "103144.212500", "103146.212500", "103148.212500", "103150.212500", "103152.212500", "103154.212500", "103156.212500", "103158.212500", "103200.212500", "103202.212500", "103204.212500", "103206.212500", "103208.212500", "103210.212500", "103212.212500", "103214.212500", "103216.212500", "103218.212500", "103220.212500", "103222.212500", "103224.212500", "103226.212500", "103228.212500", "103230.212500", "103232.212500", "103234.212500", "103236.212500", "103238.212500", "103240.212500", "103242.212500", "103244.212500", "103246.212500", "103248.212500", "103250.212500", "103252.212500", "103254.212500", "103256.212500", "103258.212500", "103300.212500", "103302.212500", "103304.212500", "103306.212500", "103308.212500", "103310.212500", "103312.212500", "103314.212500", "103316.212500", "103318.212500", "103320.212500", "103322.212500", "103324.212500", "103326.212500", "103328.212500", "103330.212500", "103332.212500", "103334.212500", "103336.212500", "103338.212500", "103340.212500", "103342.212500", "103344.212500", "103346.212500", "103348.212500", "103350.212500", "103352.212500", "103354.212500", "103356.212500", "103358.212500", "103400.212500", "103402.212500", "103404.212500", "103406.212500", "103408.212500", "103410.212500", "103412.212500", "103414.212500", "103416.212500", "103418.212500", "103420.212500", "103422.212500", "103424.212500", "103426.212500", "103428.212500", "103430.212500", "103432.212500", "103434.212500", "103436.212500", "103438.212500", "103440.212500", "103442.212500", "103444.212500", "103446.212500", "103448.212500", "103450.212500", "103452.212500", "103454.212500", "103456.212500", "103458.212500", "103500.212500", "103502.212500", "103504.212500", "103506.212500", "103508.212500", "103510.212500", "103512.212500", "103514.212500", "103516.212500", "103518.212500", "103520.212500", "103522.212500", "103524.212500", "103526.212500", "103528.212500", "103530.212500", "103532.212500", "103534.212500", "103536.212500", "103538.212500", "103540.212500", "103542.212500", "103544.212500", "103546.212500", "103548.212500", "103550.212500", "103552.212500", "103554.212500", "103556.212500", "103558.212500", "103600.212500", "103602.212500", "103604.212500", "103606.212500", "103608.212500", "103610.212500", "103612.212500", "103614.212500", "103616.212500"],
      "ContentTime": ["103036.848000", "103036.852000", "103036.854000", "103036.857000", "103036.859000", "103036.862000", "103036.865000", "103036.867000", "103036.870000", "103036.872000", "103036.875000", "103036.878000", "103036.880000", "103036.883000", "103036.885000", "103036.888000", "103036.891000", "103036.893000", "103036.896000", "103036.898000", "103036.916000", "103036.919000", "103036.921000", "103036.924000", "103036.927000", "103036.929000", "103036.932000", "103036.934000", "103036.937000", "103116.843000", "103116.845000", "103116.848000", "103116.851000", "103116.853000", "103116.856000", "103116.859000", "103116.861000", "103116.864000", "103116.866000", "103116.869000", "103116.871000", "103116.874000", "103116.877000", "103116.879000", "103116.890000", "103116.893000", "103116.895000", "103116.898000", "103116.900000", "103156.843000", "103156.845000", "103156.848000", "103156.851000", "103156.853000", "103156.856000", "103156.859000", "103156.861000", "103156.864000", "103156.867000", "103156.869000", "103156.872000", "103156.874000", "103156.877000", "103156.879000", "103156.882000", "103156.885000", "103156.887000", "103156.890000", "103156.892000", "103236.843000", "103236.846000", "103236.848000", "103236.851000", "103236.854000", "103236.856000", "103236.859000", "103236.861000", "103236.864000", "103236.866000", "103236.869000", "103236.872000", "103236.874000", "103236.877000", "103236.880000", "103236.882000", "103236.885000", "103236.887000", "103236.890000", "103236.892000", "103316.842000", "103316.845000", "103316.847000", "103316.850000", "103316.852000", "103316.855000", "103316.858000", "103316.860000", "103316.863000", "103316.866000", "103316.878000", "103316.880000", "103316.883000", "103316.885000", "103316.888000", "103316.891000", "103316.893000", "103316.896000", "103316.898000", "103316.901000", "103356.843000", "103356.845000", "103356.848000", "103356.851000", "103356.854000", "103356.856000", "103356.859000", "103356.862000", "103356.864000", "103356.867000", "103356.869000", "103356.872000", "103356.875000", "103356.877000", "103356.880000", "103356.883000", "103356.885000", "103356.888000", "103356.890000", "103356.893000", "103436.843000", "103436.846000", "103436.848000", "103436.851000", "103436.854000", "103436.857000", "103436.859000", "103436.862000", "103436.865000", "103436.867000", "103436.870000", "103436.873000", "103436.875000", "103436.878000", "103436.880000", "103436.883000", "103436.886000", "103436.888000", "103436.891000", "103436.894000", "103516.842000", "103516.845000", "103516.847000", "103516.850000", "103516.852000", "103516.855000", "103516.858000", "103516.860000", "103516.863000", "103516.866000", "103516.869000", "103516.871000", "103516.874000", "103516.876000", "103516.879000", "103516.881000", "103516.884000", "103516.887000", "103516.890000", "103516.892000", "103556.843000", "103556.846000", "103556.848000", "103556.851000", "103556.854000", "103556.856000", "103556.859000", "103556.862000", "103556.864000", "103556.871000", "103556.874000", "103556.876000", "103556.879000", "103556.882000", "103556.884000", "103556.887000", "103556.889000", "103556.892000", "103556.895000", "103556.897000", "103617.594000", "103617.597000", "103617.599000", "103617.602000", "103617.605000", "103617.608000", "103617.611000", "103617.613000", "103617.616000", "103617.619000", "103617.622000"],
      "InstanceCreationTime": ["103036.848000", "103036.852000", "103036.854000", "103036.857000", "103036.859000", "103036.862000", "103036.865000", "103036.867000", "103036.870000", "103036.872000", "103036.875000", "103036.878000", "103036.880000", "103036.883000", "103036.885000", "103036.888000", "103036.891000", "103036.893000", "103036.896000", "103036.898000", "103036.916000", "103036.919000", "103036.921000", "103036.924000", "103036.927000", "103036.929000", "103036.932000", "103036.934000", "103036.937000", "103116.843000", "103116.845000", "103116.848000", "103116.851000", "103116.853000", "103116.856000", "103116.859000", "103116.861000", "103116.864000", "103116.866000", "103116.869000", "103116.871000", "103116.874000", "103116.877000", "103116.879000", "103116.890000", "103116.893000", "103116.895000", "103116.898000", "103116.900000", "103156.843000", "103156.845000", "103156.848000", "103156.851000", "103156.853000", "103156.856000", "103156.859000", "103156.861000", "103156.864000", "103156.867000", "103156.869000", "103156.872000", "103156.874000", "103156.877000", "103156.879000", "103156.882000", "103156.885000", "103156.887000", "103156.890000", "103156.892000", "103236.843000", "103236.846000", "103236.848000", "103236.851000", "103236.854000", "103236.856000", "103236.859000", "103236.861000", "103236.864000", "103236.866000", "103236.869000", "103236.872000", "103236.874000", "103236.877000", "103236.880000", "103236.882000", "103236.885000", "103236.887000", "103236.890000", "103236.892000", "103316.842000", "103316.845000", "103316.847000", "103316.850000", "103316.852000", "103316.855000", "103316.858000", "103316.860000", "103316.863000", "103316.866000", "103316.878000", "103316.880000", "103316.883000", "103316.885000", "103316.888000", "103316.891000", "103316.893000", "103316.896000", "103316.898000", "103316.901000", "103356.843000", "103356.845000", "103356.848000", "103356.851000", "103356.854000", "103356.856000", "103356.859000", "103356.862000", "103356.864000", "103356.867000", "103356.869000", "103356.872000", "103356.875000", "103356.877000", "103356.880000", "103356.883000", "103356.885000", "103356.888000", "103356.890000", "103356.893000", "103436.843000", "103436.846000", "103436.848000", "103436.851000", "103436.854000", "103436.857000", "103436.859000", "103436.862000", "103436.865000", "103436.867000", "103436.870000", "103436.873000", "103436.875000", "103436.878000", "103436.880000", "103436.883000", "103436.886000", "103436.888000", "103436.891000", "103436.894000", "103516.842000", "103516.845000", "103516.847000", "103516.850000", "103516.852000", "103516.855000", "103516.858000", "103516.860000", "103516.863000", "103516.866000", "103516.869000", "103516.871000", "103516.874000", "103516.876000", "103516.879000", "103516.881000", "103516.884000", "103516.887000", "103516.890000", "103516.892000", "103556.843000", "103556.846000", "103556.848000", "103556.851000", "103556.854000", "103556.856000", "103556.859000", "103556.862000", "103556.864000", "103556.871000", "103556.874000", "103556.876000", "103556.879000", "103556.882000", "103556.884000", "103556.887000", "103556.889000", "103556.892000", "103556.895000", "103556.897000", "103617.594000", "103617.597000", "103617.599000", "103617.602000", "103617.605000", "103617.608000", "103617.611000", "103617.613000", "103617.616000", "103617.619000", "103617.622000"],
      "InstanceNumber": [1, 2, 3, 4, 5, 6, 7, 8, 9, 10, 11, 12, 13, 14, 15, 16, 17, 18, 19, 20, 21, 22, 23, 24, 25, 26, 27, 28, 29, 30, 31, 32, 33, 34, 35, 36, 37, 38, 39, 40, 41, 42, 43, 44, 45, 46, 47, 48, 49, 50, 51, 52, 53, 54, 55, 56, 57, 58, 59, 60, 61, 62, 63, 64, 65, 66, 67, 68, 69, 70, 71, 72, 73, 74, 75, 76, 77, 78, 79, 80, 81, 82, 83, 84, 85, 86, 87, 88, 89, 90, 91, 92, 93, 94, 95, 96, 97, 98, 99, 100, 101, 102, 103, 104, 105, 106, 107, 108, 109, 110, 111, 112, 113, 114, 115, 116, 117, 118, 119, 120, 121, 122, 123, 124, 125, 126, 127, 128, 129, 130, 131, 132, 133, 134, 135, 136, 137, 138, 139, 140, 141, 142, 143, 144, 145, 146, 147, 148, 149, 150, 151, 152, 153, 154, 155, 156, 157, 158, 159, 160, 161, 162, 163, 164, 165, 166, 167, 168, 169, 170, 171, 172, 173, 174, 175, 176, 177, 178, 179, 180, 181, 182, 183, 184, 185, 186, 187, 188, 189, 190, 191, 192, 193, 194, 195, 196, 197, 198, 199, 200],
      "LargestImagePixelValue": [2127, 2130, 2138, 2139, 2130, 2129, 2124, 2131, 2134, 2128, 2129, 2136, 2134, 2133, 2131, 2134, 2140, 2136, 2136, 2134, 2125, 2133, 2141, 2133, 2127, 2131, 2137, 2126, 2138, 2128, 2130, 2131, 2135, 2136, 2128, 2128, 2132, 2137, 2133, 2135, 2132, 2132, 2128, 2139, 2136, 2129, 2131, 2128, 2136, 2136, 2132, 2133, 2130, 2133, 2141, 2130, 2134, 2137, 2130, 2128, 2132, 2131, 2128, 2134, 2135, 2134, 2130, 2132, 2133, 2132, 2125, 2137, 2130, 2139, 2127, 2134, 2132, 2133, 2140, 2136, 2126, 2128, 2133, 2139, 2132, 2129, 2130, 2132, 2134, 2137, 2130, 2135, 2139, 2134, 2131, 2136, 2131, 2127, 2127, 2134, 2129, 2131, 2133, 2133, 2133, 2134, 2131, 2126, 2135, 2138, 2131, 2130, 2123, 2130, 2134, 2128, 2130, 2140, 2140, 2141, 2130, 2134, 2139, 2129, 2128, 2134, 2131, 2135, 2129, 2135, 2127, 2131, 2132, 2138, 2142, 2139, 2133, 2132, 2129, 2132, 2137, 2133, 2135, 2138, 2133, 2140, 2133, 2136, 2129, 2125, 2135, 2133, 2133, 2136, 2133, 2135, 2145, 2129, 2145, 2133, 2132, 2135, 2133, 2132, 2139, 2128, 2133, 2133, 2133, 2138, 2130, 2127, 2127, 2133, 2132, 2135, 2133, 2120, 2129, 2141, 2128, 2138, 2132, 2135, 2133, 2130, 2129, 2131, 2130, 2133, 2132, 2133, 2141, 2139, 2138, 2136, 2128, 2132, 2129, 2132],
      "WindowCenter": [995.0, 995.0, 995.0, 995.0, 995.0, 995.0, 995.0, 995.0, 995.0, 996.0, 995.0, 995.0, 995.0, 996.0, 995.0, 995.0, 995.0, 995.0, 995.0, 995.0, 995.0, 995.0, 996.0, 995.0, 995.0, 995.0, 995.0, 995.0, 995.0, 995.0, 995.0, 995.0, 995.0, 995.0, 995.0, 995.0, 995.0, 995.0, 995.0, 995.0, 995.0, 995.0, 995.0, 995.0, 995.0, 995.0, 995.0, 995.0, 996.0, 995.0, 995.0, 995.0, 995.0, 995.0, 995.0, 995.0, 996.0, 995.0, 995.0, 995.0, 995.0, 995.0, 995.0, 995.0, 995.0, 995.0, 995.0, 995.0, 995.0, 995.0, 995.0, 995.0, 995.0, 995.0, 995.0, 995.0, 995.0, 995.0, 995.0, 995.0, 995.0, 995.0, 995.0, 995.0, 995.0, 995.0, 995.0, 995.0, 995.0, 995.0, 995.0, 995.0, 995.0, 995.0, 995.0, 995.0, 995.0, 994.0, 995.0, 995.0, 995.0, 995.0, 995.0, 995.0, 994.0, 994.0, 994.0, 995.0, 995.0, 995.0, 995.0, 995.0, 995.0, 995.0, 995.0, 994.0, 995.0, 995.0, 994.0, 995.0, 994.0, 994.0, 994.0, 994.0, 994.0, 994.0, 994.0, 994.0, 995.0, 995.0, 995.0, 994.0, 994.0, 994.0, 994.0, 994.0, 994.0, 994.0, 995.0, 994.0, 994.0, 994.0, 994.0, 994.0, 994.0, 994.0, 995.0, 994.0, 995.0, 995.0, 994.0, 994.0, 994.0, 994.0, 994.0, 994.0, 994.0, 994.0, 994.0, 994.0, 994.0, 994.0, 994.0, 994.0, 994.0, 994.0, 994.0, 994.0, 994.0, 994.0, 994.0, 994.0, 994.0, 994.0, 994.0, 994.0, 995.0, 994.0, 994.0, 994.0, 994.0, 994.0, 994.0, 994.0, 994.0, 994.0, 994.0, 994.0, 994.0, 994.0, 994.0, 994.0, 995.0, 994.0, 994.0, 994.0, 994.0, 994.0, 994.0, 994.0],
      "WindowWidth": [2184.0, 2183.0, 2183.0, 2183.0, 2184.0, 2183.0, 2183.0, 2183.0, 2183.0, 2184.0, 2183.0, 2183.0, 2183.0, 2184.0, 2183.0, 2183.0, 2183.0, 2183.0, 2184.0, 2183.0, 2183.0, 2183.0, 2184.0, 2183.0, 2183.0, 2183.0, 2183.0, 2184.0, 2183.0, 2183.0, 2183.0, 2183.0, 2183.0, 2183.0, 2182.0, 2183.0, 2183.0, 2183.0, 2182.0, 2183.0, 2183.0, 2183.0, 2182.0, 2183.0, 2183.0, 2183.0, 2183.0, 2183.0, 2184.0, 2184.0, 2183.0, 2183.0, 2183.0, 2183.0, 2183.0, 2183.0, 2184.0, 2183.0, 2183.0, 2183.0, 2183.0, 2183.0, 2183.0, 2183.0, 2183.0, 2183.0, 2183.0, 2183.0, 2183.0, 2183.0, 2183.0, 2183.0, 2183.0, 2183.0, 2183.0, 2183.0, 2183.0, 2183.0, 2183.0, 2183.0, 2183.0, 2183.0, 2183.0, 2183.0, 2183.0, 2183.0, 2182.0, 2183.0, 2183.0, 2183.0, 2183.0, 2182.0, 2183.0, 2183.0, 2183.0, 2183.0, 2183.0, 2182.0, 2183.0, 2183.0, 2182.0, 2183.0, 2183.0, 2183.0, 2183.0, 2182.0, 2183.0, 2182.0, 2183.0, 2183.0, 2183.0, 2182.0, 2182.0, 2183.0, 2182.0, 2182.0, 2183.0, 2183.0, 2182.0, 2183.0, 2183.0, 2182.0, 2183.0, 2183.0, 2182.0, 2182.0, 2182.0, 2182.0, 2182.0, 2183.0, 2183.0, 2182.0, 2182.0, 2183.0, 2182.0, 2183.0, 2183.0, 2182.0, 2182.0, 2182.0, 2182.0, 2182.0, 2182.0, 2182.0, 2182.0, 2182.0, 2183.0, 2183.0, 2182.0, 2182.0, 2182.0, 2182.0, 2182.0, 2182.0, 2182.0, 2182.0, 2182.0, 2182.0, 2182.0, 2182.0, 2182.0, 2182.0, 2182.0, 2182.0, 2182.0, 2182.0, 2182.0, 2182.0, 2182.0, 2182.0, 2182.0, 2182.0, 2182.0, 2182.0, 2182.0, 2182.0, 2183.0, 2182.0, 2182.0, 2182.0, 2182.0, 2182.0, 2182.0, 2182.0, 2182.0, 2182.0, 2182.0, 2182.0, 2182.0, 2182.0, 2182.0, 2182.0, 2183.0, 2182.0, 2182.0, 2182.0, 2182.0, 2182.0, 2182.0, 2182.0]
    },
    "slices": {}
  }
}