{
  "AcquisitionMatrixPE": 80,
  "AcquisitionNumber": 1,
  "AcquisitionTime": "13:44:24.212500",
  "BandwidthPerPixelPhaseEncode": 48.077,
  "BaseResolution": 80,
  "BodyPartExamined": "BRAIN",
  "CoilCombinationMethod": "Sum of Squares",
  "ConsistencyInfo": "N4_VE11C_LATEST_20160120",
  "ConversionSoftware": "dcm2niix",
  "ConversionSoftwareVersion": "v1.0.20220720",
  "DerivedVendorReportedEchoSpacing": 0.000519999,
  "DeviceSerialNumber": "66112",
  "DwellTime": 2.7e-06,
  "EchoTime": 0.035,
  "EchoTrainLength": 39,
  "EffectiveEchoSpacing": 0.00026,
  "FlipAngle": 90,
  "HeudiconvVersion": "0.13.1",
  "ImageOrientationPatientDICOM": [0.989474, 0.144519, 0.00749702, -0.13959, 0.9395, 0.312818],
  "ImageOrientationText": "Tra>Cor(18.1)>Sag(-2.2)",
  "ImageType": [
    "ORIGINAL",
    "PRIMARY",
    "M",
    "ND",
    "NORM",
    "MOSAIC"
],
  "ImagingFrequency": 123.252,
  "InPlanePhaseEncodingDirectionDICOM": "COL",
  "InstitutionAddress": "Maynard 3,Hanover,NH,US,03755",
  "InstitutionName": "Dartmouth College - PBS",
  "InstitutionalDepartmentName": "Department",
  "MRAcquisitionType": "2D",
  "MagneticFieldStrength": 3,
  "Manufacturer": "Siemens",
  "ManufacturersModelName": "Prisma",
  "MatrixCoilMode": "GRAPPA",
  "Modality": "MR",
  "NonlinearGradientCorrection": false,
  "ParallelReductionFactorInPlane": 2,
  "PartialFourier": 1,
  "PatientPosition": "HFS",
  "PercentPhaseFOV": 100,
  "PercentSampling": 100,
  "PhaseEncodingDirection": "j-",
  "PhaseEncodingSteps": 79,
  "PhaseResolution": 1,
  "PixelBandwidth": 2315,
  "ProcedureStepDescription": "dbic^QA",
  "ProtocolName": "func-bold_task-rest_acq-p2",
  "PulseSequenceDetails": "%SiemensSeq%\\ep2d_bold",
  "ReceiveCoilActiveElements": "HEA;HEP",
  "ReceiveCoilName": "Head_32",
  "ReconMatrixPE": 80,
  "RefLinesPE": 24,
  "RepetitionTime": 2,
  "SAR": 0.0473205,
  "ScanOptions": "FS",
  "ScanningSequence": "EP",
  "SequenceName": "*epfid2d1_80",
  "SequenceVariant": "SK",
  "SeriesDescription": "func-bold_task-rest_acq-p2",
  "SeriesNumber": 5,
  "ShimSetting": [4145, -7697, -7531, 231, -73, -64, -33, 63],
  "SliceThickness": 3.5,
  "SliceTiming": [0.99, 0, 1.055, 0.065, 1.1225, 0.1325, 1.1875, 0.1975, 1.255, 0.265, 1.32, 0.33, 1.385, 0.395, 1.4525, 0.4625, 1.5175, 0.5275, 1.585, 0.595, 1.65, 0.66, 1.715, 0.725, 1.7825, 0.7925, 1.8475, 0.8575, 1.915, 0.925],
  "SoftwareVersions": "syngo MR E11",
  "SpacingBetweenSlices": 3.99,
  "StationName": "AWP66112",
  "TaskName": "rest",
  "TotalReadoutTime": 0.02054,
  "TxRefAmp": 218.434,
  "dcmmeta_affine": [
    [-2.96842098236084, -0.4187694489955902, -0.15227696299552917, 140.38494873046875],
    [-0.43355607986450195, 2.8184986114501953, 1.2391822338104248, -113.0023193359375],
    [0.022491056472063065, -0.9384549856185913, 3.78963565826416, -20.32306480407715],
    [0.0, 0.0, 0.0, 1.0]
],
  "dcmmeta_reorient_transform": [
    [0.0, -1.0, 0.0, 79.0],
    [1.0, 0.0, 0.0, 0.0],
    [0.0, 0.0, 1.0, 0.0],
    [0.0, 0.0, 0.0, 1.0]
],
  "dcmmeta_shape": [80, 80, 30, 200],
  "dcmmeta_slice_dim": 2,
  "dcmmeta_version": 0.6,
  "global": {
    "const": {
      "AccessionNumber": "qa",
      "AcquisitionMatrix": [80, 0, 0, 80],
      "AngioFlag": "N",
      "BitsAllocated": 16,
      "BitsStored": 12,
      "BodyPartExamined": "BRAIN",
      "Columns": 480,
      "EchoNumbers": 1,
      "EchoTime": 35.0,
      "EchoTrainLength": 39,
      "FlipAngle": 90.0,
      "HighBit": 11,
      "ImageOrientationPatient": [0.98947366890765, 0.14451869514944, 0.00749701878967, -0.1395898202863, 0.93949953379194, 0.31281833078831],
      "ImagePositionPatient": [-617.23246826693, -760.07000815383, -286.65021835264],
      "ImageType": [
        "ORIGINAL",
        "PRIMARY",
        "M",
        "ND",
        "NORM",
        "MOSAIC"
],
      "ImagedNucleus": "1H",
      "ImagingFrequency": 123.252389,
      "InPlanePhaseEncodingDirection": "COL",
      "MRAcquisitionType": "2D",
      "MagneticFieldStrength": 3.0,
      "Manufacturer": "SIEMENS",
      "ManufacturerModelName": "Prisma",
      "Modality": "MR",
      "NumberOfAverages": 1.0,
      "NumberOfPhaseEncodingSteps": 79,
      "PercentPhaseFieldOfView": 100.0,
      "PercentSampling": 100.0,
      "PerformedProcedureStepStartTime": "134300.512000",
      "PhotometricInterpretation": "MONOCHROME2",
      "PixelBandwidth": 2315.0,
      "PixelRepresentation": 0,
      "PixelSpacing": [3.0, 3.0],
      "ProtocolName": "func-bold_task-rest_acq-p2",
      "RepetitionTime": 2000.0,
      "Rows": 480,
      "SAR": 0.04732053383706,
      "SamplesPerPixel": 1,
      "ScanOptions": "FS",
      "ScanningSequence": "EP",
      "SequenceName": "*epfid2d1_80",
      "SequenceVariant": "SK",
      "SeriesDescription": "func-bold_task-rest_acq-p2",
      "SeriesNumber": 5,
      "SeriesTime": "134507.581000",
      "SliceLocation": -59.755608483899,
      "SliceThickness": 3.5,
      "SmallestImagePixelValue": 0,
      "SoftwareVersions": "syngo MR E11",
      "SpacingBetweenSlices": 3.9899999238718,
      "SpecificCharacterSet": "ISO_IR 100",
      "StudyID": "41",
      "StudyTime": "134300.423000",
      "TransmitCoilName": "Body",
      "VariableFlipAngleFlag": "N",
      "WindowCenterWidthExplanation": "Algo1",
      "dBdt": 0.0},
    "slices": {}
  },
  "time": {
    "samples": {
      "AcquisitionNumber": [1, 2, 3, 4, 5, 6, 7, 8, 9, 10, 11, 12, 13, 14, 15, 16, 17, 18, 19, 20, 21, 22, 23, 24, 25, 26, 27, 28, 29, 30, 31, 32, 33, 34, 35, 36, 37, 38, 39, 40, 41, 42, 43, 44, 45, 46, 47, 48, 49, 50, 51, 52, 53, 54, 55, 56, 57, 58, 59, 60, 61, 62, 63, 64, 65, 66, 67, 68, 69, 70, 71, 72, 73, 74, 75, 76, 77, 78, 79, 80, 81, 82, 83, 84, 85, 86, 87, 88, 89, 90, 91, 92, 93, 94, 95, 96, 97, 98, 99, 100, 101, 102, 103, 104, 105, 106, 107, 108, 109, 110, 111, 112, 113, 114, 115, 116, 117, 118, 119, 120, 121, 122, 123, 124, 125, 126, 127, 128, 129, 130, 131, 132, 133, 134, 135, 136, 137, 138, 139, 140, 141, 142, 143, 144, 145, 146, 147, 148, 149, 150, 151, 152, 153, 154, 155, 156, 157, 158, 159, 160, 161, 162, 163, 164, 165, 166, 167, 168, 169, 170, 171, 172, 173, 174, 175, 176, 177, 178, 179, 180, 181, 182, 183, 184, 185, 186, 187, 188, 189, 190, 191, 192, 193, 194, 195, 196, 197, 198, 199, 200],
      "AcquisitionTime": ["134424.212500", "134426.212500", "134428.212500", "134430.212500", "134432.212500", "134434.212500", "134436.212500", "134438.212500", "134440.212500", "134442.212500", "134444.212500", "134446.212500", "134448.212500", "134450.212500", "134452.212500", "134454.212500", "134456.212500", "134458.212500", "134500.212500", "134502.212500", "134504.212500", "134506.212500", "134508.212500", "134510.212500", "134512.212500", "134514.212500", "134516.212500", "134518.212500", "134520.212500", "134522.212500", "134524.212500", "134526.212500", "134528.212500", "134530.212500", "134532.212500", "134534.212500", "134536.212500", "134538.212500", "134540.212500", "134542.212500", "134544.212500", "134546.212500", "134548.212500", "134550.212500", "134552.212500", "134554.212500", "134556.212500", "134558.212500", "134600.212500", "134602.212500", "134604.212500", "134606.212500", "134608.212500", "134610.212500", "134612.212500", "134614.212500", "134616.212500", "134618.212500", "134620.212500", "134622.212500", "134624.212500", "134626.212500", "134628.212500", "134630.212500", "134632.212500", "134634.212500", "134636.212500", "134638.212500", "134640.212500", "134642.212500", "134644.212500", "134646.212500", "134648.212500", "134650.212500", "134652.212500", "134654.212500", "134656.212500", "134658.212500", "134700.212500", "134702.212500", "134704.212500", "134706.212500", "134708.212500", "134710.212500", "134712.212500", "134714.212500", "134716.212500", "134718.212500", "134720.212500", "134722.212500", "134724.212500", "134726.212500", "134728.212500", "134730.212500", "134732.212500", "134734.212500", "134736.212500", "134738.212500", "134740.212500", "134742.212500", "134744.212500", "134746.212500", "134748.212500", "134750.212500", "134752.212500", "134754.212500", "134756.212500", "134758.212500", "134800.212500", "134802.212500", "134804.212500", "134806.212500", "134808.212500", "134810.212500", "134812.212500", "134814.212500", "134816.212500", "134818.212500", "134820.212500", "134822.212500", "134824.212500", "134826.212500", "134828.212500", "134830.212500", "134832.212500", "134834.212500", "134836.212500", "134838.212500", "134840.212500", "134842.212500", "134844.212500", "134846.212500", "134848.212500", "134850.212500", "134852.212500", "134854.212500", "134856.212500", "134858.212500", "134900.212500", "134902.212500", "134904.212500", "134906.212500", "134908.212500", "134910.212500", "134912.212500", "134914.212500", "134916.212500", "134918.212500", "134920.212500", "134922.212500", "134924.212500", "134926.212500", "134928.212500", "134930.212500", "134932.212500", "134934.212500", "134936.212500", "134938.212500", "134940.212500", "134942.212500", "134944.212500", "134946.212500", "134948.212500", "134950.212500", "134952.212500", "134954.212500", "134956.212500", "134958.212500", "135000.212500", "135002.212500", "135004.212500", "135006.212500", "135008.212500", "135010.212500", "135012.212500", "135014.212500", "135016.212500", "135018.212500", "135020.212500", "135022.212500", "135024.212500", "135026.212500", "135028.212500", "135030.212500", "135032.212500", "135034.212500", "135036.212500", "135038.212500", "135040.212500", "135042.212500", "135044.212500", "135046.212500", "135048.212500", "135050.212500", "135052.212500", "135054.212500", "135056.212500", "135058.212500", "135100.212500", "135102.212500"],
      "ContentTime": ["134507.586000", "134507.590000", "134507.593000", "134507.595000", "134507.598000", "134507.601000", "134507.609000", "134507.612000", "134507.615000", "134507.617000", "134507.620000", "134507.623000", "134507.625000", "134507.628000", "134507.630000", "134507.633000", "134507.636000", "134507.638000", "134507.641000", "134507.643000", "134507.646000", "134547.579000", "134547.582000", "134547.585000", "134547.588000", "134547.590000", "134547.593000", "134547.607000", "134547.609000", "134547.612000", "134547.615000", "134547.617000", "134547.620000", "134547.622000", "134547.625000", "134547.628000", "134547.630000", "134547.633000", "134547.635000", "134547.638000", "134547.647000", "134627.579000", "134627.582000", "134627.585000", "134627.588000", "134627.590000", "134627.593000", "134627.596000", "134627.598000", "134627.613000", "134627.624000", "134627.626000", "134627.629000", "134627.631000", "134627.634000", "134627.637000", "134627.639000", "134627.642000", "134627.645000", "134627.647000", "134627.650000", "134707.579000", "134707.582000", "134707.585000", "134707.588000", "134707.590000", "134707.593000", "134707.596000", "134707.598000", "134707.601000", "134707.604000", "134707.606000", "134707.609000", "134707.611000", "134707.614000", "134707.617000", "134707.619000", "134707.622000", "134707.624000", "134707.627000", "134707.630000", "134727.579000", "134727.582000", "134727.585000", "134727.587000", "134727.590000", "134727.593000", "134727.595000", "134727.598000", "134727.601000", "134727.603000", "134807.579000", "134807.582000", "134807.585000", "134807.587000", "134807.590000", "134807.593000", "134807.595000", "134807.598000", "134807.601000", "134807.604000", "134807.606000", "134807.609000", "134807.611000", "134807.614000", "134807.617000", "134807.619000", "134807.622000", "134807.624000", "134807.632000", "134807.635000", "134847.579000", "134847.582000", "134847.585000", "134847.588000", "134847.590000", "134847.593000", "134847.596000", "134847.598000", "134847.601000", "134847.604000", "134847.606000", "134847.609000", "134847.612000", "134847.614000", "134847.617000", "134847.619000", "134847.622000", "134847.625000", "134847.627000", "134847.630000", "134927.579000", "134927.582000", "134927.585000", "134927.587000", "134927.590000", "134927.593000", "134927.595000", "134927.598000", "134927.601000", "134927.603000", "134927.606000", "134927.609000", "134927.611000", "134927.614000", "134927.617000", "134927.619000", "134927.622000", "134927.625000", "134927.627000", "134927.630000", "135007.579000", "135007.582000", "135007.585000", "135007.587000", "135007.590000", "135007.593000", "135007.596000", "135007.598000", "135007.601000", "135007.603000", "135007.606000", "135007.609000", "135007.619000", "135007.622000", "135007.624000", "135007.627000", "135007.630000", "135007.632000", "135007.635000", "135007.637000", "135047.580000", "135047.583000", "135047.586000", "135047.589000", "135047.591000", "135047.594000", "135047.597000", "135047.599000", "135047.602000", "135047.604000", "135047.607000", "135047.610000", "135047.612000", "135047.615000", "135047.617000", "135047.620000", "135047.623000", "135047.625000", "135047.628000", "135047.631000", "135104.028000", "135104.031000", "135104.034000", "135104.037000", "135104.040000", "135104.043000", "135104.045000", "135104.048000", "135104.051000"],
      "InstanceCreationTime": ["134507.586000", "134507.590000", "134507.593000", "134507.595000", "134507.598000", "134507.601000", "134507.609000", "134507.612000", "134507.615000", "134507.617000", "134507.620000", "134507.623000", "134507.625000", "134507.628000", "134507.630000", "134507.633000", "134507.636000", "134507.638000", "134507.641000", "134507.643000", "134507.646000", "134547.579000", "134547.582000", "134547.585000", "134547.588000", "134547.590000", "134547.593000", "134547.607000", "134547.609000", "134547.612000", "134547.615000", "134547.617000", "134547.620000", "134547.622000", "134547.625000", "134547.628000", "134547.630000", "134547.633000", "134547.635000", "134547.638000", "134547.647000", "134627.579000", "134627.582000", "134627.585000", "134627.588000", "134627.590000", "134627.593000", "134627.596000", "134627.598000", "134627.613000", "134627.624000", "134627.626000", "134627.629000", "134627.631000", "134627.634000", "134627.637000", "134627.639000", "134627.642000", "134627.645000", "134627.647000", "134627.650000", "134707.579000", "134707.582000", "134707.585000", "134707.588000", "134707.590000", "134707.593000", "134707.596000", "134707.598000", "134707.601000", "134707.604000", "134707.606000", "134707.609000", "134707.611000", "134707.614000", "134707.617000", "134707.619000", "134707.622000", "134707.624000", "134707.627000", "134707.630000", "134727.579000", "134727.582000", "134727.585000", "134727.587000", "134727.590000", "134727.593000", "134727.595000", "134727.598000", "134727.601000", "134727.603000", "134807.579000", "134807.582000", "134807.585000", "134807.587000", "134807.590000", "134807.593000", "134807.595000", "134807.598000", "134807.601000", "134807.604000", "134807.606000", "134807.609000", "134807.611000", "134807.614000", "134807.617000", "134807.619000", "134807.622000", "134807.624000", "134807.632000", "134807.635000", "134847.579000", "134847.582000", "134847.585000", "134847.588000", "134847.590000", "134847.593000", "134847.596000", "134847.598000", "134847.601000", "134847.604000", "134847.606000", "134847.609000", "134847.612000", "134847.614000", "134847.617000", "134847.619000", "134847.622000", "134847.625000", "134847.627000", "134847.630000", "134927.579000", "134927.582000", "134927.585000", "134927.587000", "134927.590000", "134927.593000", "134927.595000", "134927.598000", "134927.601000", "134927.603000", "134927.606000", "134927.609000", "134927.611000", "134927.614000", "134927.617000", "134927.619000", "134927.622000", "134927.625000", "134927.627000", "134927.630000", "135007.579000", "135007.582000", "135007.585000", "135007.587000", "135007.590000", "135007.593000", "135007.596000", "135007.598000", "135007.601000", "135007.603000", "135007.606000", "135007.609000", "135007.619000", "135007.622000", "135007.624000", "135007.627000", "135007.630000", "135007.632000", "135007.635000", "135007.637000", "135047.580000", "135047.583000", "135047.586000", "135047.589000", "135047.591000", "135047.594000", "135047.597000", "135047.599000", "135047.602000", "135047.604000", "135047.607000", "135047.610000", "135047.612000", "135047.615000", "135047.617000", "135047.620000", "135047.623000", "135047.625000", "135047.628000", "135047.631000", "135104.028000", "135104.031000", "135104.034000", "135104.037000", "135104.040000", "135104.043000", "135104.045000", "135104.048000", "135104.051000"],
      "InstanceNumber": [1, 2, 3, 4, 5, 6, 7, 8, 9, 10, 11, 12, 13, 14, 15, 16, 17, 18, 19, 20, 21, 22, 23, 24, 25, 26, 27, 28, 29, 30, 31, 32, 33, 34, 35, 36, 37, 38, 39, 40, 41, 42, 43, 44, 45, 46, 47, 48, 49, 50, 51, 52, 53, 54, 55, 56, 57, 58, 59, 60, 61, 62, 63, 64, 65, 66, 67, 68, 69, 70, 71, 72, 73, 74, 75, 76, 77, 78, 79, 80, 81, 82, 83, 84, 85, 86, 87, 88, 89, 90, 91, 92, 93, 94, 95, 96, 97, 98, 99, 100, 101, 102, 103, 104, 105, 106, 107, 108, 109, 110, 111, 112, 113, 114, 115, 116, 117, 118, 119, 120, 121, 122, 123, 124, 125, 126, 127, 128, 129, 130, 131, 132, 133, 134, 135, 136, 137, 138, 139, 140, 141, 142, 143, 144, 145, 146, 147, 148, 149, 150, 151, 152, 153, 154, 155, 156, 157, 158, 159, 160, 161, 162, 163, 164, 165, 166, 167, 168, 169, 170, 171, 172, 173, 174, 175, 176, 177, 178, 179, 180, 181, 182, 183, 184, 185, 186, 187, 188, 189, 190, 191, 192, 193, 194, 195, 196, 197, 198, 199, 200],
      "LargestImagePixelValue": [2323, 2321, 2326, 2327, 2330, 2329, 2324, 2331, 2330, 2325, 2317, 2334, 2325, 2322, 2329, 2324, 2321, 2322, 2318, 2322, 2320, 2327, 2326, 2324, 2330, 2329, 2325, 2325, 2321, 2328, 2326, 2326, 2322, 2332, 2327, 2317, 2324, 2325, 2319, 2320, 2317, 2321, 2326, 2323, 2326, 2324, 2328, 2321, 2321, 2327, 2326, 2322, 2327, 2324, 2324, 2324, 2325, 2324, 2324, 2329, 2319, 2319, 2321, 2321, 2323, 2328, 2319, 2322, 2318, 2327, 2321, 2318, 2322, 2320, 2320, 2320, 2324, 2324, 2317, 2315, 2318, 2328, 2319, 2325, 2324, 2327, 2319, 2323, 2332, 2321, 2322, 2320, 2327, 2317, 2321, 2325, 2326, 2319, 2324, 2319, 2316, 2318, 2324, 2324, 2329, 2330, 2327, 2322, 2317, 2318, 2320, 2322, 2321, 2323, 2317, 2326, 2319, 2323, 2320, 2320, 2320, 2320, 2317, 2321, 2324, 2317, 2319, 2328, 2315, 2324, 2322, 2317, 2320, 2323, 2322, 2318, 2319, 2317, 2321, 2320, 2330, 2329, 2317, 2316, 2316, 2320, 2326, 2312, 2321, 2314, 2314, 2322, 2321, 2322, 2315, 2318, 2321, 2313, 2323, 2316, 2319, 2319, 2327, 2324, 2307, 2318, 2318, 2320, 2311, 2310, 2316, 2322, 2329, 2316, 2313, 2313, 2322, 2316, 2313, 2325, 2329, 2322, 2320, 2318, 2313, 2311, 2320, 2322, 2320, 2327, 2318, 2314, 2319, 2320, 2314, 2328, 2313, 2318, 2319, 2317],
      "WindowCenter": [1056.0, 1056.0, 1056.0, 1056.0, 1056.0, 1056.0, 1056.0, 1056.0, 1056.0, 1056.0, 1056.0, 1056.0, 1056.0, 1056.0, 1056.0, 1056.0, 1056.0, 1056.0, 1056.0, 1056.0, 1056.0, 1057.0, 1056.0, 1056.0, 1056.0, 1056.0, 1056.0, 1056.0, 1056.0, 1056.0, 1056.0, 1056.0, 1056.0, 1056.0, 1056.0, 1056.0, 1056.0, 1056.0, 1056.0, 1056.0, 1056.0, 1056.0, 1056.0, 1056.0, 1056.0, 1056.0, 1056.0, 1056.0, 1056.0, 1056.0, 1056.0, 1056.0, 1056.0, 1056.0, 1056.0, 1056.0, 1056.0, 1056.0, 1056.0, 1056.0, 1056.0, 1056.0, 1056.0, 1056.0, 1056.0, 1056.0, 1056.0, 1056.0, 1056.0, 1056.0, 1056.0, 1056.0, 1056.0, 1056.0, 1056.0, 1056.0, 1056.0, 1056.0, 1056.0, 1056.0, 1056.0, 1056.0, 1056.0, 1056.0, 1056.0, 1056.0, 1056.0, 1056.0, 1056.0, 1056.0, 1056.0, 1056.0, 1056.0, 1056.0, 1056.0, 1056.0, 1056.0, 1056.0, 1056.0, 1056.0, 1056.0, 1056.0, 1056.0, 1056.0, 1056.0, 1056.0, 1056.0, 1056.0, 1056.0, 1056.0, 1056.0, 1056.0, 1056.0, 1055.0, 1056.0, 1055.0, 1056.0, 1056.0, 1055.0, 1056.0, 1056.0, 1056.0, 1057.0, 1055.0, 1055.0, 1056.0, 1055.0, 1056.0, 1055.0, 1056.0, 1056.0, 1055.0, 1055.0, 1055.0, 1055.0, 1055.0, 1055.0, 1055.0, 1055.0, 1056.0, 1055.0, 1055.0, 1055.0, 1055.0, 1055.0, 1055.0, 1056.0, 1056.0, 1055.0, 1056.0, 1055.0, 1056.0, 1055.0, 1055.0, 1055.0, 1055.0, 1055.0, 1055.0, 1055.0, 1055.0, 1055.0, 1055.0, 1055.0, 1055.0, 1055.0, 1055.0, 1055.0, 1055.0, 1055.0, 1055.0, 1055.0, 1055.0, 1055.0, 1055.0, 1055.0, 1055.0, 1055.0, 1055.0, 1055.0, 1055.0, 1055.0, 1056.0, 1055.0, 1055.0, 1055.0, 1055.0, 1055.0, 1055.0, 1055.0, 1055.0, 1055.0, 1055.0, 1056.0, 1055.0, 1055.0, 1055.0, 1055.0, 1055.0, 1055.0, 1056.0],
      "WindowWidth": [2373.0, 2373.0, 2373.0, 2372.0, 2373.0, 2372.0, 2373.0, 2372.0, 2372.0, 2372.0, 2373.0, 2373.0, 2373.0, 2373.0, 2373.0, 2373.0, 2373.0, 2373.0, 2373.0, 2373.0, 2373.0, 2373.0, 2373.0, 2373.0, 2373.0, 2373.0, 2373.0, 2373.0, 2373.0, 2373.0, 2373.0, 2373.0, 2373.0, 2373.0, 2373.0, 2373.0, 2373.0, 2373.0, 2373.0, 2373.0, 2373.0, 2373.0, 2373.0, 2373.0, 2373.0, 2373.0, 2373.0, 2373.0, 2373.0, 2373.0, 2373.0, 2373.0, 2373.0, 2373.0, 2373.0, 2373.0, 2373.0, 2373.0, 2373.0, 2372.0, 2372.0, 2372.0, 2372.0, 2373.0, 2373.0, 2373.0, 2372.0, 2372.0, 2372.0, 2372.0, 2372.0, 2372.0, 2373.0, 2372.0, 2372.0, 2372.0, 2372.0, 2372.0, 2372.0, 2372.0, 2372.0, 2372.0, 2372.0, 2372.0, 2372.0, 2372.0, 2372.0, 2372.0, 2372.0, 2372.0, 2372.0, 2372.0, 2372.0, 2372.0, 2372.0, 2372.0, 2372.0, 2372.0, 2372.0, 2372.0, 2372.0, 2372.0, 2372.0, 2372.0, 2372.0, 2372.0, 2372.0, 2372.0, 2372.0, 2372.0, 2372.0, 2372.0, 2372.0, 2372.0, 2372.0, 2372.0, 2372.0, 2372.0, 2372.0, 2372.0, 2372.0, 2372.0, 2373.0, 2372.0, 2372.0, 2372.0, 2372.0, 2372.0, 2372.0, 2372.0, 2372.0, 2372.0, 2372.0, 2372.0, 2372.0, 2372.0, 2372.0, 2372.0, 2372.0, 2372.0, 2372.0, 2372.0, 2372.0, 2372.0, 2371.0, 2372.0, 2372.0, 2372.0, 2372.0, 2373.0, 2372.0, 2372.0, 2371.0, 2372.0, 2372.0, 2372.0, 2371.0, 2371.0, 2372.0, 2371.0, 2372.0, 2371.0, 2371.0, 2371.0, 2371.0, 2371.0, 2371.0, 2371.0, 2372.0, 2371.0, 2371.0, 2372.0, 2372.0, 2371.0, 2371.0, 2371.0, 2372.0, 2372.0, 2372.0, 2372.0, 2372.0, 2373.0, 2372.0, 2372.0, 2372.0, 2372.0, 2371.0, 2372.0, 2372.0, 2372.0, 2371.0, 2372.0, 2373.0, 2372.0, 2372.0, 2372.0, 2372.0, 2372.0, 2372.0, 2372.0]
    },
    "slices": {}
  }
}