{
  "AcquisitionMatrixPE": 80,
  "AcquisitionNumber": 1,
  "AcquisitionTime": "12:14:21.085000",
  "BandwidthPerPixelPhaseEncode": 44.643,
  "BaseResolution": 80,
  "BodyPartExamined": "BRAIN",
  "ConsistencyInfo": "N4_VE11C_LATEST_20160120",
  "ConversionSoftware": "dcm2niix",
  "ConversionSoftwareVersion": "v1.0.20170923 (OpenJPEG build) GCC6.3.0",
  "DerivedVendorReportedEchoSpacing": 0.000559998,
  "DeviceSerialNumber": "66112",
  "DwellTime": 2.7e-06,
  "EchoTime": 0.035,
  "EchoTrainLength": 39,
  "EffectiveEchoSpacing": 0.000279999,
  "FlipAngle": 90,
  "ImageType": [
    "ORIGINAL",
    "PRIMARY",
    "M",
    "ND",
    "NORM",
    "MOSAIC"
],
  "InstitutionAddress": "Maynard_3_Hanover_NH_US_03755",
  "InstitutionName": "Dartmouth_College_-_PBS",
  "MagneticFieldStrength": 3,
  "Manufacturer": "Siemens",
  "ManufacturersModelName": "Prisma",
  "Modality": "MR",
  "MultibandAccelerationFactor": 4,
  "ParallelReductionFactorInPlane": 2,
  "PartialFourier": 1,
  "PercentPhaseFOV": 100,
  "PhaseEncodingDirection": "j-",
  "PhaseEncodingSteps": 79,
  "PhaseResolution": 1,
  "ProcedureStepDescription": "dbic_QA",
  "ProtocolName": "func-bold_task-rest_acq-p2-s4-3.5mm",
  "PulseSequenceDetails": "%SiemensSeq%_ep2d_bold",
  "ReceiveCoilActiveElements": "HEA;HEP",
  "ReceiveCoilName": "Head_32",
  "ReconMatrixPE": 80,
  "RepetitionTime": 2,
  "ScanOptions": "FS",
  "ScanningSequence": "EP",
  "SequenceName": "_epfid2d1_80",
  "SequenceVariant": "SK",
  "SeriesDescription": "func-bold_task-rest_acq-p2-s4-3.5mm",
  "SliceTiming": [1.485, 0, 0.99, 0.2475, 1.2375, 0.7425, 1.7325, 0.495, 1.485, 0, 0.99, 0.2475, 1.2375, 0.7425, 1.7325, 0.495, 1.485, 0, 0.99, 0.2475, 1.2375, 0.7425, 1.7325, 0.495, 1.485, 0, 0.99, 0.2475, 1.2375, 0.7425, 1.7325, 0.495],
  "SoftwareVersions": "syngo_MR_E11",
  "StationName": "AWP66112",
  "TaskName": "rest",
  "TotalReadoutTime": 0.0221199,
  "dcmmeta_affine": [
    [-2.9496262073516846, -0.5317845940589905, -0.17295360565185547, 144.8430633544922],
    [-0.5460084080696106, 2.8058972358703613, 1.2108231782913208, -102.3484115600586],
    [0.03975113108754158, -0.9187743663787842, 3.7979066371917725, -19.62795066833496],
    [0.0, 0.0, 0.0, 1.0]
],
  "dcmmeta_reorient_transform": [
    [0.0, -1.0, 0.0, 79.0],
    [1.0, 0.0, 0.0, 0.0],
    [0.0, 0.0, 1.0, 0.0],
    [0.0, 0.0, 0.0, 1.0]
],
  "dcmmeta_shape": [80, 80, 32, 200],
  "dcmmeta_slice_dim": 2,
  "dcmmeta_version": 0.6,
  "global": {
    "const": {
      "AccessionNumber": "qa",
      "AcquisitionMatrix": [80, 0, 0, 80],
      "AngioFlag": "N",
      "BitsAllocated": 16,
      "BitsStored": 12,
      "BodyPartExamined": "BRAIN",
      "Columns": 480,
      "EchoNumbers": 1,
      "EchoTime": 35.0,
      "EchoTrainLength": 39,
      "FlipAngle": 90.0,
      "HighBit": 11,
      "ImageOrientationPatient": [0.98320873181935, 0.18200279443709, 0.01325037702363, -0.1772615219777, 0.93529904894231, 0.30625812948192],
      "ImagePositionPatient": [-586.40040834903, -789.69857250294, -283.9162304274],
      "ImageType": [
        "ORIGINAL",
        "PRIMARY",
        "M",
        "ND",
        "NORM",
        "MOSAIC"
],
      "ImagedNucleus": "1H",
      "ImagingFrequency": 123.252467,
      "InPlanePhaseEncodingDirection": "COL",
      "MRAcquisitionType": "2D",
      "MagneticFieldStrength": 3.0,
      "Manufacturer": "SIEMENS",
      "ManufacturerModelName": "Prisma",
      "Modality": "MR",
      "NumberOfAverages": 1.0,
      "NumberOfPhaseEncodingSteps": 79,
      "PercentPhaseFieldOfView": 100.0,
      "PercentSampling": 100.0,
      "PerformedProcedureStepStartTime": "115809.715000",
      "PhotometricInterpretation": "MONOCHROME2",
      "PixelBandwidth": 2315.0,
      "PixelRepresentation": 0,
      "PixelSpacing": [3.0, 3.0],
      "PositionReferenceIndicator": "",
      "ProtocolName": "func-bold_task-rest_acq-p2-s4-3.5mm",
      "RepetitionTime": 2000.0,
      "Rows": 480,
      "SAR": 0.02084944275173,
      "SamplesPerPixel": 1,
      "ScanOptions": "FS",
      "ScanningSequence": "EP",
      "SequenceName": "*epfid2d1_80",
      "SequenceVariant": "SK",
      "SeriesDescription": "func-bold_task-rest_acq-p2-s4-3.5mm",
      "SeriesNumber": 7,
      "SeriesTime": "121507.189000",
      "SliceLocation": -56.020569680117,
      "SliceThickness": 3.5,
      "SmallestImagePixelValue": 0,
      "SoftwareVersions": "syngo MR E11",
      "SpacingBetweenSlices": 3.9899999838158,
      "SpecificCharacterSet": "ISO_IR 100",
      "StudyID": "1",
      "StudyTime": "115809.655000",
      "TransmitCoilName": "Body",
      "VariableFlipAngleFlag": "N",
      "WindowCenterWidthExplanation": "Algo1",
      "dBdt": 0.0},
    "slices": {}
  },
  "time": {
    "samples": {
      "AcquisitionNumber": [1, 2, 3, 4, 5, 6, 7, 8, 9, 10, 11, 12, 13, 14, 15, 16, 17, 18, 19, 20, 21, 22, 23, 24, 25, 26, 27, 28, 29, 30, 31, 32, 33, 34, 35, 36, 37, 38, 39, 40, 41, 42, 43, 44, 45, 46, 47, 48, 49, 50, 51, 52, 53, 54, 55, 56, 57, 58, 59, 60, 61, 62, 63, 64, 65, 66, 67, 68, 69, 70, 71, 72, 73, 74, 75, 76, 77, 78, 79, 80, 81, 82, 83, 84, 85, 86, 87, 88, 89, 90, 91, 92, 93, 94, 95, 96, 97, 98, 99, 100, 101, 102, 103, 104, 105, 106, 107, 108, 109, 110, 111, 112, 113, 114, 115, 116, 117, 118, 119, 120, 121, 122, 123, 124, 125, 126, 127, 128, 129, 130, 131, 132, 133, 134, 135, 136, 137, 138, 139, 140, 141, 142, 143, 144, 145, 146, 147, 148, 149, 150, 151, 152, 153, 154, 155, 156, 157, 158, 159, 160, 161, 162, 163, 164, 165, 166, 167, 168, 169, 170, 171, 172, 173, 174, 175, 176, 177, 178, 179, 180, 181, 182, 183, 184, 185, 186, 187, 188, 189, 190, 191, 192, 193, 194, 195, 196, 197, 198, 199, 200],
      "AcquisitionTime": ["121421.085000", "121423.085000", "121425.085000", "121427.085000", "121429.085000", "121431.085000", "121433.085000", "121435.085000", "121437.085000", "121439.085000", "121441.085000", "121443.085000", "121445.085000", "121447.085000", "121449.085000", "121451.085000", "121453.085000", "121455.085000", "121457.085000", "121459.085000", "121501.085000", "121503.085000", "121505.085000", "121507.085000", "121509.085000", "121511.085000", "121513.085000", "121515.085000", "121517.085000", "121519.085000", "121521.085000", "121523.085000", "121525.085000", "121527.085000", "121529.085000", "121531.085000", "121533.085000", "121535.085000", "121537.085000", "121539.085000", "121541.085000", "121543.085000", "121545.085000", "121547.085000", "121549.085000", "121551.085000", "121553.085000", "121555.085000", "121557.085000", "121559.085000", "121601.085000", "121603.085000", "121605.085000", "121607.085000", "121609.085000", "121611.085000", "121613.085000", "121615.085000", "121617.085000", "121619.085000", "121621.085000", "121623.085000", "121625.085000", "121627.085000", "121629.085000", "121631.085000", "121633.085000", "121635.085000", "121637.085000", "121639.085000", "121641.085000", "121643.085000", "121645.085000", "121647.085000", "121649.085000", "121651.085000", "121653.085000", "121655.085000", "121657.085000", "121659.085000", "121701.085000", "121703.085000", "121705.085000", "121707.085000", "121709.085000", "121711.085000", "121713.085000", "121715.085000", "121717.085000", "121719.085000", "121721.085000", "121723.085000", "121725.085000", "121727.085000", "121729.085000", "121731.085000", "121733.085000", "121735.085000", "121737.085000", "121739.085000", "121741.085000", "121743.085000", "121745.085000", "121747.085000", "121749.085000", "121751.085000", "121753.085000", "121755.085000", "121757.085000", "121759.085000", "121801.085000", "121803.085000", "121805.085000", "121807.085000", "121809.085000", "121811.085000", "121813.085000", "121815.085000", "121817.085000", "121819.085000", "121821.085000", "121823.085000", "121825.085000", "121827.085000", "121829.085000", "121831.085000", "121833.085000", "121835.085000", "121837.085000", "121839.085000", "121841.085000", "121843.085000", "121845.085000", "121847.085000", "121849.085000", "121851.085000", "121853.085000", "121855.085000", "121857.085000", "121859.085000", "121901.085000", "121903.085000", "121905.085000", "121907.085000", "121909.085000", "121911.085000", "121913.085000", "121915.085000", "121917.085000", "121919.085000", "121921.085000", "121923.085000", "121925.085000", "121927.085000", "121929.085000", "121931.085000", "121933.085000", "121935.085000", "121937.085000", "121939.085000", "121941.085000", "121943.085000", "121945.085000", "121947.085000", "121949.085000", "121951.085000", "121953.085000", "121955.085000", "121957.085000", "121959.085000", "122001.085000", "122003.085000", "122005.085000", "122007.085000", "122009.085000", "122011.085000", "122013.085000", "122015.085000", "122017.085000", "122019.085000", "122021.085000", "122023.085000", "122025.085000", "122027.085000", "122029.085000", "122031.085000", "122033.085000", "122035.085000", "122037.085000", "122039.085000", "122041.085000", "122043.085000", "122045.085000", "122047.085000", "122049.085000", "122051.085000", "122053.085000", "122055.085000", "122057.085000", "122059.085000"],
      "ContentTime": ["121507.192000", "121507.196000", "121507.198000", "121507.201000", "121507.204000", "121507.206000", "121507.209000", "121507.211000", "121507.214000", "121507.217000", "121507.219000", "121507.222000", "121507.224000", "121507.227000", "121507.229000", "121507.232000", "121507.235000", "121507.245000", "121507.248000", "121507.250000", "121507.253000", "121507.270000", "121507.272000", "121547.187000", "121547.190000", "121547.193000", "121547.196000", "121547.198000", "121547.201000", "121547.203000", "121547.206000", "121547.209000", "121547.211000", "121547.214000", "121547.216000", "121547.219000", "121547.222000", "121547.224000", "121547.227000", "121547.229000", "121547.237000", "121547.240000", "121547.242000", "121627.187000", "121627.190000", "121627.193000", "121627.195000", "121627.198000", "121627.201000", "121627.203000", "121627.206000", "121627.209000", "121627.211000", "121627.214000", "121627.216000", "121627.219000", "121627.221000", "121627.224000", "121627.226000", "121627.229000", "121627.232000", "121627.234000", "121627.237000", "121707.189000", "121707.191000", "121707.194000", "121707.197000", "121707.199000", "121707.202000", "121707.205000", "121707.207000", "121707.210000", "121707.212000", "121707.215000", "121707.217000", "121707.220000", "121707.223000", "121707.225000", "121707.228000", "121707.230000", "121707.233000", "121707.235000", "121707.238000", "121747.188000", "121747.191000", "121747.194000", "121747.196000", "121747.199000", "121747.202000", "121747.204000", "121747.207000", "121747.210000", "121747.212000", "121747.215000", "121747.217000", "121747.220000", "121747.223000", "121747.225000", "121747.228000", "121747.230000", "121747.233000", "121747.235000", "121747.238000", "121827.187000", "121827.190000", "121827.193000", "121827.195000", "121827.198000", "121827.201000", "121827.203000", "121827.206000", "121827.209000", "121827.211000", "121827.214000", "121827.216000", "121827.219000", "121827.222000", "121827.224000", "121827.227000", "121827.229000", "121827.232000", "121827.234000", "121827.237000", "121907.188000", "121907.190000", "121907.193000", "121907.196000", "121907.199000", "121907.201000", "121907.204000", "121907.206000", "121907.209000", "121907.212000", "121907.214000", "121907.217000", "121907.219000", "121907.222000", "121907.224000", "121907.227000", "121907.230000", "121907.232000", "121907.235000", "121907.237000", "121947.187000", "121947.190000", "121947.193000", "121947.196000", "121947.198000", "121947.201000", "121947.204000", "121947.206000", "121947.209000", "121947.212000", "121947.214000", "121947.217000", "121947.219000", "121947.222000", "121947.224000", "121947.227000", "121947.230000", "121947.232000", "121947.235000", "121947.237000", "122027.187000", "122027.190000", "122027.193000", "122027.195000", "122027.198000", "122027.201000", "122027.203000", "122027.214000", "122027.217000", "122027.219000", "122027.222000", "122027.225000", "122027.227000", "122027.230000", "122027.232000", "122027.235000", "122027.237000", "122027.240000", "122027.243000", "122027.245000", "122059.665000", "122059.668000", "122059.670000", "122059.673000", "122059.676000", "122059.679000", "122059.681000", "122059.684000", "122059.687000", "122059.689000", "122059.692000", "122059.695000", "122059.704000", "122059.707000", "122059.711000", "122059.715000", "122059.722000"],
      "InstanceCreationTime": ["121507.192000", "121507.196000", "121507.198000", "121507.201000", "121507.204000", "121507.206000", "121507.209000", "121507.211000", "121507.214000", "121507.217000", "121507.219000", "121507.222000", "121507.224000", "121507.227000", "121507.229000", "121507.232000", "121507.235000", "121507.245000", "121507.248000", "121507.250000", "121507.253000", "121507.270000", "121507.272000", "121547.187000", "121547.190000", "121547.193000", "121547.196000", "121547.198000", "121547.201000", "121547.203000", "121547.206000", "121547.209000", "121547.211000", "121547.214000", "121547.216000", "121547.219000", "121547.222000", "121547.224000", "121547.227000", "121547.229000", "121547.237000", "121547.240000", "121547.242000", "121627.187000", "121627.190000", "121627.193000", "121627.195000", "121627.198000", "121627.201000", "121627.203000", "121627.206000", "121627.209000", "121627.211000", "121627.214000", "121627.216000", "121627.219000", "121627.221000", "121627.224000", "121627.226000", "121627.229000", "121627.232000", "121627.234000", "121627.237000", "121707.189000", "121707.191000", "121707.194000", "121707.197000", "121707.199000", "121707.202000", "121707.205000", "121707.207000", "121707.210000", "121707.212000", "121707.215000", "121707.217000", "121707.220000", "121707.223000", "121707.225000", "121707.228000", "121707.230000", "121707.233000", "121707.235000", "121707.238000", "121747.188000", "121747.191000", "121747.194000", "121747.196000", "121747.199000", "121747.202000", "121747.204000", "121747.207000", "121747.210000", "121747.212000", "121747.215000", "121747.217000", "121747.220000", "121747.223000", "121747.225000", "121747.228000", "121747.230000", "121747.233000", "121747.235000", "121747.238000", "121827.187000", "121827.190000", "121827.193000", "121827.195000", "121827.198000", "121827.201000", "121827.203000", "121827.206000", "121827.209000", "121827.211000", "121827.214000", "121827.216000", "121827.219000", "121827.222000", "121827.224000", "121827.227000", "121827.229000", "121827.232000", "121827.234000", "121827.237000", "121907.188000", "121907.190000", "121907.193000", "121907.196000", "121907.199000", "121907.201000", "121907.204000", "121907.206000", "121907.209000", "121907.212000", "121907.214000", "121907.217000", "121907.219000", "121907.222000", "121907.224000", "121907.227000", "121907.230000", "121907.232000", "121907.235000", "121907.237000", "121947.187000", "121947.190000", "121947.193000", "121947.196000", "121947.198000", "121947.201000", "121947.204000", "121947.206000", "121947.209000", "121947.212000", "121947.214000", "121947.217000", "121947.219000", "121947.222000", "121947.224000", "121947.227000", "121947.230000", "121947.232000", "121947.235000", "121947.237000", "122027.187000", "122027.190000", "122027.193000", "122027.195000", "122027.198000", "122027.201000", "122027.203000", "122027.214000", "122027.217000", "122027.219000", "122027.222000", "122027.225000", "122027.227000", "122027.230000", "122027.232000", "122027.235000", "122027.237000", "122027.240000", "122027.243000", "122027.245000", "122059.665000", "122059.668000", "122059.670000", "122059.673000", "122059.676000", "122059.679000", "122059.681000", "122059.684000", "122059.687000", "122059.689000", "122059.692000", "122059.695000", "122059.704000", "122059.707000", "122059.711000", "122059.715000", "122059.722000"],
      "InstanceNumber": [1, 2, 3, 4, 5, 6, 7, 8, 9, 10, 11, 12, 13, 14, 15, 16, 17, 18, 19, 20, 21, 22, 23, 24, 25, 26, 27, 28, 29, 30, 31, 32, 33, 34, 35, 36, 37, 38, 39, 40, 41, 42, 43, 44, 45, 46, 47, 48, 49, 50, 51, 52, 53, 54, 55, 56, 57, 58, 59, 60, 61, 62, 63, 64, 65, 66, 67, 68, 69, 70, 71, 72, 73, 74, 75, 76, 77, 78, 79, 80, 81, 82, 83, 84, 85, 86, 87, 88, 89, 90, 91, 92, 93, 94, 95, 96, 97, 98, 99, 100, 101, 102, 103, 104, 105, 106, 107, 108, 109, 110, 111, 112, 113, 114, 115, 116, 117, 118, 119, 120, 121, 122, 123, 124, 125, 126, 127, 128, 129, 130, 131, 132, 133, 134, 135, 136, 137, 138, 139, 140, 141, 142, 143, 144, 145, 146, 147, 148, 149, 150, 151, 152, 153, 154, 155, 156, 157, 158, 159, 160, 161, 162, 163, 164, 165, 166, 167, 168, 169, 170, 171, 172, 173, 174, 175, 176, 177, 178, 179, 180, 181, 182, 183, 184, 185, 186, 187, 188, 189, 190, 191, 192, 193, 194, 195, 196, 197, 198, 199, 200],
      "LargestImagePixelValue": [2035, 2035, 2031, 2038, 2035, 2038, 2033, 2037, 2039, 2042, 2039, 2040, 2042, 2038, 2042, 2038, 2041, 2037, 2044, 2039, 2041, 2038, 2040, 2039, 2043, 2036, 2045, 2036, 2036, 2038, 2034, 2040, 2041, 2044, 2036, 2039, 2038, 2041, 2037, 2042, 2036, 2040, 2040, 2042, 2038, 2036, 2043, 2040, 2041, 2038, 2041, 2039, 2038, 2044, 2040, 2040, 2039, 2044, 2040, 2037, 2036, 2038, 2038, 2045, 2038, 2039, 2038, 2038, 2040, 2039, 2044, 2039, 2039, 2042, 2044, 2040, 2040, 2043, 2042, 2043, 2041, 2039, 2041, 2039, 2043, 2042, 2041, 2039, 2042, 2041, 2044, 2038, 2043, 2037, 2037, 2040, 2040, 2037, 2040, 2045, 2042, 2040, 2041, 2037, 2041, 2041, 2042, 2039, 2039, 2037, 2040, 2041, 2039, 2037, 2041, 2038, 2042, 2039, 2038, 2042, 2039, 2045, 2041, 2040, 2039, 2041, 2043, 2043, 2044, 2041, 2041, 2046, 2039, 2040, 2042, 2043, 2039, 2039, 2039, 2035, 2038, 2040, 2046, 2039, 2039, 2038, 2044, 2036, 2044, 2042, 2040, 2039, 2044, 2037, 2039, 2041, 2042, 2041, 2045, 2039, 2039, 2040, 2040, 2044, 2042, 2043, 2042, 2046, 2041, 2040, 2043, 2041, 2042, 2041, 2046, 2040, 2041, 2037, 2042, 2043, 2045, 2043, 2041, 2037, 2044, 2042, 2042, 2042, 2038, 2042, 2040, 2045, 2037, 2041, 2041, 2043, 2040, 2037, 2039, 2041],
      "WindowCenter": [912.0, 912.0, 912.0, 912.0, 912.0, 912.0, 912.0, 912.0, 912.0, 912.0, 912.0, 912.0, 912.0, 912.0, 912.0, 912.0, 912.0, 912.0, 912.0, 912.0, 912.0, 912.0, 912.0, 912.0, 912.0, 912.0, 912.0, 912.0, 912.0, 912.0, 912.0, 912.0, 912.0, 912.0, 912.0, 912.0, 912.0, 912.0, 912.0, 912.0, 912.0, 912.0, 912.0, 912.0, 912.0, 912.0, 912.0, 912.0, 912.0, 912.0, 912.0, 912.0, 912.0, 912.0, 912.0, 912.0, 912.0, 912.0, 912.0, 912.0, 912.0, 912.0, 912.0, 912.0, 912.0, 912.0, 912.0, 912.0, 912.0, 912.0, 912.0, 912.0, 913.0, 912.0, 912.0, 912.0, 912.0, 912.0, 912.0, 912.0, 912.0, 912.0, 912.0, 912.0, 912.0, 912.0, 912.0, 912.0, 912.0, 912.0, 912.0, 912.0, 912.0, 912.0, 912.0, 912.0, 912.0, 912.0, 912.0, 912.0, 912.0, 912.0, 912.0, 912.0, 912.0, 912.0, 912.0, 912.0, 912.0, 912.0, 912.0, 912.0, 912.0, 912.0, 912.0, 912.0, 912.0, 912.0, 912.0, 912.0, 912.0, 912.0, 912.0, 912.0, 912.0, 912.0, 912.0, 912.0, 912.0, 912.0, 912.0, 912.0, 912.0, 912.0, 912.0, 912.0, 912.0, 912.0, 912.0, 912.0, 912.0, 912.0, 912.0, 912.0, 912.0, 912.0, 912.0, 912.0, 912.0, 912.0, 912.0, 912.0, 912.0, 912.0, 912.0, 912.0, 912.0, 912.0, 912.0, 912.0, 912.0, 912.0, 912.0, 912.0, 912.0, 912.0, 912.0, 912.0, 912.0, 912.0, 912.0, 912.0, 912.0, 912.0, 912.0, 912.0, 912.0, 912.0, 912.0, 912.0, 912.0, 912.0, 912.0, 912.0, 912.0, 912.0, 912.0, 912.0, 912.0, 912.0, 912.0, 912.0, 912.0, 912.0, 912.0, 912.0, 912.0, 912.0, 912.0, 912.0],
      "WindowWidth": [2064.0, 2064.0, 2064.0, 2064.0, 2064.0, 2064.0, 2064.0, 2064.0, 2064.0, 2064.0, 2064.0, 2064.0, 2064.0, 2064.0, 2064.0, 2064.0, 2064.0, 2064.0, 2064.0, 2064.0, 2064.0, 2064.0, 2064.0, 2064.0, 2064.0, 2064.0, 2064.0, 2064.0, 2064.0, 2064.0, 2064.0, 2064.0, 2064.0, 2064.0, 2064.0, 2064.0, 2064.0, 2064.0, 2064.0, 2064.0, 2064.0, 2064.0, 2064.0, 2064.0, 2064.0, 2065.0, 2064.0, 2064.0, 2064.0, 2064.0, 2064.0, 2064.0, 2064.0, 2064.0, 2065.0, 2064.0, 2064.0, 2065.0, 2065.0, 2064.0, 2064.0, 2064.0, 2064.0, 2064.0, 2065.0, 2064.0, 2065.0, 2065.0, 2065.0, 2065.0, 2064.0, 2065.0, 2066.0, 2065.0, 2065.0, 2064.0, 2064.0, 2065.0, 2065.0, 2065.0, 2065.0, 2065.0, 2064.0, 2064.0, 2064.0, 2065.0, 2065.0, 2064.0, 2064.0, 2065.0, 2065.0, 2064.0, 2064.0, 2065.0, 2065.0, 2064.0, 2065.0, 2065.0, 2065.0, 2064.0, 2065.0, 2065.0, 2065.0, 2065.0, 2065.0, 2064.0, 2065.0, 2064.0, 2065.0, 2064.0, 2065.0, 2065.0, 2065.0, 2065.0, 2065.0, 2065.0, 2065.0, 2065.0, 2065.0, 2065.0, 2065.0, 2065.0, 2065.0, 2065.0, 2065.0, 2065.0, 2065.0, 2065.0, 2065.0, 2065.0, 2065.0, 2065.0, 2065.0, 2065.0, 2065.0, 2065.0, 2065.0, 2064.0, 2065.0, 2065.0, 2065.0, 2065.0, 2065.0, 2065.0, 2065.0, 2065.0, 2065.0, 2065.0, 2065.0, 2065.0, 2065.0, 2065.0, 2065.0, 2065.0, 2065.0, 2065.0, 2065.0, 2064.0, 2065.0, 2065.0, 2065.0, 2065.0, 2065.0, 2064.0, 2065.0, 2065.0, 2065.0, 2065.0, 2065.0, 2065.0, 2065.0, 2065.0, 2065.0, 2064.0, 2065.0, 2065.0, 2064.0, 2065.0, 2064.0, 2065.0, 2065.0, 2064.0, 2065.0, 2065.0, 2065.0, 2065.0, 2065.0, 2064.0, 2065.0, 2065.0, 2065.0, 2065.0, 2065.0, 2065.0, 2065.0, 2065.0, 2065.0, 2065.0, 2065.0, 2065.0]
    },
    "slices": {}
  }
}