{
  "AcquisitionMatrixPE": 80,
  "AcquisitionNumber": 1,
  "AcquisitionTime": "12:07:26.495000",
  "BandwidthPerPixelPhaseEncode": 48.077,
  "BaseResolution": 80,
  "BodyPartExamined": "BRAIN",
  "CoilCombinationMethod": "Sum of Squares",
  "ConsistencyInfo": "N4_VE11C_LATEST_20160120",
  "ConversionSoftware": "dcm2niix",
  "ConversionSoftwareVersion": "v1.0.20220720",
  "DerivedVendorReportedEchoSpacing": 0.000519999,
  "DeviceSerialNumber": "66112",
  "DwellTime": 2.7e-06,
  "EchoTime": 0.035,
  "EchoTrainLength": 39,
  "EffectiveEchoSpacing": 0.00026,
  "FlipAngle": 90,
  "HeudiconvVersion": "0.13.1",
  "ImageOrientationPatientDICOM": [0.983209, 0.182003, 0.0132504, -0.177262, 0.935299, 0.306258],
  "ImageOrientationText": "Tra>Cor(17.7)>Sag(-2.5)",
  "ImageType": [
    "ORIGINAL",
    "PRIMARY",
    "M",
    "ND",
    "NORM",
    "MOSAIC"
],
  "ImagingFrequency": 123.252,
  "InPlanePhaseEncodingDirectionDICOM": "COL",
  "InstitutionAddress": "Maynard 3,Hanover,NH,US,03755",
  "InstitutionName": "Dartmouth College - PBS",
  "InstitutionalDepartmentName": "Department",
  "MRAcquisitionType": "2D",
  "MagneticFieldStrength": 3,
  "Manufacturer": "Siemens",
  "ManufacturersModelName": "Prisma",
  "MatrixCoilMode": "GRAPPA",
  "Modality": "MR",
  "NonlinearGradientCorrection": false,
  "ParallelReductionFactorInPlane": 2,
  "PartialFourier": 1,
  "PatientPosition": "HFS",
  "PercentPhaseFOV": 100,
  "PercentSampling": 100,
  "PhaseEncodingDirection": "j-",
  "PhaseEncodingSteps": 79,
  "PhaseResolution": 1,
  "PixelBandwidth": 2315,
  "ProcedureStepDescription": "dbic^QA",
  "ProtocolName": "func-bold_task-rest_acq-p2",
  "PulseSequenceDetails": "%SiemensSeq%\\ep2d_bold",
  "ReceiveCoilActiveElements": "HEA;HEP",
  "ReceiveCoilName": "Head_32",
  "ReconMatrixPE": 80,
  "RefLinesPE": 24,
  "RepetitionTime": 2,
  "SAR": 0.0554464,
  "ScanOptions": "FS",
  "ScanningSequence": "EP",
  "SequenceName": "*epfid2d1_80",
  "SequenceVariant": "SK",
  "SeriesDescription": "func-bold_task-rest_acq-p2",
  "SeriesNumber": 5,
  "ShimSetting": [4146, -7696, -7508, 290, -38, -180, -59, 42],
  "SliceThickness": 3.5,
  "SliceTiming": [0.99, 0, 1.055, 0.065, 1.12, 0.13, 1.1875, 0.1975, 1.2525, 0.2625, 1.32, 0.33, 1.385, 0.395, 1.45, 0.46, 1.5175, 0.5275, 1.5825, 0.5925, 1.65, 0.66, 1.715, 0.725, 1.78, 0.79, 1.8475, 0.8575, 1.9125, 0.9225],
  "SoftwareVersions": "syngo MR E11",
  "SpacingBetweenSlices": 3.99,
  "StationName": "AWP66112",
  "TaskName": "rest",
  "TotalReadoutTime": 0.02054,
  "TxRefAmp": 231.983,
  "dcmmeta_affine": [
    [-2.9496262073516846, -0.5317845940589905, -0.17295360565185547, 144.67010498046875],
    [-0.5460084080696106, 2.8058972358703613, 1.2108231782913208, -101.13758850097656],
    [0.03975113108754158, -0.9187743663787842, 3.7979066371917725, -15.830044746398926],
    [0.0, 0.0, 0.0, 1.0]
],
  "dcmmeta_reorient_transform": [
    [0.0, -1.0, 0.0, 79.0],
    [1.0, 0.0, 0.0, 0.0],
    [0.0, 0.0, 1.0, 0.0],
    [0.0, 0.0, 0.0, 1.0]
],
  "dcmmeta_shape": [80, 80, 30, 200],
  "dcmmeta_slice_dim": 2,
  "dcmmeta_version": 0.6,
  "global": {
    "const": {
      "AccessionNumber": "qa",
      "AcquisitionMatrix": [80, 0, 0, 80],
      "AngioFlag": "N",
      "BitsAllocated": 16,
      "BitsStored": 12,
      "BodyPartExamined": "BRAIN",
      "Columns": 480,
      "EchoNumbers": 1,
      "EchoTime": 35.0,
      "EchoTrainLength": 39,
      "FlipAngle": 90.0,
      "HighBit": 11,
      "ImageOrientationPatient": [0.98320873181935, 0.18200279443709, 0.01325037702363, -0.1772615219777, 0.93529904894231, 0.30625812948192],
      "ImagePositionPatient": [-586.22745474338, -790.90939556203, -280.11832545914],
      "ImageType": [
        "ORIGINAL",
        "PRIMARY",
        "M",
        "ND",
        "NORM",
        "MOSAIC"
],
      "ImagedNucleus": "1H",
      "ImagingFrequency": 123.252467,
      "InPlanePhaseEncodingDirection": "COL",
      "MRAcquisitionType": "2D",
      "MagneticFieldStrength": 3.0,
      "Manufacturer": "SIEMENS",
      "ManufacturerModelName": "Prisma",
      "Modality": "MR",
      "NumberOfAverages": 1.0,
      "NumberOfPhaseEncodingSteps": 79,
      "PercentPhaseFieldOfView": 100.0,
      "PercentSampling": 100.0,
      "PerformedProcedureStepStartTime": "115809.715000",
      "PhotometricInterpretation": "MONOCHROME2",
      "PixelBandwidth": 2315.0,
      "PixelRepresentation": 0,
      "PixelSpacing": [3.0, 3.0],
      "ProtocolName": "func-bold_task-rest_acq-p2",
      "RepetitionTime": 2000.0,
      "Rows": 480,
      "SAR": 0.05544635344414,
      "SamplesPerPixel": 1,
      "ScanOptions": "FS",
      "ScanningSequence": "EP",
      "SequenceName": "*epfid2d1_80",
      "SequenceVariant": "SK",
      "SeriesDescription": "func-bold_task-rest_acq-p2",
      "SeriesNumber": 5,
      "SeriesTime": "120807.118000",
      "SliceLocation": -52.030571236751,
      "SliceThickness": 3.5,
      "SmallestImagePixelValue": 0,
      "SoftwareVersions": "syngo MR E11",
      "SpacingBetweenSlices": 3.9899999648454,
      "SpecificCharacterSet": "ISO_IR 100",
      "StudyID": "1",
      "StudyTime": "115809.655000",
      "TransmitCoilName": "Body",
      "VariableFlipAngleFlag": "N",
      "WindowCenterWidthExplanation": "Algo1",
      "dBdt": 0.0},
    "slices": {}
  },
  "time": {
    "samples": {
      "AcquisitionNumber": [1, 2, 3, 4, 5, 6, 7, 8, 9, 10, 11, 12, 13, 14, 15, 16, 17, 18, 19, 20, 21, 22, 23, 24, 25, 26, 27, 28, 29, 30, 31, 32, 33, 34, 35, 36, 37, 38, 39, 40, 41, 42, 43, 44, 45, 46, 47, 48, 49, 50, 51, 52, 53, 54, 55, 56, 57, 58, 59, 60, 61, 62, 63, 64, 65, 66, 67, 68, 69, 70, 71, 72, 73, 74, 75, 76, 77, 78, 79, 80, 81, 82, 83, 84, 85, 86, 87, 88, 89, 90, 91, 92, 93, 94, 95, 96, 97, 98, 99, 100, 101, 102, 103, 104, 105, 106, 107, 108, 109, 110, 111, 112, 113, 114, 115, 116, 117, 118, 119, 120, 121, 122, 123, 124, 125, 126, 127, 128, 129, 130, 131, 132, 133, 134, 135, 136, 137, 138, 139, 140, 141, 142, 143, 144, 145, 146, 147, 148, 149, 150, 151, 152, 153, 154, 155, 156, 157, 158, 159, 160, 161, 162, 163, 164, 165, 166, 167, 168, 169, 170, 171, 172, 173, 174, 175, 176, 177, 178, 179, 180, 181, 182, 183, 184, 185, 186, 187, 188, 189, 190, 191, 192, 193, 194, 195, 196, 197, 198, 199, 200],
      "AcquisitionTime": ["120726.495000", "120728.495000", "120730.495000", "120732.495000", "120734.495000", "120736.495000", "120738.495000", "120740.495000", "120742.495000", "120744.495000", "120746.495000", "120748.495000", "120750.495000", "120752.495000", "120754.495000", "120756.495000", "120758.495000", "120800.495000", "120802.495000", "120804.495000", "120806.495000", "120808.495000", "120810.495000", "120812.495000", "120814.495000", "120816.495000", "120818.495000", "120820.495000", "120822.495000", "120824.495000", "120826.495000", "120828.495000", "120830.495000", "120832.495000", "120834.495000", "120836.495000", "120838.495000", "120840.495000", "120842.495000", "120844.495000", "120846.495000", "120848.495000", "120850.495000", "120852.495000", "120854.495000", "120856.495000", "120858.495000", "120900.495000", "120902.495000", "120904.495000", "120906.495000", "120908.495000", "120910.495000", "120912.495000", "120914.495000", "120916.495000", "120918.495000", "120920.495000", "120922.495000", "120924.495000", "120926.495000", "120928.495000", "120930.495000", "120932.495000", "120934.495000", "120936.495000", "120938.495000", "120940.495000", "120942.495000", "120944.495000", "120946.495000", "120948.495000", "120950.495000", "120952.495000", "120954.495000", "120956.495000", "120958.495000", "121000.495000", "121002.495000", "121004.495000", "121006.495000", "121008.495000", "121010.495000", "121012.495000", "121014.495000", "121016.495000", "121018.495000", "121020.495000", "121022.495000", "121024.495000", "121026.495000", "121028.495000", "121030.495000", "121032.495000", "121034.495000", "121036.495000", "121038.495000", "121040.495000", "121042.495000", "121044.495000", "121046.495000", "121048.495000", "121050.495000", "121052.495000", "121054.495000", "121056.495000", "121058.495000", "121100.495000", "121102.495000", "121104.495000", "121106.495000", "121108.495000", "121110.495000", "121112.495000", "121114.495000", "121116.495000", "121118.495000", "121120.495000", "121122.495000", "121124.495000", "121126.495000", "121128.495000", "121130.495000", "121132.495000", "121134.495000", "121136.495000", "121138.495000", "121140.495000", "121142.495000", "121144.495000", "121146.495000", "121148.495000", "121150.495000", "121152.495000", "121154.495000", "121156.495000", "121158.495000", "121200.495000", "121202.495000", "121204.495000", "121206.495000", "121208.495000", "121210.495000", "121212.495000", "121214.495000", "121216.495000", "121218.495000", "121220.495000", "121222.495000", "121224.495000", "121226.495000", "121228.495000", "121230.495000", "121232.495000", "121234.495000", "121236.495000", "121238.495000", "121240.495000", "121242.495000", "121244.495000", "121246.495000", "121248.495000", "121250.495000", "121252.495000", "121254.495000", "121256.495000", "121258.495000", "121300.495000", "121302.495000", "121304.495000", "121306.495000", "121308.495000", "121310.495000", "121312.495000", "121314.495000", "121316.495000", "121318.495000", "121320.495000", "121322.495000", "121324.495000", "121326.495000", "121328.495000", "121330.495000", "121332.495000", "121334.495000", "121336.495000", "121338.495000", "121340.495000", "121342.495000", "121344.495000", "121346.495000", "121348.495000", "121350.495000", "121352.495000", "121354.495000", "121356.495000", "121358.495000", "121400.495000", "121402.495000", "121404.495000"],
      "ContentTime": ["120807.122000", "120807.125000", "120807.128000", "120807.130000", "120807.133000", "120807.135000", "120807.138000", "120807.140000", "120807.143000", "120807.146000", "120807.155000", "120807.158000", "120807.160000", "120807.163000", "120807.166000", "120807.168000", "120807.171000", "120807.173000", "120807.176000", "120807.179000", "120847.117000", "120847.119000", "120847.122000", "120847.125000", "120847.127000", "120847.130000", "120847.132000", "120847.135000", "120847.138000", "120847.140000", "120847.143000", "120847.145000", "120847.148000", "120847.150000", "120847.153000", "120847.155000", "120847.158000", "120847.160000", "120847.163000", "120847.166000", "120927.116000", "120927.119000", "120927.122000", "120927.125000", "120927.127000", "120927.130000", "120927.141000", "120927.144000", "120927.146000", "120927.149000", "120927.151000", "120927.154000", "120927.156000", "120927.159000", "120927.161000", "120927.164000", "120927.167000", "120927.169000", "120927.172000", "120927.175000", "121007.116000", "121007.119000", "121007.122000", "121007.124000", "121007.127000", "121007.130000", "121007.132000", "121007.135000", "121007.137000", "121007.140000", "121007.142000", "121007.145000", "121007.148000", "121007.150000", "121007.153000", "121007.155000", "121007.158000", "121007.160000", "121007.163000", "121007.166000", "121047.116000", "121047.119000", "121047.122000", "121047.125000", "121047.127000", "121047.130000", "121047.132000", "121047.135000", "121047.137000", "121047.140000", "121047.142000", "121047.145000", "121047.148000", "121047.150000", "121047.153000", "121047.156000", "121047.158000", "121047.161000", "121047.163000", "121047.166000", "121127.116000", "121127.119000", "121127.122000", "121127.125000", "121127.127000", "121127.130000", "121127.132000", "121127.135000", "121127.137000", "121127.140000", "121127.143000", "121127.145000", "121127.148000", "121127.150000", "121127.153000", "121127.156000", "121127.158000", "121127.161000", "121127.163000", "121127.166000", "121207.116000", "121207.119000", "121207.122000", "121207.125000", "121207.127000", "121207.130000", "121207.132000", "121207.135000", "121207.137000", "121207.140000", "121207.143000", "121207.145000", "121207.148000", "121207.150000", "121207.153000", "121207.156000", "121207.158000", "121207.161000", "121207.163000", "121207.166000", "121247.116000", "121247.119000", "121247.122000", "121247.125000", "121247.127000", "121247.130000", "121247.132000", "121247.135000", "121247.138000", "121247.140000", "121247.143000", "121247.145000", "121247.148000", "121247.151000", "121247.153000", "121247.156000", "121247.158000", "121247.161000", "121247.164000", "121247.166000", "121327.116000", "121327.119000", "121327.122000", "121327.136000", "121327.139000", "121327.141000", "121327.144000", "121327.147000", "121327.149000", "121327.152000", "121327.154000", "121327.157000", "121327.160000", "121327.162000", "121327.165000", "121327.167000", "121327.170000", "121327.172000", "121327.175000", "121327.178000", "121405.736000", "121405.738000", "121405.741000", "121405.744000", "121405.747000", "121405.749000", "121405.752000", "121405.754000", "121405.757000", "121405.760000", "121405.763000", "121405.768000", "121405.771000", "121405.776000", "121405.779000", "121405.783000", "121405.789000", "121405.793000", "121405.796000", "121405.799000"],
      "InstanceCreationTime": ["120807.122000", "120807.125000", "120807.128000", "120807.130000", "120807.133000", "120807.135000", "120807.138000", "120807.140000", "120807.143000", "120807.146000", "120807.155000", "120807.158000", "120807.160000", "120807.163000", "120807.166000", "120807.168000", "120807.171000", "120807.173000", "120807.176000", "120807.179000", "120847.117000", "120847.119000", "120847.122000", "120847.125000", "120847.127000", "120847.130000", "120847.132000", "120847.135000", "120847.138000", "120847.140000", "120847.143000", "120847.145000", "120847.148000", "120847.150000", "120847.153000", "120847.155000", "120847.158000", "120847.160000", "120847.163000", "120847.166000", "120927.116000", "120927.119000", "120927.122000", "120927.125000", "120927.127000", "120927.130000", "120927.141000", "120927.144000", "120927.146000", "120927.149000", "120927.151000", "120927.154000", "120927.156000", "120927.159000", "120927.161000", "120927.164000", "120927.167000", "120927.169000", "120927.172000", "120927.175000", "121007.116000", "121007.119000", "121007.122000", "121007.124000", "121007.127000", "121007.130000", "121007.132000", "121007.135000", "121007.137000", "121007.140000", "121007.142000", "121007.145000", "121007.148000", "121007.150000", "121007.153000", "121007.155000", "121007.158000", "121007.160000", "121007.163000", "121007.166000", "121047.116000", "121047.119000", "121047.122000", "121047.125000", "121047.127000", "121047.130000", "121047.132000", "121047.135000", "121047.137000", "121047.140000", "121047.142000", "121047.145000", "121047.148000", "121047.150000", "121047.153000", "121047.156000", "121047.158000", "121047.161000", "121047.163000", "121047.166000", "121127.116000", "121127.119000", "121127.122000", "121127.125000", "121127.127000", "121127.130000", "121127.132000", "121127.135000", "121127.137000", "121127.140000", "121127.143000", "121127.145000", "121127.148000", "121127.150000", "121127.153000", "121127.156000", "121127.158000", "121127.161000", "121127.163000", "121127.166000", "121207.116000", "121207.119000", "121207.122000", "121207.125000", "121207.127000", "121207.130000", "121207.132000", "121207.135000", "121207.137000", "121207.140000", "121207.143000", "121207.145000", "121207.148000", "121207.150000", "121207.153000", "121207.156000", "121207.158000", "121207.161000", "121207.163000", "121207.166000", "121247.116000", "121247.119000", "121247.122000", "121247.125000", "121247.127000", "121247.130000", "121247.132000", "121247.135000", "121247.138000", "121247.140000", "121247.143000", "121247.145000", "121247.148000", "121247.151000", "121247.153000", "121247.156000", "121247.158000", "121247.161000", "121247.164000", "121247.166000", "121327.116000", "121327.119000", "121327.122000", "121327.136000", "121327.139000", "121327.141000", "121327.144000", "121327.147000", "121327.149000", "121327.152000", "121327.154000", "121327.157000", "121327.160000", "121327.162000", "121327.165000", "121327.167000", "121327.170000", "121327.172000", "121327.175000", "121327.178000", "121405.736000", "121405.738000", "121405.741000", "121405.744000", "121405.747000", "121405.749000", "121405.752000", "121405.754000", "121405.757000", "121405.760000", "121405.763000", "121405.768000", "121405.771000", "121405.776000", "121405.779000", "121405.783000", "121405.789000", "121405.793000", "121405.796000", "121405.799000"],
      "InstanceNumber": [1, 2, 3, 4, 5, 6, 7, 8, 9, 10, 11, 12, 13, 14, 15, 16, 17, 18, 19, 20, 21, 22, 23, 24, 25, 26, 27, 28, 29, 30, 31, 32, 33, 34, 35, 36, 37, 38, 39, 40, 41, 42, 43, 44, 45, 46, 47, 48, 49, 50, 51, 52, 53, 54, 55, 56, 57, 58, 59, 60, 61, 62, 63, 64, 65, 66, 67, 68, 69, 70, 71, 72, 73, 74, 75, 76, 77, 78, 79, 80, 81, 82, 83, 84, 85, 86, 87, 88, 89, 90, 91, 92, 93, 94, 95, 96, 97, 98, 99, 100, 101, 102, 103, 104, 105, 106, 107, 108, 109, 110, 111, 112, 113, 114, 115, 116, 117, 118, 119, 120, 121, 122, 123, 124, 125, 126, 127, 128, 129, 130, 131, 132, 133, 134, 135, 136, 137, 138, 139, 140, 141, 142, 143, 144, 145, 146, 147, 148, 149, 150, 151, 152, 153, 154, 155, 156, 157, 158, 159, 160, 161, 162, 163, 164, 165, 166, 167, 168, 169, 170, 171, 172, 173, 174, 175, 176, 177, 178, 179, 180, 181, 182, 183, 184, 185, 186, 187, 188, 189, 190, 191, 192, 193, 194, 195, 196, 197, 198, 199, 200],
      "LargestImagePixelValue": [1998, 2001, 2006, 2005, 1995, 1992, 1994, 2000, 2001, 1999, 1993, 1996, 1993, 2004, 2002, 2006, 1998, 1996, 2004, 1998, 2006, 1991, 1997, 2003, 1997, 2001, 1993, 2003, 1999, 1995, 2001, 1998, 1995, 2000, 1996, 1999, 1998, 2005, 1996, 2000, 2003, 1996, 2003, 2006, 1997, 2006, 1998, 1999, 2001, 2005, 2000, 2001, 1998, 2000, 1997, 2001, 2009, 1995, 2006, 2003, 2001, 2003, 1996, 1993, 2002, 2001, 2001, 1996, 2009, 2007, 2002, 2005, 2001, 1996, 2001, 1998, 1995, 2007, 2001, 1995, 2004, 1996, 1996, 2001, 1997, 2000, 1997, 1996, 1999, 2000, 1996, 2009, 2011, 2006, 1996, 2002, 2007, 1999, 2001, 2000, 2005, 2007, 1998, 2005, 2006, 2002, 1995, 1997, 1999, 1995, 2001, 1994, 2003, 2001, 2002, 2007, 1999, 2004, 2004, 2000, 1994, 2001, 1999, 2003, 2009, 2004, 1999, 2007, 2000, 2002, 2005, 2002, 2013, 2010, 2001, 2008, 2000, 2003, 2005, 2006, 1998, 2008, 2002, 1995, 2007, 2003, 2005, 2004, 2002, 2005, 1999, 2001, 2005, 2003, 2003, 1998, 1999, 1998, 1997, 2003, 2002, 1999, 2006, 1998, 2003, 1997, 1999, 2004, 2007, 1999, 2001, 2011, 2007, 2009, 2002, 2004, 2009, 2000, 2003, 1999, 2004, 2006, 1992, 2001, 2001, 2006, 2008, 2012, 2006, 2002, 2000, 2003, 2006, 1997, 2000, 2000, 2007, 2011, 2007, 2005],
      "WindowCenter": [976.0, 975.0, 975.0, 975.0, 976.0, 975.0, 975.0, 975.0, 975.0, 976.0, 975.0, 975.0, 975.0, 975.0, 975.0, 975.0, 975.0, 975.0, 975.0, 975.0, 975.0, 975.0, 975.0, 975.0, 975.0, 975.0, 975.0, 976.0, 975.0, 975.0, 975.0, 975.0, 975.0, 975.0, 975.0, 975.0, 975.0, 975.0, 976.0, 976.0, 975.0, 975.0, 975.0, 975.0, 975.0, 975.0, 976.0, 975.0, 975.0, 975.0, 975.0, 975.0, 975.0, 976.0, 975.0, 975.0, 975.0, 975.0, 975.0, 975.0, 975.0, 975.0, 976.0, 975.0, 975.0, 976.0, 975.0, 975.0, 975.0, 976.0, 975.0, 975.0, 975.0, 975.0, 975.0, 975.0, 975.0, 975.0, 975.0, 975.0, 975.0, 976.0, 975.0, 975.0, 975.0, 975.0, 975.0, 975.0, 975.0, 975.0, 975.0, 976.0, 975.0, 975.0, 975.0, 975.0, 975.0, 975.0, 975.0, 975.0, 975.0, 975.0, 975.0, 975.0, 975.0, 975.0, 975.0, 975.0, 975.0, 975.0, 975.0, 975.0, 976.0, 975.0, 975.0, 975.0, 975.0, 975.0, 975.0, 975.0, 975.0, 975.0, 975.0, 976.0, 975.0, 975.0, 975.0, 975.0, 975.0, 975.0, 975.0, 975.0, 975.0, 975.0, 975.0, 975.0, 975.0, 975.0, 975.0, 975.0, 975.0, 975.0, 975.0, 975.0, 975.0, 975.0, 975.0, 975.0, 975.0, 975.0, 975.0, 975.0, 975.0, 975.0, 975.0, 975.0, 975.0, 975.0, 975.0, 975.0, 975.0, 975.0, 975.0, 975.0, 975.0, 975.0, 975.0, 975.0, 975.0, 975.0, 975.0, 975.0, 975.0, 975.0, 975.0, 975.0, 975.0, 975.0, 975.0, 974.0, 974.0, 975.0, 975.0, 975.0, 975.0, 975.0, 975.0, 975.0, 975.0, 974.0, 975.0, 975.0, 975.0, 975.0, 974.0, 975.0, 975.0, 975.0, 975.0, 975.0],
      "WindowWidth": [2125.0, 2125.0, 2125.0, 2125.0, 2126.0, 2125.0, 2125.0, 2124.0, 2125.0, 2126.0, 2125.0, 2125.0, 2125.0, 2125.0, 2124.0, 2125.0, 2125.0, 2125.0, 2125.0, 2125.0, 2125.0, 2125.0, 2125.0, 2125.0, 2125.0, 2124.0, 2125.0, 2126.0, 2125.0, 2125.0, 2125.0, 2125.0, 2125.0, 2125.0, 2125.0, 2125.0, 2125.0, 2125.0, 2126.0, 2126.0, 2125.0, 2125.0, 2124.0, 2125.0, 2125.0, 2125.0, 2125.0, 2125.0, 2125.0, 2124.0, 2124.0, 2124.0, 2125.0, 2125.0, 2125.0, 2124.0, 2124.0, 2124.0, 2125.0, 2124.0, 2124.0, 2124.0, 2125.0, 2124.0, 2124.0, 2125.0, 2124.0, 2124.0, 2124.0, 2125.0, 2124.0, 2125.0, 2124.0, 2124.0, 2124.0, 2124.0, 2124.0, 2124.0, 2124.0, 2124.0, 2124.0, 2125.0, 2124.0, 2124.0, 2124.0, 2124.0, 2124.0, 2124.0, 2124.0, 2124.0, 2124.0, 2125.0, 2124.0, 2124.0, 2124.0, 2124.0, 2124.0, 2124.0, 2124.0, 2124.0, 2124.0, 2124.0, 2124.0, 2124.0, 2124.0, 2124.0, 2124.0, 2124.0, 2124.0, 2124.0, 2124.0, 2124.0, 2124.0, 2124.0, 2124.0, 2124.0, 2124.0, 2124.0, 2124.0, 2124.0, 2124.0, 2123.0, 2124.0, 2125.0, 2124.0, 2123.0, 2123.0, 2124.0, 2124.0, 2124.0, 2124.0, 2124.0, 2124.0, 2124.0, 2124.0, 2124.0, 2123.0, 2124.0, 2124.0, 2124.0, 2124.0, 2123.0, 2124.0, 2124.0, 2123.0, 2124.0, 2123.0, 2123.0, 2123.0, 2124.0, 2124.0, 2123.0, 2124.0, 2123.0, 2124.0, 2124.0, 2124.0, 2123.0, 2123.0, 2124.0, 2124.0, 2123.0, 2124.0, 2124.0, 2124.0, 2123.0, 2124.0, 2123.0, 2123.0, 2124.0, 2123.0, 2124.0, 2124.0, 2124.0, 2124.0, 2123.0, 2123.0, 2124.0, 2123.0, 2124.0, 2124.0, 2123.0, 2123.0, 2124.0, 2123.0, 2124.0, 2123.0, 2123.0, 2123.0, 2124.0, 2123.0, 2123.0, 2123.0, 2124.0, 2123.0, 2123.0, 2123.0, 2123.0, 2123.0, 2123.0]
    },
    "slices": {}
  }
}