{
  "AcquisitionMatrixPE": 80,
  "AcquisitionNumber": 1,
  "AcquisitionTime": "08:57:51.725000",
  "BandwidthPerPixelPhaseEncode": 48.077,
  "BaseResolution": 80,
  "BodyPartExamined": "BRAIN",
  "CoilCombinationMethod": "Sum of Squares",
  "ConsistencyInfo": "N4_VE11E_LATEST_20181129",
  "ConversionSoftware": "dcm2niix",
  "ConversionSoftwareVersion": "v1.0.20220720",
  "DerivedVendorReportedEchoSpacing": 0.000519999,
  "DeviceSerialNumber": "66112",
  "DwellTime": 2.7e-06,
  "EchoTime": 0.035,
  "EchoTrainLength": 39,
  "EffectiveEchoSpacing": 0.00026,
  "FlipAngle": 90,
  "HeudiconvVersion": "0.13.1",
  "ImageOrientationPatientDICOM": [0.986286, 0.164854, 0.00793239, -0.159214, 0.937681, 0.308878],
  "ImageOrientationText": "Tra>Cor(17.8)>Sag(-2.5)",
  "ImageType": [
    "ORIGINAL",
    "PRIMARY",
    "M",
    "ND",
    "NORM",
    "MOSAIC"
],
  "ImagingFrequency": 123.259,
  "InPlanePhaseEncodingDirectionDICOM": "COL",
  "InstitutionAddress": "Maynard 3,Hanover,NH,US,03755",
  "InstitutionName": "Dartmouth College - PBS",
  "InstitutionalDepartmentName": "Department",
  "MRAcquisitionType": "2D",
  "MagneticFieldStrength": 3,
  "Manufacturer": "Siemens",
  "ManufacturersModelName": "Prisma",
  "MatrixCoilMode": "GRAPPA",
  "Modality": "MR",
  "NonlinearGradientCorrection": false,
  "ParallelReductionFactorInPlane": 2,
  "PartialFourier": 1,
  "PatientPosition": "HFS",
  "PercentPhaseFOV": 100,
  "PercentSampling": 100,
  "PhaseEncodingDirection": "j-",
  "PhaseEncodingSteps": 79,
  "PhaseResolution": 1,
  "PixelBandwidth": 2315,
  "ProcedureStepDescription": "dbic^QA",
  "ProtocolName": "func-bold_task-rest_acq-p2",
  "PulseSequenceDetails": "%SiemensSeq%\\ep2d_bold",
  "ReceiveCoilActiveElements": "HEA;HEP",
  "ReceiveCoilName": "Head_32",
  "ReconMatrixPE": 80,
  "RefLinesPE": 24,
  "RepetitionTime": 2,
  "SAR": 0.0469623,
  "ScanOptions": "FS",
  "ScanningSequence": "EP",
  "SequenceName": "*epfid2d1_80",
  "SequenceVariant": "SK",
  "SeriesDescription": "func-bold_task-rest_acq-p2",
  "SeriesNumber": 5,
  "ShimSetting": [4223, -7734, -7497, -26, -137, -91, -12, 84],
  "SliceThickness": 3.5,
  "SliceTiming": [0.99, 0, 1.055, 0.065, 1.1225, 0.1325, 1.1875, 0.1975, 1.2525, 0.2625, 1.32, 0.33, 1.385, 0.395, 1.4525, 0.4625, 1.5175, 0.5275, 1.5825, 0.5925, 1.65, 0.66, 1.715, 0.725, 1.7825, 0.7925, 1.8475, 0.8575, 1.9125, 0.9225],
  "SoftwareVersions": "syngo MR E11",
  "SpacingBetweenSlices": 3.99,
  "StationName": "AWP66112",
  "TaskName": "rest",
  "TotalReadoutTime": 0.02054,
  "TxRefAmp": 226.683,
  "dcmmeta_affine": [
    [-2.9588584899902344, -0.4776407778263092, -0.1734912395477295, 140.9061737060547],
    [-0.4945605993270874, 2.8130431175231934, 1.2205594778060913, -102.1895980834961],
    [0.023797160014510155, -0.926632821559906, 3.7947640419006348, -29.887937545776367],
    [0.0, 0.0, 0.0, 1.0]
],
  "dcmmeta_reorient_transform": [
    [0.0, -1.0, 0.0, 79.0],
    [1.0, 0.0, 0.0, 0.0],
    [0.0, 0.0, 1.0, 0.0],
    [0.0, 0.0, 0.0, 1.0]
],
  "dcmmeta_shape": [80, 80, 30, 200],
  "dcmmeta_slice_dim": 2,
  "dcmmeta_version": 0.6,
  "global": {
    "const": {
      "AccessionNumber": "qa",
      "AcquisitionMatrix": [80, 0, 0, 80],
      "AngioFlag": "N",
      "BitsAllocated": 16,
      "BitsStored": 12,
      "BodyPartExamined": "BRAIN",
      "Columns": 480,
      "EchoNumbers": 1,
      "EchoTime": 35.0,
      "EchoTrainLength": 39,
      "FlipAngle": 90.0,
      "HighBit": 11,
      "ImageOrientationPatient": [0.98628616023902, 0.16485353305552, 0.00793238678328, -0.1592135923136, 0.93768100190412, 0.30887759823383],
      "ImagePositionPatient": [-599.41608895225, -781.56152135991, -293.17791913175],
      "ImageType": [
        "ORIGINAL",
        "PRIMARY",
        "M",
        "ND",
        "NORM",
        "MOSAIC"
],
      "ImagedNucleus": "1H",
      "ImagingFrequency": 123.259146,
      "InPlanePhaseEncodingDirection": "COL",
      "MRAcquisitionType": "2D",
      "MagneticFieldStrength": 3.0,
      "Manufacturer": "SIEMENS",
      "ManufacturerModelName": "Prisma",
      "Modality": "MR",
      "NumberOfAverages": 1.0,
      "NumberOfPhaseEncodingSteps": 79,
      "PercentPhaseFieldOfView": 100.0,
      "PercentSampling": 100.0,
      "PerformedProcedureStepStartTime": "085217.759000",
      "PhotometricInterpretation": "MONOCHROME2",
      "PixelBandwidth": 2315.0,
      "PixelRepresentation": 0,
      "PixelSpacing": [3.0, 3.0],
      "ProtocolName": "func-bold_task-rest_acq-p2",
      "RepetitionTime": 2000.0,
      "Rows": 480,
      "SAR": 0.04696233770068,
      "SamplesPerPixel": 1,
      "ScanOptions": "FS",
      "ScanningSequence": "EP",
      "SequenceName": "*epfid2d1_80",
      "SequenceVariant": "SK",
      "SeriesDescription": "func-bold_task-rest_acq-p2",
      "SeriesNumber": 5,
      "SeriesTime": "085833.877000",
      "SliceLocation": -65.812568299379,
      "SliceThickness": 3.5,
      "SmallestImagePixelValue": 0,
      "SoftwareVersions": "syngo MR E11",
      "SpacingBetweenSlices": 3.9899998535606,
      "SpecificCharacterSet": "ISO_IR 100",
      "StudyID": "10",
      "StudyTime": "085217.673000",
      "TransmitCoilName": "Body",
      "VariableFlipAngleFlag": "N",
      "WindowCenterWidthExplanation": "Algo1"
    },
    "slices": {}
  },
  "time": {
    "samples": {
      "AcquisitionNumber": [1, 2, 3, 4, 5, 6, 7, 8, 9, 10, 11, 12, 13, 14, 15, 16, 17, 18, 19, 20, 21, 22, 23, 24, 25, 26, 27, 28, 29, 30, 31, 32, 33, 34, 35, 36, 37, 38, 39, 40, 41, 42, 43, 44, 45, 46, 47, 48, 49, 50, 51, 52, 53, 54, 55, 56, 57, 58, 59, 60, 61, 62, 63, 64, 65, 66, 67, 68, 69, 70, 71, 72, 73, 74, 75, 76, 77, 78, 79, 80, 81, 82, 83, 84, 85, 86, 87, 88, 89, 90, 91, 92, 93, 94, 95, 96, 97, 98, 99, 100, 101, 102, 103, 104, 105, 106, 107, 108, 109, 110, 111, 112, 113, 114, 115, 116, 117, 118, 119, 120, 121, 122, 123, 124, 125, 126, 127, 128, 129, 130, 131, 132, 133, 134, 135, 136, 137, 138, 139, 140, 141, 142, 143, 144, 145, 146, 147, 148, 149, 150, 151, 152, 153, 154, 155, 156, 157, 158, 159, 160, 161, 162, 163, 164, 165, 166, 167, 168, 169, 170, 171, 172, 173, 174, 175, 176, 177, 178, 179, 180, 181, 182, 183, 184, 185, 186, 187, 188, 189, 190, 191, 192, 193, 194, 195, 196, 197, 198, 199, 200],
      "AcquisitionTime": ["085751.725000", "085753.725000", "085755.725000", "085757.725000", "085759.725000", "085801.725000", "085803.725000", "085805.725000", "085807.725000", "085809.725000", "085811.725000", "085813.725000", "085815.725000", "085817.725000", "085819.725000", "085821.725000", "085823.725000", "085825.725000", "085827.725000", "085829.725000", "085831.725000", "085833.725000", "085835.725000", "085837.725000", "085839.725000", "085841.725000", "085843.725000", "085845.725000", "085847.725000", "085849.725000", "085851.725000", "085853.725000", "085855.725000", "085857.725000", "085859.725000", "085901.725000", "085903.725000", "085905.725000", "085907.725000", "085909.725000", "085911.725000", "085913.725000", "085915.725000", "085917.725000", "085919.725000", "085921.725000", "085923.725000", "085925.725000", "085927.725000", "085929.725000", "085931.725000", "085933.725000", "085935.725000", "085937.725000", "085939.725000", "085941.725000", "085943.725000", "085945.725000", "085947.725000", "085949.725000", "085951.725000", "085953.725000", "085955.725000", "085957.725000", "085959.725000", "090001.725000", "090003.725000", "090005.725000", "090007.725000", "090009.725000", "090011.725000", "090013.725000", "090015.725000", "090017.725000", "090019.725000", "090021.725000", "090023.725000", "090025.725000", "090027.725000", "090029.725000", "090031.725000", "090033.725000", "090035.725000", "090037.725000", "090039.725000", "090041.725000", "090043.725000", "090045.725000", "090047.725000", "090049.725000", "090051.725000", "090053.725000", "090055.725000", "090057.725000", "090059.725000", "090101.725000", "090103.725000", "090105.725000", "090107.725000", "090109.725000", "090111.725000", "090113.725000", "090115.725000", "090117.725000", "090119.725000", "090121.725000", "090123.725000", "090125.725000", "090127.725000", "090129.725000", "090131.725000", "090133.725000", "090135.725000", "090137.725000", "090139.725000", "090141.725000", "090143.725000", "090145.725000", "090147.725000", "090149.725000", "090151.725000", "090153.725000", "090155.725000", "090157.725000", "090159.725000", "090201.725000", "090203.725000", "090205.725000", "090207.725000", "090209.725000", "090211.725000", "090213.725000", "090215.725000", "090217.725000", "090219.725000", "090221.725000", "090223.725000", "090225.725000", "090227.725000", "090229.725000", "090231.725000", "090233.725000", "090235.725000", "090237.725000", "090239.725000", "090241.725000", "090243.725000", "090245.725000", "090247.725000", "090249.725000", "090251.725000", "090253.725000", "090255.725000", "090257.725000", "090259.725000", "090301.725000", "090303.725000", "090305.725000", "090307.725000", "090309.725000", "090311.725000", "090313.725000", "090315.725000", "090317.725000", "090319.725000", "090321.725000", "090323.725000", "090325.725000", "090327.725000", "090329.725000", "090331.725000", "090333.725000", "090335.725000", "090337.725000", "090339.725000", "090341.725000", "090343.725000", "090345.725000", "090347.725000", "090349.725000", "090351.725000", "090353.725000", "090355.725000", "090357.725000", "090359.725000", "090401.725000", "090403.725000", "090405.725000", "090407.725000", "090409.725000", "090411.725000", "090413.725000", "090415.725000", "090417.725000", "090419.725000", "090421.725000", "090423.725000", "090425.725000", "090427.725000", "090429.725000"],
      "ContentTime": ["085833.881000", "085833.884000", "085833.886000", "085833.889000", "085833.892000", "085833.894000", "085833.896000", "085833.899000", "085833.901000", "085833.903000", "085833.906000", "085833.908000", "085833.910000", "085833.913000", "085833.915000", "085833.917000", "085833.920000", "085833.922000", "085833.924000", "085833.926000", "085833.929000", "085913.875000", "085913.878000", "085913.880000", "085913.882000", "085913.885000", "085913.887000", "085913.889000", "085913.892000", "085913.894000", "085913.896000", "085913.898000", "085913.901000", "085913.903000", "085913.905000", "085913.908000", "085913.910000", "085913.912000", "085913.914000", "085913.917000", "085913.919000", "085953.876000", "085953.879000", "085953.881000", "085953.884000", "085953.886000", "085953.888000", "085953.891000", "085953.893000", "085953.895000", "085953.898000", "085953.900000", "085953.902000", "085953.904000", "085953.907000", "085953.909000", "085953.911000", "085953.914000", "085953.916000", "085953.918000", "085953.921000", "090033.876000", "090033.879000", "090033.881000", "090033.884000", "090033.886000", "090033.888000", "090033.890000", "090033.893000", "090033.895000", "090033.897000", "090033.900000", "090033.902000", "090033.904000", "090033.907000", "090033.909000", "090033.911000", "090033.914000", "090033.916000", "090033.918000", "090033.920000", "090113.875000", "090113.878000", "090113.880000", "090113.882000", "090113.885000", "090113.887000", "090113.889000", "090113.892000", "090113.894000", "090113.896000", "090113.899000", "090113.901000", "090113.903000", "090113.906000", "090113.908000", "090113.910000", "090113.913000", "090113.915000", "090113.917000", "090113.920000", "090153.875000", "090153.878000", "090153.880000", "090153.883000", "090153.885000", "090153.887000", "090153.890000", "090153.892000", "090153.894000", "090153.897000", "090153.899000", "090153.901000", "090153.904000", "090153.906000", "090153.908000", "090153.910000", "090153.913000", "090153.915000", "090153.917000", "090153.920000", "090233.876000", "090233.879000", "090233.881000", "090233.883000", "090233.886000", "090233.888000", "090233.890000", "090233.893000", "090233.895000", "090233.897000", "090233.900000", "090233.902000", "090233.904000", "090233.907000", "090233.909000", "090233.911000", "090233.913000", "090233.916000", "090233.918000", "090233.920000", "090313.875000", "090313.878000", "090313.880000", "090313.882000", "090313.885000", "090313.887000", "090313.889000", "090313.892000", "090313.894000", "090313.896000", "090313.899000", "090313.901000", "090313.903000", "090313.906000", "090313.908000", "090313.910000", "090313.913000", "090313.915000", "090313.917000", "090313.920000", "090353.875000", "090353.878000", "090353.880000", "090353.882000", "090353.885000", "090353.887000", "090353.889000", "090353.892000", "090353.894000", "090353.896000", "090353.899000", "090353.901000", "090353.903000", "090353.905000", "090353.908000", "090353.910000", "090353.912000", "090353.915000", "090353.917000", "090353.919000", "090431.079000", "090431.082000", "090431.084000", "090431.087000", "090431.089000", "090431.091000", "090431.094000", "090431.096000", "090431.098000", "090431.101000", "090431.104000", "090431.106000", "090431.109000", "090431.112000", "090431.116000", "090431.118000", "090431.121000", "090431.123000", "090431.126000"],
      "InstanceCreationTime": ["085833.881000", "085833.884000", "085833.886000", "085833.889000", "085833.892000", "085833.894000", "085833.896000", "085833.899000", "085833.901000", "085833.903000", "085833.906000", "085833.908000", "085833.910000", "085833.913000", "085833.915000", "085833.917000", "085833.920000", "085833.922000", "085833.924000", "085833.926000", "085833.929000", "085913.875000", "085913.878000", "085913.880000", "085913.882000", "085913.885000", "085913.887000", "085913.889000", "085913.892000", "085913.894000", "085913.896000", "085913.898000", "085913.901000", "085913.903000", "085913.905000", "085913.908000", "085913.910000", "085913.912000", "085913.914000", "085913.917000", "085913.919000", "085953.876000", "085953.879000", "085953.881000", "085953.884000", "085953.886000", "085953.888000", "085953.891000", "085953.893000", "085953.895000", "085953.898000", "085953.900000", "085953.902000", "085953.904000", "085953.907000", "085953.909000", "085953.911000", "085953.914000", "085953.916000", "085953.918000", "085953.921000", "090033.876000", "090033.879000", "090033.881000", "090033.884000", "090033.886000", "090033.888000", "090033.890000", "090033.893000", "090033.895000", "090033.897000", "090033.900000", "090033.902000", "090033.904000", "090033.907000", "090033.909000", "090033.911000", "090033.914000", "090033.916000", "090033.918000", "090033.920000", "090113.875000", "090113.878000", "090113.880000", "090113.882000", "090113.885000", "090113.887000", "090113.889000", "090113.892000", "090113.894000", "090113.896000", "090113.899000", "090113.901000", "090113.903000", "090113.906000", "090113.908000", "090113.910000", "090113.913000", "090113.915000", "090113.917000", "090113.920000", "090153.875000", "090153.878000", "090153.880000", "090153.883000", "090153.885000", "090153.887000", "090153.890000", "090153.892000", "090153.894000", "090153.897000", "090153.899000", "090153.901000", "090153.904000", "090153.906000", "090153.908000", "090153.910000", "090153.913000", "090153.915000", "090153.917000", "090153.920000", "090233.876000", "090233.879000", "090233.881000", "090233.883000", "090233.886000", "090233.888000", "090233.890000", "090233.893000", "090233.895000", "090233.897000", "090233.900000", "090233.902000", "090233.904000", "090233.907000", "090233.909000", "090233.911000", "090233.913000", "090233.916000", "090233.918000", "090233.920000", "090313.875000", "090313.878000", "090313.880000", "090313.882000", "090313.885000", "090313.887000", "090313.889000", "090313.892000", "090313.894000", "090313.896000", "090313.899000", "090313.901000", "090313.903000", "090313.906000", "090313.908000", "090313.910000", "090313.913000", "090313.915000", "090313.917000", "090313.920000", "090353.875000", "090353.878000", "090353.880000", "090353.882000", "090353.885000", "090353.887000", "090353.889000", "090353.892000", "090353.894000", "090353.896000", "090353.899000", "090353.901000", "090353.903000", "090353.905000", "090353.908000", "090353.910000", "090353.912000", "090353.915000", "090353.917000", "090353.919000", "090431.079000", "090431.082000", "090431.084000", "090431.087000", "090431.089000", "090431.091000", "090431.094000", "090431.096000", "090431.098000", "090431.101000", "090431.104000", "090431.106000", "090431.109000", "090431.112000", "090431.116000", "090431.118000", "090431.121000", "090431.123000", "090431.126000"],
      "InstanceNumber": [1, 2, 3, 4, 5, 6, 7, 8, 9, 10, 11, 12, 13, 14, 15, 16, 17, 18, 19, 20, 21, 22, 23, 24, 25, 26, 27, 28, 29, 30, 31, 32, 33, 34, 35, 36, 37, 38, 39, 40, 41, 42, 43, 44, 45, 46, 47, 48, 49, 50, 51, 52, 53, 54, 55, 56, 57, 58, 59, 60, 61, 62, 63, 64, 65, 66, 67, 68, 69, 70, 71, 72, 73, 74, 75, 76, 77, 78, 79, 80, 81, 82, 83, 84, 85, 86, 87, 88, 89, 90, 91, 92, 93, 94, 95, 96, 97, 98, 99, 100, 101, 102, 103, 104, 105, 106, 107, 108, 109, 110, 111, 112, 113, 114, 115, 116, 117, 118, 119, 120, 121, 122, 123, 124, 125, 126, 127, 128, 129, 130, 131, 132, 133, 134, 135, 136, 137, 138, 139, 140, 141, 142, 143, 144, 145, 146, 147, 148, 149, 150, 151, 152, 153, 154, 155, 156, 157, 158, 159, 160, 161, 162, 163, 164, 165, 166, 167, 168, 169, 170, 171, 172, 173, 174, 175, 176, 177, 178, 179, 180, 181, 182, 183, 184, 185, 186, 187, 188, 189, 190, 191, 192, 193, 194, 195, 196, 197, 198, 199, 200],
      "LargestImagePixelValue": [2112, 2123, 2113, 2105, 2105, 2114, 2113, 2113, 2115, 2111, 2111, 2115, 2119, 2123, 2113, 2113, 2107, 2109, 2110, 2112, 2120, 2112, 2098, 2114, 2112, 2114, 2123, 2108, 2112, 2111, 2120, 2103, 2113, 2119, 2114, 2114, 2109, 2106, 2112, 2106, 2105, 2116, 2104, 2107, 2117, 2108, 2111, 2113, 2117, 2117, 2111, 2116, 2115, 2114, 2117, 2108, 2114, 2117, 2117, 2118, 2106, 2109, 2110, 2117, 2117, 2114, 2117, 2116, 2124, 2108, 2119, 2107, 2115, 2115, 2109, 2097, 2111, 2108, 2118, 2115, 2118, 2114, 2116, 2113, 2109, 2119, 2107, 2117, 2122, 2114, 2114, 2113, 2115, 2117, 2112, 2109, 2114, 2119, 2108, 2109, 2114, 2126, 2120, 2105, 2108, 2116, 2110, 2108, 2121, 2107, 2116, 2116, 2116, 2114, 2102, 2090, 2097, 2095, 2088, 2083, 2093, 2084, 2095, 2099, 2103, 2096, 2089, 2095, 2092, 2088, 2079, 2082, 2089, 2097, 2109, 2115, 2104, 2098, 2099, 2103, 2108, 2110, 2116, 2109, 2111, 2120, 2100, 2106, 2103, 2097, 2097, 2098, 2080, 2086, 2096, 2096, 2108, 2089, 2093, 2089, 2092, 2083, 2104, 2079, 2088, 2074, 2085, 2096, 2089, 2100, 2094, 2104, 2100, 2102, 2089, 2096, 2094, 2095, 2102, 2104, 2089, 2097, 2107, 2100, 2106, 2101, 2103, 2107, 2107, 2107, 2107, 2107, 2103, 2100, 2102, 2112, 2094, 2097, 2104, 2109],
      "WindowCenter": [1009.0, 1009.0, 1009.0, 1009.0, 1009.0, 1009.0, 1009.0, 1009.0, 1009.0, 1009.0, 1009.0, 1009.0, 1009.0, 1009.0, 1009.0, 1009.0, 1009.0, 1009.0, 1009.0, 1009.0, 1009.0, 1009.0, 1009.0, 1009.0, 1009.0, 1009.0, 1009.0, 1010.0, 1009.0, 1010.0, 1009.0, 1009.0, 1009.0, 1009.0, 1009.0, 1009.0, 1009.0, 1009.0, 1009.0, 1010.0, 1009.0, 1009.0, 1009.0, 1009.0, 1009.0, 1009.0, 1009.0, 1009.0, 1009.0, 1010.0, 1009.0, 1009.0, 1009.0, 1009.0, 1009.0, 1009.0, 1010.0, 1009.0, 1009.0, 1009.0, 1010.0, 1009.0, 1009.0, 1009.0, 1009.0, 1009.0, 1009.0, 1009.0, 1009.0, 1009.0, 1009.0, 1009.0, 1009.0, 1009.0, 1009.0, 1008.0, 1008.0, 1009.0, 1008.0, 1008.0, 1009.0, 1009.0, 1009.0, 1008.0, 1009.0, 1008.0, 1008.0, 1008.0, 1008.0, 1009.0, 1008.0, 1008.0, 1008.0, 1008.0, 1008.0, 1008.0, 1008.0, 1009.0, 1008.0, 1008.0, 1008.0, 1009.0, 1009.0, 1008.0, 1008.0, 1008.0, 1008.0, 1008.0, 1008.0, 1008.0, 1008.0, 1008.0, 1008.0, 1008.0, 1008.0, 1008.0, 1008.0, 1008.0, 1008.0, 1009.0, 1008.0, 1008.0, 1008.0, 1008.0, 1008.0, 1008.0, 1009.0, 1008.0, 1008.0, 1008.0, 1008.0, 1008.0, 1008.0, 1009.0, 1008.0, 1009.0, 1009.0, 1008.0, 1009.0, 1008.0, 1008.0, 1008.0, 1008.0, 1008.0, 1008.0, 1008.0, 1008.0, 1008.0, 1008.0, 1008.0, 1009.0, 1008.0, 1008.0, 1008.0, 1008.0, 1008.0, 1009.0, 1009.0, 1008.0, 1009.0, 1009.0, 1008.0, 1008.0, 1008.0, 1008.0, 1008.0, 1008.0, 1008.0, 1008.0, 1008.0, 1009.0, 1008.0, 1008.0, 1008.0, 1008.0, 1009.0, 1008.0, 1008.0, 1008.0, 1008.0, 1008.0, 1008.0, 1008.0, 1009.0, 1008.0, 1008.0, 1008.0, 1008.0, 1008.0, 1008.0, 1008.0, 1008.0, 1008.0, 1008.0, 1009.0, 1008.0, 1008.0, 1008.0, 1008.0, 1008.0],
      "WindowWidth": [2234.0, 2234.0, 2234.0, 2233.0, 2233.0, 2234.0, 2234.0, 2234.0, 2234.0, 2234.0, 2234.0, 2234.0, 2234.0, 2233.0, 2233.0, 2233.0, 2233.0, 2233.0, 2233.0, 2233.0, 2233.0, 2233.0, 2233.0, 2233.0, 2233.0, 2233.0, 2233.0, 2234.0, 2233.0, 2234.0, 2233.0, 2233.0, 2233.0, 2233.0, 2233.0, 2233.0, 2233.0, 2233.0, 2233.0, 2234.0, 2233.0, 2233.0, 2233.0, 2233.0, 2232.0, 2233.0, 2232.0, 2232.0, 2233.0, 2233.0, 2232.0, 2232.0, 2232.0, 2232.0, 2232.0, 2232.0, 2233.0, 2232.0, 2232.0, 2232.0, 2233.0, 2232.0, 2232.0, 2232.0, 2232.0, 2232.0, 2232.0, 2232.0, 2232.0, 2232.0, 2232.0, 2232.0, 2232.0, 2232.0, 2232.0, 2232.0, 2232.0, 2233.0, 2232.0, 2232.0, 2231.0, 2232.0, 2232.0, 2231.0, 2232.0, 2231.0, 2231.0, 2231.0, 2232.0, 2232.0, 2231.0, 2231.0, 2231.0, 2231.0, 2231.0, 2231.0, 2231.0, 2232.0, 2231.0, 2230.0, 2231.0, 2232.0, 2232.0, 2231.0, 2231.0, 2231.0, 2231.0, 2231.0, 2231.0, 2231.0, 2231.0, 2231.0, 2231.0, 2231.0, 2231.0, 2231.0, 2231.0, 2231.0, 2231.0, 2231.0, 2231.0, 2230.0, 2231.0, 2231.0, 2231.0, 2231.0, 2231.0, 2231.0, 2231.0, 2231.0, 2231.0, 2231.0, 2231.0, 2231.0, 2231.0, 2231.0, 2231.0, 2231.0, 2232.0, 2231.0, 2230.0, 2231.0, 2231.0, 2231.0, 2231.0, 2230.0, 2231.0, 2230.0, 2231.0, 2231.0, 2231.0, 2231.0, 2231.0, 2231.0, 2231.0, 2231.0, 2231.0, 2231.0, 2231.0, 2231.0, 2231.0, 2231.0, 2231.0, 2231.0, 2230.0, 2231.0, 2231.0, 2231.0, 2231.0, 2231.0, 2231.0, 2231.0, 2231.0, 2231.0, 2231.0, 2231.0, 2231.0, 2231.0, 2230.0, 2231.0, 2230.0, 2231.0, 2231.0, 2231.0, 2231.0, 2231.0, 2230.0, 2230.0, 2230.0, 2230.0, 2231.0, 2230.0, 2231.0, 2231.0, 2231.0, 2231.0, 2230.0, 2231.0, 2230.0, 2231.0]
    },
    "slices": {}
  }
}