{
  "AcquisitionMatrixPE": 80,
  "AcquisitionNumber": 1,
  "AcquisitionTime": "09:13:38.197500",
  "BandwidthPerPixelPhaseEncode": 48.077,
  "BaseResolution": 80,
  "BodyPartExamined": "BRAIN",
  "CoilCombinationMethod": "Sum of Squares",
  "ConsistencyInfo": "N4_VE11C_LATEST_20160120",
  "ConversionSoftware": "dcm2niix",
  "ConversionSoftwareVersion": "v1.0.20220720",
  "DerivedVendorReportedEchoSpacing": 0.000519999,
  "DeviceSerialNumber": "66112",
  "DwellTime": 2.7e-06,
  "EchoTime": 0.035,
  "EchoTrainLength": 39,
  "EffectiveEchoSpacing": 0.00026,
  "FlipAngle": 90,
  "HeudiconvVersion": "0.13.1",
  "ImageOrientationPatientDICOM": [0.981075, 0.193157, 0.0135194, -0.18786, 0.932601, 0.308163],
  "ImageOrientationText": "Tra>Cor(17.8)>Sag(-2.7)",
  "ImageType": [
    "ORIGINAL",
    "PRIMARY",
    "M",
    "ND",
    "NORM",
    "MOSAIC"
],
  "ImagingFrequency": 123.253,
  "InPlanePhaseEncodingDirectionDICOM": "COL",
  "InstitutionAddress": "Maynard 3,Hanover,NH,US,03755",
  "InstitutionName": "Dartmouth College - PBS",
  "InstitutionalDepartmentName": "Department",
  "MRAcquisitionType": "2D",
  "MagneticFieldStrength": 3,
  "Manufacturer": "Siemens",
  "ManufacturersModelName": "Prisma",
  "MatrixCoilMode": "GRAPPA",
  "Modality": "MR",
  "NonlinearGradientCorrection": false,
  "ParallelReductionFactorInPlane": 2,
  "PartialFourier": 1,
  "PatientPosition": "HFS",
  "PercentPhaseFOV": 100,
  "PercentSampling": 100,
  "PhaseEncodingDirection": "j-",
  "PhaseEncodingSteps": 79,
  "PhaseResolution": 1,
  "PixelBandwidth": 2315,
  "ProcedureStepDescription": "dbic^QA",
  "ProtocolName": "BOLD_p2",
  "PulseSequenceDetails": "%SiemensSeq%\\ep2d_bold",
  "ReceiveCoilActiveElements": "HEA;HEP",
  "ReceiveCoilName": "Head_32",
  "ReconMatrixPE": 80,
  "RefLinesPE": 24,
  "RepetitionTime": 2,
  "SAR": 0.0477006,
  "ScanOptions": "FS",
  "ScanningSequence": "EP",
  "SequenceName": "*epfid2d1_80",
  "SequenceVariant": "SK",
  "SeriesDescription": "BOLD_p2",
  "SeriesNumber": 5,
  "ShimSetting": [4160, -7702, -7518, 204, -28, -226, 3, 111],
  "SliceThickness": 3.5,
  "SliceTiming": [0.99, 0, 1.0575, 0.0675, 1.1225, 0.1325, 1.19, 0.2, 1.255, 0.265, 1.32, 0.33, 1.3875, 0.3975, 1.4525, 0.4625, 1.52, 0.53, 1.585, 0.595, 1.65, 0.66, 1.7175, 0.7275, 1.7825, 0.7925, 1.85, 0.86, 1.915, 0.925],
  "SoftwareVersions": "syngo MR E11",
  "SpacingBetweenSlices": 3.99,
  "StationName": "AWP66112",
  "TaskName": "rest",
  "TotalReadoutTime": 0.02054,
  "TxRefAmp": 226.679,
  "dcmmeta_affine": [
    [-2.9432241916656494, -0.5635797381401062, -0.18719345331192017, 146.9560089111328],
    [-0.579471230506897, 2.797802209854126, 1.216434359550476, -87.76620483398438],
    [0.04055827856063843, -0.9244892597198486, 3.7954375743865967, -20.451038360595703],
    [0.0, 0.0, 0.0, 1.0]
],
  "dcmmeta_reorient_transform": [
    [0.0, -1.0, 0.0, 79.0],
    [1.0, 0.0, 0.0, 0.0],
    [0.0, 0.0, 1.0, 0.0],
    [0.0, 0.0, 0.0, 1.0]
],
  "dcmmeta_shape": [80, 80, 30, 157],
  "dcmmeta_slice_dim": 2,
  "dcmmeta_version": 0.6,
  "global": {
    "const": {
      "AccessionNumber": "qa",
      "AcquisitionMatrix": [80, 0, 0, 80],
      "AngioFlag": "N",
      "BitsAllocated": 16,
      "BitsStored": 12,
      "BodyPartExamined": "BRAIN",
      "Columns": 480,
      "EchoNumbers": 1,
      "EchoTime": 35.0,
      "EchoTrainLength": 39,
      "FlipAngle": 90.0,
      "HighBit": 11,
      "ImageOrientationPatient": [0.98107470231688, 0.19315706972783, 0.01351942631918, -0.1878599215501, 0.93260075201003, 0.30816308543611],
      "ImagePositionPatient": [-578.36207819865, -808.71486974177, -286.49519752631],
      "ImageType": [
        "ORIGINAL",
        "PRIMARY",
        "M",
        "ND",
        "NORM",
        "MOSAIC"
],
      "ImagedNucleus": "1H",
      "ImagingFrequency": 123.252545,
      "InPlanePhaseEncodingDirection": "COL",
      "MRAcquisitionType": "2D",
      "MagneticFieldStrength": 3.0,
      "Manufacturer": "SIEMENS",
      "ManufacturerModelName": "Prisma",
      "Modality": "MR",
      "NumberOfAverages": 1.0,
      "NumberOfPhaseEncodingSteps": 79,
      "PercentPhaseFieldOfView": 100.0,
      "PercentSampling": 100.0,
      "PerformedProcedureStepStartTime": "091032.680000",
      "PhotometricInterpretation": "MONOCHROME2",
      "PixelBandwidth": 2315.0,
      "PixelRepresentation": 0,
      "PixelSpacing": [3.0, 3.0],
      "ProtocolName": "BOLD_p2",
      "RepetitionTime": 2000.0,
      "Rows": 480,
      "SAR": 0.04770057325337,
      "SamplesPerPixel": 1,
      "ScanOptions": "FS",
      "ScanningSequence": "EP",
      "SequenceName": "*epfid2d1_80",
      "SequenceVariant": "SK",
      "SeriesDescription": "BOLD_p2",
      "SeriesNumber": 5,
      "SeriesTime": "091423.978000",
      "SliceLocation": -53.105681011289,
      "SliceThickness": 3.5,
      "SmallestImagePixelValue": 0,
      "SoftwareVersions": "syngo MR E11",
      "SpacingBetweenSlices": 3.9899999920534,
      "SpecificCharacterSet": "ISO_IR 100",
      "StudyID": "30",
      "StudyTime": "091032.579000",
      "TransmitCoilName": "Body",
      "VariableFlipAngleFlag": "N",
      "WindowCenterWidthExplanation": "Algo1",
      "dBdt": 0.0},
    "slices": {}
  },
  "time": {
    "samples": {
      "AcquisitionNumber": [1, 2, 3, 4, 5, 6, 7, 8, 9, 10, 11, 12, 13, 14, 15, 16, 17, 18, 19, 20, 21, 22, 23, 24, 25, 26, 27, 28, 29, 30, 31, 32, 33, 34, 35, 36, 37, 38, 39, 40, 41, 42, 43, 44, 45, 46, 47, 48, 49, 50, 51, 52, 53, 54, 55, 56, 57, 58, 59, 60, 61, 62, 63, 64, 65, 66, 67, 68, 69, 70, 71, 72, 73, 74, 75, 76, 77, 78, 79, 80, 81, 82, 83, 84, 85, 86, 87, 88, 89, 90, 91, 92, 93, 94, 95, 96, 97, 98, 99, 100, 101, 102, 103, 104, 105, 106, 107, 108, 109, 110, 111, 112, 113, 114, 115, 116, 117, 118, 119, 120, 121, 122, 123, 124, 125, 126, 127, 128, 129, 130, 131, 132, 133, 134, 135, 136, 137, 138, 139, 140, 141, 142, 143, 144, 145, 146, 147, 148, 149, 150, 151, 152, 153, 154, 155, 156, 157],
      "AcquisitionTime": ["091338.197500", "091340.197500", "091342.197500", "091344.197500", "091346.197500", "091348.197500", "091350.197500", "091352.197500", "091354.197500", "091356.197500", "091358.197500", "091400.197500", "091402.197500", "091404.197500", "091406.197500", "091408.197500", "091410.197500", "091412.197500", "091414.197500", "091416.197500", "091418.197500", "091420.197500", "091422.197500", "091424.197500", "091426.197500", "091428.197500", "091430.197500", "091432.197500", "091434.197500", "091436.197500", "091438.197500", "091440.197500", "091442.197500", "091444.197500", "091446.197500", "091448.197500", "091450.197500", "091452.197500", "091454.197500", "091456.197500", "091458.197500", "091500.197500", "091502.197500", "091504.197500", "091506.197500", "091508.197500", "091510.197500", "091512.197500", "091514.197500", "091516.197500", "091518.197500", "091520.197500", "091522.197500", "091524.197500", "091526.197500", "091528.197500", "091530.197500", "091532.197500", "091534.197500", "091536.197500", "091538.197500", "091540.197500", "091542.197500", "091544.197500", "091546.197500", "091548.197500", "091550.197500", "091552.197500", "091554.197500", "091556.197500", "091558.197500", "091600.197500", "091602.197500", "091604.197500", "091606.197500", "091608.197500", "091610.197500", "091612.197500", "091614.197500", "091616.197500", "091618.197500", "091620.197500", "091622.197500", "091624.197500", "091626.197500", "091628.197500", "091630.197500", "091632.197500", "091634.197500", "091636.197500", "091638.197500", "091640.197500", "091642.197500", "091644.197500", "091646.197500", "091648.197500", "091650.197500", "091652.197500", "091654.197500", "091656.197500", "091658.197500", "091700.197500", "091702.197500", "091704.197500", "091706.197500", "091708.197500", "091710.197500", "091712.197500", "091714.197500", "091716.197500", "091718.197500", "091720.197500", "091722.197500", "091724.197500", "091726.197500", "091728.197500", "091730.197500", "091732.197500", "091734.197500", "091736.197500", "091738.197500", "091740.197500", "091742.197500", "091744.197500", "091746.197500", "091748.197500", "091750.197500", "091752.197500", "091754.197500", "091756.197500", "091758.197500", "091800.197500", "091802.197500", "091804.197500", "091806.197500", "091808.197500", "091810.197500", "091812.197500", "091814.197500", "091816.197500", "091818.197500", "091820.197500", "091822.197500", "091824.197500", "091826.197500", "091828.197500", "091830.197500", "091832.197500", "091834.197500", "091836.197500", "091838.197500", "091840.197500", "091842.197500", "091844.197500", "091846.197500", "091848.197500", "091850.197500"],
      "ContentTime": ["091423.981000", "091423.985000", "091423.987000", "091423.990000", "091423.993000", "091423.995000", "091423.998000", "091424.001000", "091424.004000", "091424.006000", "091424.009000", "091424.019000", "091424.022000", "091424.024000", "091424.027000", "091424.029000", "091424.032000", "091424.034000", "091424.037000", "091424.039000", "091424.042000", "091424.044000", "091424.047000", "091503.976000", "091503.979000", "091503.982000", "091503.984000", "091503.987000", "091503.989000", "091503.992000", "091503.995000", "091503.997000", "091504.001000", "091504.003000", "091504.006000", "091504.008000", "091504.011000", "091504.013000", "091504.016000", "091504.018000", "091504.021000", "091504.023000", "091504.026000", "091543.977000", "091543.980000", "091543.983000", "091543.986000", "091543.988000", "091543.991000", "091543.993000", "091543.996000", "091543.998000", "091544.002000", "091544.004000", "091544.007000", "091544.009000", "091544.012000", "091544.014000", "091544.017000", "091544.019000", "091544.022000", "091544.024000", "091544.027000", "091623.976000", "091623.979000", "091623.982000", "091623.985000", "091623.987000", "091623.989000", "091623.992000", "091623.995000", "091623.997000", "091624.001000", "091624.003000", "091624.006000", "091624.009000", "091624.011000", "091624.014000", "091624.016000", "091624.019000", "091624.021000", "091624.024000", "091624.026000", "091703.976000", "091703.985000", "091703.988000", "091703.991000", "091703.993000", "091703.996000", "091703.998000", "091704.001000", "091704.004000", "091704.006000", "091704.009000", "091704.012000", "091704.014000", "091704.017000", "091704.019000", "091704.022000", "091704.024000", "091704.027000", "091704.029000", "091704.032000", "091743.976000", "091743.979000", "091743.982000", "091743.984000", "091743.987000", "091743.989000", "091743.992000", "091743.995000", "091743.997000", "091744.001000", "091744.003000", "091744.006000", "091744.008000", "091744.011000", "091744.013000", "091744.016000", "091744.019000", "091744.021000", "091744.024000", "091744.026000", "091823.976000", "091823.979000", "091823.982000", "091823.985000", "091823.987000", "091823.990000", "091823.992000", "091823.995000", "091823.997000", "091824.001000", "091824.003000", "091824.006000", "091824.008000", "091824.011000", "091824.013000", "091824.016000", "091824.019000", "091824.021000", "091824.024000", "091824.026000", "091851.621000", "091851.623000", "091851.626000", "091851.629000", "091851.631000", "091851.634000", "091851.636000", "091851.639000", "091851.642000", "091851.644000", "091851.647000", "091851.655000", "091851.659000", "091851.666000"],
      "InstanceCreationTime": ["091423.981000", "091423.985000", "091423.987000", "091423.990000", "091423.993000", "091423.995000", "091423.998000", "091424.001000", "091424.004000", "091424.006000", "091424.009000", "091424.019000", "091424.022000", "091424.024000", "091424.027000", "091424.029000", "091424.032000", "091424.034000", "091424.037000", "091424.039000", "091424.042000", "091424.044000", "091424.047000", "091503.976000", "091503.979000", "091503.982000", "091503.984000", "091503.987000", "091503.989000", "091503.992000", "091503.995000", "091503.997000", "091504.001000", "091504.003000", "091504.006000", "091504.008000", "091504.011000", "091504.013000", "091504.016000", "091504.018000", "091504.021000", "091504.023000", "091504.026000", "091543.977000", "091543.980000", "091543.983000", "091543.986000", "091543.988000", "091543.991000", "091543.993000", "091543.996000", "091543.998000", "091544.002000", "091544.004000", "091544.007000", "091544.009000", "091544.012000", "091544.014000", "091544.017000", "091544.019000", "091544.022000", "091544.024000", "091544.027000", "091623.976000", "091623.979000", "091623.982000", "091623.985000", "091623.987000", "091623.989000", "091623.992000", "091623.995000", "091623.997000", "091624.001000", "091624.003000", "091624.006000", "091624.009000", "091624.011000", "091624.014000", "091624.016000", "091624.019000", "091624.021000", "091624.024000", "091624.026000", "091703.976000", "091703.985000", "091703.988000", "091703.991000", "091703.993000", "091703.996000", "091703.998000", "091704.001000", "091704.004000", "091704.006000", "091704.009000", "091704.012000", "091704.014000", "091704.017000", "091704.019000", "091704.022000", "091704.024000", "091704.027000", "091704.029000", "091704.032000", "091743.976000", "091743.979000", "091743.982000", "091743.984000", "091743.987000", "091743.989000", "091743.992000", "091743.995000", "091743.997000", "091744.001000", "091744.003000", "091744.006000", "091744.008000", "091744.011000", "091744.013000", "091744.016000", "091744.019000", "091744.021000", "091744.024000", "091744.026000", "091823.976000", "091823.979000", "091823.982000", "091823.985000", "091823.987000", "091823.990000", "091823.992000", "091823.995000", "091823.997000", "091824.001000", "091824.003000", "091824.006000", "091824.008000", "091824.011000", "091824.013000", "091824.016000", "091824.019000", "091824.021000", "091824.024000", "091824.026000", "091851.621000", "091851.623000", "091851.626000", "091851.629000", "091851.631000", "091851.634000", "091851.636000", "091851.639000", "091851.642000", "091851.644000", "091851.647000", "091851.655000", "091851.659000", "091851.666000"],
      "InstanceNumber": [1, 2, 3, 4, 5, 6, 7, 8, 9, 10, 11, 12, 13, 14, 15, 16, 17, 18, 19, 20, 21, 22, 23, 24, 25, 26, 27, 28, 29, 30, 31, 32, 33, 34, 35, 36, 37, 38, 39, 40, 41, 42, 43, 44, 45, 46, 47, 48, 49, 50, 51, 52, 53, 54, 55, 56, 57, 58, 59, 60, 61, 62, 63, 64, 65, 66, 67, 68, 69, 70, 71, 72, 73, 74, 75, 76, 77, 78, 79, 80, 81, 82, 83, 84, 85, 86, 87, 88, 89, 90, 91, 92, 93, 94, 95, 96, 97, 98, 99, 100, 101, 102, 103, 104, 105, 106, 107, 108, 109, 110, 111, 112, 113, 114, 115, 116, 117, 118, 119, 120, 121, 122, 123, 124, 125, 126, 127, 128, 129, 130, 131, 132, 133, 134, 135, 136, 137, 138, 139, 140, 141, 142, 143, 144, 145, 146, 147, 148, 149, 150, 151, 152, 153, 154, 155, 156, 157],
      "LargestImagePixelValue": [2156, 2150, 2156, 2156, 2157, 2149, 2156, 2151, 2161, 2161, 2161, 2156, 2153, 2156, 2160, 2159, 2163, 2153, 2155, 2158, 2155, 2161, 2156, 2153, 2162, 2147, 2152, 2153, 2149, 2151, 2162, 2162, 2151, 2155, 2152, 2154, 2161, 2157, 2157, 2150, 2153, 2162, 2156, 2159, 2155, 2159, 2152, 2155, 2162, 2145, 2157, 2159, 2161, 2153, 2150, 2154, 2155, 2156, 2159, 2157, 2160, 2159, 2161, 2163, 2159, 2157, 2158, 2162, 2149, 2152, 2156, 2159, 2160, 2153, 2158, 2155, 2156, 2152, 2156, 2150, 2158, 2156, 2156, 2162, 2150, 2158, 2155, 2154, 2157, 2149, 2156, 2151, 2157, 2151, 2160, 2155, 2158, 2154, 2155, 2155, 2159, 2156, 2159, 2154, 2155, 2159, 2158, 2150, 2165, 2163, 2166, 2156, 2160, 2156, 2154, 2157, 2155, 2156, 2153, 2157, 2157, 2153, 2157, 2161, 2160, 2165, 2152, 2153, 2158, 2165, 2155, 2149, 2155, 2161, 2152, 2154, 2164, 2166, 2159, 2159, 2155, 2162, 2157, 2158, 2159, 2159, 2157, 2159, 2158, 2158, 2150, 2147, 2154, 2153, 2156, 2161, 2154],
      "WindowCenter": [1016.0, 1016.0, 1016.0, 1016.0, 1016.0, 1017.0, 1016.0, 1016.0, 1016.0, 1016.0, 1016.0, 1016.0, 1018.0, 1017.0, 1016.0, 1016.0, 1017.0, 1017.0, 1016.0, 1016.0, 1016.0, 1016.0, 1016.0, 1016.0, 1016.0, 1017.0, 1016.0, 1016.0, 1016.0, 1016.0, 1016.0, 1016.0, 1016.0, 1016.0, 1016.0, 1016.0, 1017.0, 1017.0, 1016.0, 1016.0, 1017.0, 1017.0, 1017.0, 1017.0, 1016.0, 1016.0, 1017.0, 1016.0, 1017.0, 1016.0, 1016.0, 1017.0, 1016.0, 1016.0, 1016.0, 1016.0, 1016.0, 1016.0, 1017.0, 1017.0, 1016.0, 1016.0, 1017.0, 1016.0, 1016.0, 1016.0, 1017.0, 1016.0, 1016.0, 1016.0, 1016.0, 1016.0, 1016.0, 1016.0, 1017.0, 1016.0, 1017.0, 1016.0, 1017.0, 1017.0, 1016.0, 1016.0, 1016.0, 1016.0, 1016.0, 1017.0, 1016.0, 1016.0, 1016.0, 1017.0, 1016.0, 1017.0, 1017.0, 1017.0, 1017.0, 1016.0, 1016.0, 1016.0, 1016.0, 1016.0, 1016.0, 1016.0, 1017.0, 1016.0, 1016.0, 1016.0, 1016.0, 1016.0, 1016.0, 1017.0, 1017.0, 1017.0, 1016.0, 1016.0, 1017.0, 1016.0, 1017.0, 1016.0, 1016.0, 1016.0, 1016.0, 1016.0, 1017.0, 1017.0, 1016.0, 1016.0, 1017.0, 1016.0, 1016.0, 1016.0, 1017.0, 1016.0, 1016.0, 1017.0, 1016.0, 1017.0, 1016.0, 1017.0, 1016.0, 1017.0, 1016.0, 1016.0, 1016.0, 1017.0, 1017.0, 1016.0, 1016.0, 1017.0, 1017.0, 1017.0, 1016.0, 1016.0, 1016.0, 1016.0, 1016.0, 1016.0, 1017.0],
      "WindowWidth": [2255.0, 2255.0, 2255.0, 2254.0, 2254.0, 2255.0, 2254.0, 2255.0, 2255.0, 2254.0, 2255.0, 2254.0, 2256.0, 2255.0, 2254.0, 2254.0, 2255.0, 2255.0, 2254.0, 2254.0, 2254.0, 2254.0, 2254.0, 2254.0, 2254.0, 2255.0, 2254.0, 2254.0, 2254.0, 2254.0, 2254.0, 2254.0, 2254.0, 2254.0, 2254.0, 2254.0, 2255.0, 2255.0, 2254.0, 2254.0, 2255.0, 2255.0, 2255.0, 2255.0, 2255.0, 2254.0, 2255.0, 2255.0, 2255.0, 2254.0, 2254.0, 2255.0, 2254.0, 2255.0, 2254.0, 2255.0, 2255.0, 2255.0, 2256.0, 2256.0, 2254.0, 2254.0, 2256.0, 2255.0, 2254.0, 2255.0, 2255.0, 2254.0, 2255.0, 2254.0, 2255.0, 2255.0, 2254.0, 2254.0, 2256.0, 2255.0, 2255.0, 2254.0, 2255.0, 2256.0, 2255.0, 2255.0, 2254.0, 2254.0, 2255.0, 2256.0, 2254.0, 2254.0, 2254.0, 2255.0, 2254.0, 2255.0, 2256.0, 2256.0, 2256.0, 2254.0, 2255.0, 2255.0, 2254.0, 2255.0, 2255.0, 2255.0, 2256.0, 2254.0, 2254.0, 2254.0, 2254.0, 2254.0, 2254.0, 2256.0, 2256.0, 2256.0, 2254.0, 2254.0, 2255.0, 2254.0, 2255.0, 2254.0, 2254.0, 2255.0, 2254.0, 2254.0, 2255.0, 2255.0, 2254.0, 2254.0, 2255.0, 2254.0, 2254.0, 2254.0, 2255.0, 2254.0, 2254.0, 2255.0, 2254.0, 2255.0, 2254.0, 2255.0, 2254.0, 2255.0, 2254.0, 2254.0, 2254.0, 2254.0, 2254.0, 2254.0, 2254.0, 2254.0, 2255.0, 2254.0, 2254.0, 2254.0, 2254.0, 2254.0, 2254.0, 2254.0, 2254.0]
    },
    "slices": {}
  }
}