{
  "AcquisitionDateTime": "2017-02-13T91:90:6.140625", 
  "ConversionSoftware": "dcm2niix", 
  "ConversionSoftwareVersion": "v1.0.20170130", 
  "EchoTime": 0.035, 
  "EffectiveEchoSpacing": 0.000279999, 
  "FlipAngle": 90, 
  "ImageType": [
    "ORIGINAL", 
    "PRIMARY", 
    "M", 
    "ND", 
    "NORM", 
    "MOSAIC"
], 
  "MagneticFieldStrength": 3, 
  "Manufacturer": "Siemens", 
  "ManufacturersModelName": "Prisma", 
  "PhaseEncodingDirection": "j-", 
  "ProcedureStepDescription": "dbic_QA", 
  "ProtocolName": "BOLD_p2_s4_3.5mm", 
  "RepetitionTime": 2, 
  "SliceTiming": [1.485, 0, 0.99, 0.2475, 1.2375, 0.7425, 1.7325, 0.495, 1.485, 0, 0.99, 0.2475, 1.2375, 0.7425, 1.7325, 0.495, 1.485, 0, 0.99, 0.2475, 1.2375, 0.7425, 1.7325, 0.495, 1.485, 0, 0.99, 0.2475, 1.2375, 0.7425, 1.7325, 0.495], 
  "dcmmeta_affine": [
    [-2.9432241916656494, -0.5635797381401062, -0.18719345331192017, 147.14320373535156], 
    [-0.579471230506897, 2.797802209854126, 1.216434359550476, -88.98263549804688], 
    [0.04055827856063843, -0.9244892597198486, 3.7954375743865967, -24.246475219726562], 
    [0.0, 0.0, 0.0, 1.0]
], 
  "dcmmeta_reorient_transform": [
    [0.0, -1.0, 0.0, 79.0], 
    [1.0, 0.0, 0.0, 0.0], 
    [0.0, 0.0, 1.0, 0.0], 
    [0.0, 0.0, 0.0, 1.0]
], 
  "dcmmeta_shape": [80, 80, 32, 157], 
  "dcmmeta_slice_dim": 2, 
  "dcmmeta_version": 0.6, 
  "global": {
    "const": {
      "AccessionNumber": "qa", 
      "AcquisitionMatrix": [80, 0, 0, 80], 
      "AngioFlag": "N", 
      "BitsAllocated": 16, 
      "BitsStored": 12, 
      "BodyPartExamined": "BRAIN", 
      "Columns": 480, 
      "EchoNumbers": 1, 
      "EchoTime": 35.0, 
      "EchoTrainLength": 39, 
      "FlipAngle": 90.0, 
      "HighBit": 11, 
      "ImageOrientationPatient": [0.98107470231688, 0.19315706972783, 0.01351942631918, -0.1878599215501, 0.93260075201003, 0.30816308543611], 
      "ImagePositionPatient": [-578.5492720692, -807.49843526301, -290.29063438544], 
      "ImageType": [
        "ORIGINAL", 
        "PRIMARY", 
        "M", 
        "ND", 
        "NORM", 
        "MOSAIC"
], 
      "ImagedNucleus": "1H", 
      "ImagingFrequency": 123.252543, 
      "InPlanePhaseEncodingDirection": "COL", 
      "MRAcquisitionType": "2D", 
      "MagneticFieldStrength": 3.0, 
      "Manufacturer": "SIEMENS", 
      "ManufacturerModelName": "Prisma", 
      "Modality": "MR", 
      "NumberOfAverages": 1.0, 
      "NumberOfPhaseEncodingSteps": 79, 
      "PercentPhaseFieldOfView": 100.0, 
      "PercentSampling": 100.0, 
      "PerformedProcedureStepStartTime": "091032.680000", 
      "PhotometricInterpretation": "MONOCHROME2", 
      "PixelBandwidth": 2315.0, 
      "PixelRepresentation": 0, 
      "PixelSpacing": [3.0, 3.0], 
      "PositionReferenceIndicator": "", 
      "ProtocolName": "BOLD_p2_s4_3.5mm", 
      "RepetitionTime": 2000.0, 
      "Rows": 480, 
      "SAR": 0.01795634094085, 
      "SamplesPerPixel": 1, 
      "ScanOptions": "FS", 
      "ScanningSequence": "EP", 
      "SequenceName": "*epfid2d1_80", 
      "SequenceVariant": "SK", 
      "SeriesDescription": "BOLD_p2_s4_3.5mm", 
      "SeriesNumber": 7, 
      "SeriesTime": "092004.048000", 
      "SliceLocation": -57.09568042707, 
      "SliceThickness": 3.5, 
      "SmallestImagePixelValue": 0, 
      "SoftwareVersions": "syngo MR E11", 
      "SpacingBetweenSlices": 3.9899999543333, 
      "SpecificCharacterSet": "ISO_IR 100", 
      "StudyID": "30", 
      "StudyTime": "091032.579000", 
      "TransmitCoilName": "Body", 
      "VariableFlipAngleFlag": "N", 
      "WindowCenter": 944.0, 
      "WindowCenterWidthExplanation": "Algo1", 
      "dBdt": 0.0}, 
    "slices": {}
  }, 
  "time": {
    "samples": {
      "AcquisitionNumber": [1, 2, 3, 4, 5, 6, 7, 8, 9, 10, 11, 12, 13, 14, 15, 16, 17, 18, 19, 20, 21, 22, 23, 24, 25, 26, 27, 28, 29, 30, 31, 32, 33, 34, 35, 36, 37, 38, 39, 40, 41, 42, 43, 44, 45, 46, 47, 48, 49, 50, 51, 52, 53, 54, 55, 56, 57, 58, 59, 60, 61, 62, 63, 64, 65, 66, 67, 68, 69, 70, 71, 72, 73, 74, 75, 76, 77, 78, 79, 80, 81, 82, 83, 84, 85, 86, 87, 88, 89, 90, 91, 92, 93, 94, 95, 96, 97, 98, 99, 100, 101, 102, 103, 104, 105, 106, 107, 108, 109, 110, 111, 112, 113, 114, 115, 116, 117, 118, 119, 120, 121, 122, 123, 124, 125, 126, 127, 128, 129, 130, 131, 132, 133, 134, 135, 136, 137, 138, 139, 140, 141, 142, 143, 144, 145, 146, 147, 148, 149, 150, 151, 152, 153, 154, 155, 156, 157], 
      "AcquisitionTime": ["091906.140000", "091908.140000", "091910.140000", "091912.140000", "091914.140000", "091916.140000", "091918.140000", "091920.140000", "091922.140000", "091924.140000", "091926.140000", "091928.140000", "091930.140000", "091932.140000", "091934.140000", "091936.140000", "091938.140000", "091940.140000", "091942.140000", "091944.140000", "091946.140000", "091948.140000", "091950.140000", "091952.140000", "091954.140000", "091956.140000", "091958.140000", "092000.140000", "092002.140000", "092004.140000", "092006.140000", "092008.140000", "092010.140000", "092012.140000", "092014.140000", "092016.140000", "092018.140000", "092020.140000", "092022.140000", "092024.140000", "092026.140000", "092028.140000", "092030.140000", "092032.140000", "092034.140000", "092036.140000", "092038.140000", "092040.140000", "092042.140000", "092044.140000", "092046.140000", "092048.140000", "092050.140000", "092052.140000", "092054.140000", "092056.140000", "092058.140000", "092100.140000", "092102.140000", "092104.140000", "092106.140000", "092108.140000", "092110.140000", "092112.140000", "092114.140000", "092116.140000", "092118.140000", "092120.140000", "092122.140000", "092124.140000", "092126.140000", "092128.140000", "092130.140000", "092132.140000", "092134.140000", "092136.140000", "092138.140000", "092140.140000", "092142.140000", "092144.140000", "092146.140000", "092148.140000", "092150.140000", "092152.140000", "092154.140000", "092156.140000", "092158.140000", "092200.140000", "092202.140000", "092204.140000", "092206.140000", "092208.140000", "092210.140000", "092212.140000", "092214.140000", "092216.140000", "092218.140000", "092220.140000", "092222.140000", "092224.140000", "092226.140000", "092228.140000", "092230.140000", "092232.140000", "092234.140000", "092236.140000", "092238.140000", "092240.140000", "092242.140000", "092244.140000", "092246.140000", "092248.140000", "092250.140000", "092252.140000", "092254.140000", "092256.140000", "092258.140000", "092300.140000", "092302.140000", "092304.140000", "092306.140000", "092308.140000", "092310.140000", "092312.140000", "092314.140000", "092316.140000", "092318.140000", "092320.140000", "092322.140000", "092324.140000", "092326.140000", "092328.140000", "092330.140000", "092332.140000", "092334.140000", "092336.140000", "092338.140000", "092340.140000", "092342.140000", "092344.140000", "092346.140000", "092348.140000", "092350.140000", "092352.140000", "092354.140000", "092356.140000", "092358.140000", "092400.140000", "092402.140000", "092404.140000", "092406.140000", "092408.140000", "092410.140000", "092412.140000", "092414.140000", "092416.140000", "092418.140000"], 
      "ContentTime": ["092004.051000", "092004.055000", "092004.057000", "092004.064000", "092004.072000", "092004.075000", "092004.082000", "092004.085000", "092004.088000", "092004.090000", "092004.093000", "092004.095000", "092004.098000", "092004.100000", "092004.103000", "092004.105000", "092004.108000", "092004.110000", "092004.113000", "092004.115000", "092004.118000", "092004.123000", "092004.125000", "092004.128000", "092004.130000", "092004.133000", "092004.135000", "092004.138000", "092004.141000", "092044.046000", "092044.049000", "092044.052000", "092044.055000", "092044.067000", "092044.070000", "092044.073000", "092044.075000", "092044.078000", "092044.080000", "092044.083000", "092044.085000", "092044.088000", "092044.090000", "092044.093000", "092044.095000", "092044.098000", "092044.100000", "092044.103000", "092044.105000", "092124.046000", "092124.049000", "092124.052000", "092124.054000", "092124.057000", "092124.059000", "092124.062000", "092124.065000", "092124.067000", "092124.070000", "092124.072000", "092124.075000", "092124.077000", "092124.080000", "092124.082000", "092124.085000", "092124.087000", "092124.090000", "092124.092000", "092124.095000", "092204.046000", "092204.049000", "092204.052000", "092204.055000", "092204.057000", "092204.059000", "092204.062000", "092204.065000", "092204.067000", "092204.070000", "092204.072000", "092204.075000", "092204.077000", "092204.080000", "092204.082000", "092204.085000", "092204.087000", "092204.090000", "092204.092000", "092204.095000", "092244.047000", "092244.050000", "092244.053000", "092244.055000", "092244.058000", "092244.060000", "092244.063000", "092244.066000", "092244.068000", "092244.071000", "092244.073000", "092244.076000", "092244.078000", "092244.081000", "092244.083000", "092244.086000", "092244.088000", "092244.091000", "092244.093000", "092244.096000", "092324.046000", "092324.049000", "092324.052000", "092324.054000", "092324.057000", "092324.059000", "092324.062000", "092324.065000", "092324.067000", "092324.070000", "092324.072000", "092324.075000", "092324.077000", "092324.080000", "092324.082000", "092324.085000", "092324.087000", "092324.090000", "092324.093000", "092324.095000", "092404.047000", "092404.049000", "092404.052000", "092404.055000", "092404.057000", "092404.060000", "092404.062000", "092404.065000", "092404.067000", "092404.070000", "092404.072000", "092404.075000", "092404.077000", "092404.080000", "092404.083000", "092404.085000", "092404.088000", "092404.090000", "092404.093000", "092404.095000", "092419.551000", "092419.554000", "092419.556000", "092419.559000", "092419.562000", "092419.564000", "092419.572000", "092419.575000"], 
      "InstanceCreationTime": ["092004.051000", "092004.055000", "092004.057000", "092004.064000", "092004.072000", "092004.075000", "092004.082000", "092004.085000", "092004.088000", "092004.090000", "092004.093000", "092004.095000", "092004.098000", "092004.100000", "092004.103000", "092004.105000", "092004.108000", "092004.110000", "092004.113000", "092004.115000", "092004.118000", "092004.123000", "092004.125000", "092004.128000", "092004.130000", "092004.133000", "092004.135000", "092004.138000", "092004.141000", "092044.046000", "092044.049000", "092044.052000", "092044.055000", "092044.067000", "092044.070000", "092044.073000", "092044.075000", "092044.078000", "092044.080000", "092044.083000", "092044.085000", "092044.088000", "092044.090000", "092044.093000", "092044.095000", "092044.098000", "092044.100000", "092044.103000", "092044.105000", "092124.046000", "092124.049000", "092124.052000", "092124.054000", "092124.057000", "092124.059000", "092124.062000", "092124.065000", "092124.067000", "092124.070000", "092124.072000", "092124.075000", "092124.077000", "092124.080000", "092124.082000", "092124.085000", "092124.087000", "092124.090000", "092124.092000", "092124.095000", "092204.046000", "092204.049000", "092204.052000", "092204.055000", "092204.057000", "092204.059000", "092204.062000", "092204.065000", "092204.067000", "092204.070000", "092204.072000", "092204.075000", "092204.077000", "092204.080000", "092204.082000", "092204.085000", "092204.087000", "092204.090000", "092204.092000", "092204.095000", "092244.047000", "092244.050000", "092244.053000", "092244.055000", "092244.058000", "092244.060000", "092244.063000", "092244.066000", "092244.068000", "092244.071000", "092244.073000", "092244.076000", "092244.078000", "092244.081000", "092244.083000", "092244.086000", "092244.088000", "092244.091000", "092244.093000", "092244.096000", "092324.046000", "092324.049000", "092324.052000", "092324.054000", "092324.057000", "092324.059000", "092324.062000", "092324.065000", "092324.067000", "092324.070000", "092324.072000", "092324.075000", "092324.077000", "092324.080000", "092324.082000", "092324.085000", "092324.087000", "092324.090000", "092324.093000", "092324.095000", "092404.047000", "092404.049000", "092404.052000", "092404.055000", "092404.057000", "092404.060000", "092404.062000", "092404.065000", "092404.067000", "092404.070000", "092404.072000", "092404.075000", "092404.077000", "092404.080000", "092404.083000", "092404.085000", "092404.088000", "092404.090000", "092404.093000", "092404.095000", "092419.551000", "092419.554000", "092419.556000", "092419.559000", "092419.562000", "092419.564000", "092419.572000", "092419.575000"], 
      "InstanceNumber": [1, 2, 3, 4, 5, 6, 7, 8, 9, 10, 11, 12, 13, 14, 15, 16, 17, 18, 19, 20, 21, 22, 23, 24, 25, 26, 27, 28, 29, 30, 31, 32, 33, 34, 35, 36, 37, 38, 39, 40, 41, 42, 43, 44, 45, 46, 47, 48, 49, 50, 51, 52, 53, 54, 55, 56, 57, 58, 59, 60, 61, 62, 63, 64, 65, 66, 67, 68, 69, 70, 71, 72, 73, 74, 75, 76, 77, 78, 79, 80, 81, 82, 83, 84, 85, 86, 87, 88, 89, 90, 91, 92, 93, 94, 95, 96, 97, 98, 99, 100, 101, 102, 103, 104, 105, 106, 107, 108, 109, 110, 111, 112, 113, 114, 115, 116, 117, 118, 119, 120, 121, 122, 123, 124, 125, 126, 127, 128, 129, 130, 131, 132, 133, 134, 135, 136, 137, 138, 139, 140, 141, 142, 143, 144, 145, 146, 147, 148, 149, 150, 151, 152, 153, 154, 155, 156, 157], 
      "LargestImagePixelValue": [2140, 2141, 2144, 2133, 2146, 2141, 2137, 2141, 2138, 2140, 2143, 2146, 2142, 2136, 2148, 2138, 2136, 2141, 2141, 2143, 2136, 2140, 2146, 2135, 2143, 2131, 2141, 2140, 2138, 2149, 2141, 2142, 2143, 2139, 2142, 2136, 2140, 2140, 2139, 2142, 2145, 2139, 2145, 2145, 2142, 2138, 2136, 2139, 2144, 2145, 2141, 2142, 2144, 2147, 2147, 2145, 2142, 2143, 2143, 2141, 2141, 2138, 2145, 2146, 2138, 2144, 2145, 2143, 2144, 2139, 2141, 2142, 2140, 2145, 2140, 2147, 2143, 2146, 2143, 2143, 2135, 2150, 2146, 2141, 2140, 2142, 2141, 2139, 2145, 2147, 2148, 2148, 2137, 2145, 2142, 2140, 2142, 2148, 2142, 2140, 2143, 2145, 2144, 2143, 2144, 2143, 2142, 2140, 2141, 2143, 2139, 2138, 2144, 2144, 2143, 2148, 2146, 2145, 2143, 2142, 2142, 2142, 2141, 2141, 2149, 2139, 2141, 2144, 2145, 2141, 2142, 2145, 2142, 2144, 2136, 2145, 2144, 2142, 2151, 2144, 2145, 2146, 2144, 2145, 2143, 2148, 2141, 2143, 2140, 2144, 2140, 2141, 2143, 2143, 2142, 2145, 2138], 
      "WindowWidth": [2187.0, 2187.0, 2187.0, 2187.0, 2187.0, 2187.0, 2187.0, 2187.0, 2187.0, 2187.0, 2187.0, 2187.0, 2187.0, 2187.0, 2187.0, 2187.0, 2187.0, 2187.0, 2187.0, 2187.0, 2187.0, 2187.0, 2187.0, 2187.0, 2187.0, 2187.0, 2187.0, 2187.0, 2187.0, 2187.0, 2187.0, 2187.0, 2187.0, 2187.0, 2187.0, 2187.0, 2187.0, 2187.0, 2187.0, 2187.0, 2187.0, 2187.0, 2187.0, 2187.0, 2187.0, 2187.0, 2187.0, 2187.0, 2187.0, 2187.0, 2188.0, 2187.0, 2187.0, 2187.0, 2187.0, 2187.0, 2187.0, 2187.0, 2187.0, 2187.0, 2187.0, 2187.0, 2187.0, 2187.0, 2187.0, 2187.0, 2187.0, 2187.0, 2187.0, 2187.0, 2187.0, 2187.0, 2188.0, 2187.0, 2187.0, 2187.0, 2187.0, 2187.0, 2187.0, 2187.0, 2187.0, 2187.0, 2187.0, 2187.0, 2187.0, 2187.0, 2187.0, 2187.0, 2188.0, 2188.0, 2187.0, 2187.0, 2187.0, 2187.0, 2187.0, 2188.0, 2187.0, 2187.0, 2187.0, 2188.0, 2187.0, 2187.0, 2187.0, 2187.0, 2187.0, 2187.0, 2187.0, 2187.0, 2187.0, 2187.0, 2187.0, 2187.0, 2187.0, 2187.0, 2187.0, 2187.0, 2187.0, 2187.0, 2187.0, 2187.0, 2187.0, 2187.0, 2187.0, 2187.0, 2187.0, 2187.0, 2187.0, 2187.0, 2187.0, 2187.0, 2187.0, 2187.0, 2187.0, 2188.0, 2187.0, 2187.0, 2187.0, 2187.0, 2187.0, 2187.0, 2187.0, 2187.0, 2187.0, 2187.0, 2187.0, 2187.0, 2187.0, 2187.0, 2187.0, 2187.0, 2187.0, 2187.0, 2187.0, 2187.0, 2187.0, 2187.0, 2187.0]
    }, 
    "slices": {}
  }
}