{
  "AcquisitionMatrixPE": 80,
  "AcquisitionNumber": 1,
  "AcquisitionTime": "10:24:9.152500",
  "BandwidthPerPixelPhaseEncode": 44.643,
  "BaseResolution": 80,
  "BodyPartExamined": "BRAIN",
  "CoilCombinationMethod": "Sum of Squares",
  "ConsistencyInfo": "N4_VE11C_LATEST_20160120",
  "ConversionSoftware": "dcm2niix",
  "ConversionSoftwareVersion": "v1.0.20220720",
  "DerivedVendorReportedEchoSpacing": 0.000559998,
  "DeviceSerialNumber": "66112",
  "DwellTime": 2.7e-06,
  "EchoTime": 0.035,
  "EchoTrainLength": 39,
  "EffectiveEchoSpacing": 0.000279999,
  "FlipAngle": 90,
  "HeudiconvVersion": "0.13.1",
  "ImageOrientationPatientDICOM": [0.987628, -0.156809, 0.00120389, 0.149365, 0.943025, 0.297311],
  "ImageOrientationText": "Tra>Cor(17.1)>Sag(2.7)",
  "ImageType": [
    "ORIGINAL",
    "PRIMARY",
    "M",
    "ND",
    "NORM",
    "MOSAIC"
],
  "ImagingFrequency": 123.252,
  "InPlanePhaseEncodingDirectionDICOM": "COL",
  "InstitutionAddress": "Maynard 3,Hanover,NH,US,03755",
  "InstitutionName": "Dartmouth College - PBS",
  "InstitutionalDepartmentName": "Department",
  "MRAcquisitionType": "2D",
  "MagneticFieldStrength": 3,
  "Manufacturer": "Siemens",
  "ManufacturersModelName": "Prisma",
  "Modality": "MR",
  "MultibandAccelerationFactor": 4,
  "NonlinearGradientCorrection": false,
  "ParallelReductionFactorInPlane": 2,
  "PartialFourier": 1,
  "PatientPosition": "HFS",
  "PercentPhaseFOV": 100,
  "PercentSampling": 100,
  "PhaseEncodingDirection": "j-",
  "PhaseEncodingSteps": 79,
  "PhaseResolution": 1,
  "PixelBandwidth": 2315,
  "ProcedureStepDescription": "dbic^QA",
  "ProtocolName": "func-bold_task-rest_acq-p2-s4-3.5mm",
  "PulseSequenceDetails": "%SiemensSeq%\\ep2d_bold",
  "ReceiveCoilActiveElements": "HEA;HEP",
  "ReceiveCoilName": "Head_32",
  "ReconMatrixPE": 80,
  "RefLinesPE": 24,
  "RepetitionTime": 2,
  "SAR": 0.0209531,
  "ScanOptions": "FS",
  "ScanningSequence": "EP",
  "SequenceName": "*epfid2d1_80",
  "SequenceVariant": "SK",
  "SeriesDescription": "func-bold_task-rest_acq-p2-s4-3.5mm",
  "SeriesNumber": 7,
  "ShimSetting": [4143, -7705, -7513, 282, -99, -102, -18, 86],
  "SliceThickness": 3.5,
  "SliceTiming": [1.485, 0, 0.99, 0.2475, 1.2375, 0.7425, 1.7325, 0.495, 1.485, 0, 0.99, 0.2475, 1.2375, 0.7425, 1.7325, 0.495, 1.485, 0, 0.99, 0.2475, 1.2375, 0.7425, 1.7325, 0.495, 1.485, 0, 0.99, 0.2475, 1.2375, 0.7425, 1.7325, 0.495],
  "SoftwareVersions": "syngo MR E11",
  "SpacingBetweenSlices": 3.99,
  "StationName": "AWP66112",
  "TaskName": "rest",
  "TotalReadoutTime": 0.0221199,
  "TxRefAmp": 231.848,
  "dcmmeta_affine": [
    [-2.9628846645355225, 0.4480941593647003, 0.1905478537082672, 95.11547088623047],
    [0.4704267680644989, 2.8290750980377197, 1.1708781719207764, -144.2572021484375],
    [0.003611663356423378, -0.8919337391853333, 3.8095717430114746, -15.70224666595459],
    [0.0, 0.0, 0.0, 1.0]
],
  "dcmmeta_reorient_transform": [
    [0.0, -1.0, 0.0, 79.0],
    [1.0, 0.0, 0.0, 0.0],
    [0.0, 0.0, 1.0, 0.0],
    [0.0, 0.0, 0.0, 1.0]
],
  "dcmmeta_shape": [80, 80, 32, 200],
  "dcmmeta_slice_dim": 2,
  "dcmmeta_version": 0.6,
  "global": {
    "const": {
      "AccessionNumber": "qa",
      "AcquisitionMatrix": [80, 0, 0, 80],
      "AngioFlag": "N",
      "BitsAllocated": 16,
      "BitsStored": 12,
      "BodyPartExamined": "BRAIN",
      "Columns": 480,
      "EchoNumbers": 1,
      "EchoTime": 35.0,
      "EchoTrainLength": 39,
      "FlipAngle": 90.0,
      "HighBit": 11,
      "ImageOrientationPatient": [0.98762822513797, -0.1568089269302, 0.00120388779433, 0.1493647197616, 0.94302502642925, 0.29731125107984],
      "ImagePositionPatient": [-812.71067830804, -550.96939046746, -265.2740968583],
      "ImageType": [
        "ORIGINAL",
        "PRIMARY",
        "M",
        "ND",
        "NORM",
        "MOSAIC"
],
      "ImagedNucleus": "1H",
      "ImagingFrequency": 123.25233,
      "InPlanePhaseEncodingDirection": "COL",
      "MRAcquisitionType": "2D",
      "MagneticFieldStrength": 3.0,
      "Manufacturer": "SIEMENS",
      "ManufacturerModelName": "Prisma",
      "Modality": "MR",
      "NumberOfAverages": 1.0,
      "NumberOfPhaseEncodingSteps": 79,
      "PercentPhaseFieldOfView": 100.0,
      "PercentSampling": 100.0,
      "PerformedProcedureStepStartTime": "101448.821000",
      "PhotometricInterpretation": "MONOCHROME2",
      "PixelBandwidth": 2315.0,
      "PixelRepresentation": 0,
      "PixelSpacing": [3.0, 3.0],
      "ProtocolName": "func-bold_task-rest_acq-p2-s4-3.5mm",
      "RepetitionTime": 2000.0,
      "Rows": 480,
      "SAR": 0.02095314482431,
      "SamplesPerPixel": 1,
      "ScanOptions": "FS",
      "ScanningSequence": "EP",
      "SequenceName": "*epfid2d1_80",
      "SequenceVariant": "SK",
      "SeriesDescription": "func-bold_task-rest_acq-p2-s4-3.5mm",
      "SeriesNumber": 7,
      "SeriesTime": "102423.492000",
      "SliceLocation": -52.782552928802,
      "SliceThickness": 3.5,
      "SmallestImagePixelValue": 0,
      "SoftwareVersions": "syngo MR E11",
      "SpacingBetweenSlices": 3.9900000444307,
      "SpecificCharacterSet": "ISO_IR 100",
      "StudyID": "11",
      "StudyTime": "101448.772000",
      "TransmitCoilName": "Body",
      "VariableFlipAngleFlag": "N",
      "WindowCenter": 963.0,
      "WindowCenterWidthExplanation": "Algo1",
      "dBdt": 0.0},
    "slices": {}
  },
  "time": {
    "samples": {
      "AcquisitionNumber": [1, 2, 3, 4, 5, 6, 7, 8, 9, 10, 11, 12, 13, 14, 15, 16, 17, 18, 19, 20, 21, 22, 23, 24, 25, 26, 27, 28, 29, 30, 31, 32, 33, 34, 35, 36, 37, 38, 39, 40, 41, 42, 43, 44, 45, 46, 47, 48, 49, 50, 51, 52, 53, 54, 55, 56, 57, 58, 59, 60, 61, 62, 63, 64, 65, 66, 67, 68, 69, 70, 71, 72, 73, 74, 75, 76, 77, 78, 79, 80, 81, 82, 83, 84, 85, 86, 87, 88, 89, 90, 91, 92, 93, 94, 95, 96, 97, 98, 99, 100, 101, 102, 103, 104, 105, 106, 107, 108, 109, 110, 111, 112, 113, 114, 115, 116, 117, 118, 119, 120, 121, 122, 123, 124, 125, 126, 127, 128, 129, 130, 131, 132, 133, 134, 135, 136, 137, 138, 139, 140, 141, 142, 143, 144, 145, 146, 147, 148, 149, 150, 151, 152, 153, 154, 155, 156, 157, 158, 159, 160, 161, 162, 163, 164, 165, 166, 167, 168, 169, 170, 171, 172, 173, 174, 175, 176, 177, 178, 179, 180, 181, 182, 183, 184, 185, 186, 187, 188, 189, 190, 191, 192, 193, 194, 195, 196, 197, 198, 199, 200],
      "AcquisitionTime": ["102409.152500", "102411.152500", "102413.152500", "102415.152500", "102417.152500", "102419.152500", "102421.152500", "102423.152500", "102425.152500", "102427.152500", "102429.152500", "102431.152500", "102433.152500", "102435.152500", "102437.152500", "102439.152500", "102441.152500", "102443.152500", "102445.152500", "102447.152500", "102449.152500", "102451.152500", "102453.152500", "102455.152500", "102457.152500", "102459.152500", "102501.152500", "102503.152500", "102505.152500", "102507.152500", "102509.152500", "102511.152500", "102513.152500", "102515.152500", "102517.152500", "102519.152500", "102521.152500", "102523.152500", "102525.152500", "102527.152500", "102529.152500", "102531.152500", "102533.152500", "102535.152500", "102537.152500", "102539.152500", "102541.152500", "102543.152500", "102545.152500", "102547.152500", "102549.152500", "102551.152500", "102553.152500", "102555.152500", "102557.152500", "102559.152500", "102601.152500", "102603.152500", "102605.152500", "102607.152500", "102609.152500", "102611.152500", "102613.152500", "102615.152500", "102617.152500", "102619.152500", "102621.152500", "102623.152500", "102625.152500", "102627.152500", "102629.152500", "102631.152500", "102633.152500", "102635.152500", "102637.152500", "102639.152500", "102641.152500", "102643.152500", "102645.152500", "102647.152500", "102649.152500", "102651.152500", "102653.152500", "102655.152500", "102657.152500", "102659.152500", "102701.152500", "102703.152500", "102705.152500", "102707.152500", "102709.152500", "102711.152500", "102713.152500", "102715.152500", "102717.152500", "102719.152500", "102721.152500", "102723.152500", "102725.152500", "102727.152500", "102729.152500", "102731.152500", "102733.152500", "102735.152500", "102737.152500", "102739.152500", "102741.152500", "102743.152500", "102745.152500", "102747.152500", "102749.152500", "102751.152500", "102753.152500", "102755.152500", "102757.152500", "102759.152500", "102801.152500", "102803.152500", "102805.152500", "102807.152500", "102809.152500", "102811.152500", "102813.152500", "102815.152500", "102817.152500", "102819.152500", "102821.152500", "102823.152500", "102825.152500", "102827.152500", "102829.152500", "102831.152500", "102833.152500", "102835.152500", "102837.152500", "102839.152500", "102841.152500", "102843.152500", "102845.152500", "102847.152500", "102849.152500", "102851.152500", "102853.152500", "102855.152500", "102857.152500", "102859.152500", "102901.152500", "102903.152500", "102905.152500", "102907.152500", "102909.152500", "102911.152500", "102913.152500", "102915.152500", "102917.152500", "102919.152500", "102921.152500", "102923.152500", "102925.152500", "102927.152500", "102929.152500", "102931.152500", "102933.152500", "102935.152500", "102937.152500", "102939.152500", "102941.152500", "102943.152500", "102945.152500", "102947.152500", "102949.152500", "102951.152500", "102953.152500", "102955.152500", "102957.152500", "102959.152500", "103001.152500", "103003.152500", "103005.152500", "103007.152500", "103009.152500", "103011.152500", "103013.152500", "103015.152500", "103017.152500", "103019.152500", "103021.152500", "103023.152500", "103025.152500", "103027.152500", "103029.152500", "103031.152500", "103033.152500", "103035.152500", "103037.152500", "103039.152500", "103041.152500", "103043.152500", "103045.152500", "103047.152500"],
      "ContentTime": ["102423.495000", "102423.498000", "102423.501000", "102423.504000", "102423.506000", "102423.509000", "102423.511000", "102503.490000", "102503.501000", "102503.503000", "102503.506000", "102503.513000", "102503.516000", "102503.518000", "102503.521000", "102503.523000", "102503.526000", "102503.529000", "102503.535000", "102503.537000", "102503.540000", "102503.542000", "102503.545000", "102503.548000", "102503.550000", "102503.553000", "102503.555000", "102543.491000", "102543.493000", "102543.496000", "102543.499000", "102543.501000", "102543.504000", "102543.506000", "102543.509000", "102543.511000", "102543.514000", "102543.516000", "102543.519000", "102543.522000", "102543.524000", "102543.527000", "102543.529000", "102543.532000", "102543.534000", "102543.537000", "102543.540000", "102623.490000", "102623.493000", "102623.496000", "102623.498000", "102623.501000", "102623.507000", "102623.510000", "102623.512000", "102623.515000", "102623.517000", "102623.520000", "102623.523000", "102623.525000", "102623.528000", "102623.530000", "102623.533000", "102623.535000", "102623.538000", "102623.541000", "102623.543000", "102703.490000", "102703.493000", "102703.496000", "102703.498000", "102703.501000", "102703.503000", "102703.506000", "102703.509000", "102703.511000", "102703.514000", "102703.516000", "102703.519000", "102703.521000", "102703.524000", "102703.527000", "102703.529000", "102703.532000", "102703.534000", "102703.537000", "102703.539000", "102743.491000", "102743.493000", "102743.496000", "102743.498000", "102743.501000", "102743.504000", "102743.506000", "102743.509000", "102743.511000", "102743.514000", "102743.516000", "102743.519000", "102743.521000", "102743.524000", "102743.527000", "102743.529000", "102743.532000", "102743.534000", "102743.537000", "102743.539000", "102823.490000", "102823.493000", "102823.496000", "102823.498000", "102823.501000", "102823.504000", "102823.514000", "102823.516000", "102823.519000", "102823.521000", "102823.524000", "102823.526000", "102823.529000", "102823.532000", "102823.534000", "102823.537000", "102823.539000", "102823.542000", "102823.545000", "102823.547000", "102903.490000", "102903.493000", "102903.496000", "102903.498000", "102903.501000", "102903.503000", "102903.506000", "102903.509000", "102903.511000", "102903.514000", "102903.517000", "102903.519000", "102903.522000", "102903.524000", "102903.527000", "102903.529000", "102903.532000", "102903.535000", "102903.537000", "102903.540000", "102943.491000", "102943.493000", "102943.496000", "102943.499000", "102943.501000", "102943.504000", "102943.506000", "102943.509000", "102943.512000", "102943.514000", "102943.517000", "102943.519000", "102943.522000", "102943.525000", "102943.527000", "102943.530000", "102943.532000", "102943.535000", "102943.537000", "102943.540000", "103023.490000", "103023.493000", "103023.496000", "103023.498000", "103023.501000", "103023.503000", "103023.506000", "103023.509000", "103023.511000", "103023.514000", "103023.516000", "103023.519000", "103023.521000", "103023.524000", "103023.527000", "103023.529000", "103023.532000", "103023.534000", "103023.537000", "103023.540000", "103048.335000", "103048.338000", "103048.341000", "103048.343000", "103048.346000", "103048.349000", "103048.351000", "103048.355000", "103048.360000", "103048.363000", "103048.366000", "103048.369000", "103048.374000"],
      "InstanceCreationTime": ["102423.495000", "102423.498000", "102423.501000", "102423.504000", "102423.506000", "102423.509000", "102423.511000", "102503.490000", "102503.501000", "102503.503000", "102503.506000", "102503.513000", "102503.516000", "102503.518000", "102503.521000", "102503.523000", "102503.526000", "102503.529000", "102503.535000", "102503.537000", "102503.540000", "102503.542000", "102503.545000", "102503.548000", "102503.550000", "102503.553000", "102503.555000", "102543.491000", "102543.493000", "102543.496000", "102543.499000", "102543.501000", "102543.504000", "102543.506000", "102543.509000", "102543.511000", "102543.514000", "102543.516000", "102543.519000", "102543.522000", "102543.524000", "102543.527000", "102543.529000", "102543.532000", "102543.534000", "102543.537000", "102543.540000", "102623.490000", "102623.493000", "102623.496000", "102623.498000", "102623.501000", "102623.507000", "102623.510000", "102623.512000", "102623.515000", "102623.517000", "102623.520000", "102623.523000", "102623.525000", "102623.528000", "102623.530000", "102623.533000", "102623.535000", "102623.538000", "102623.541000", "102623.543000", "102703.490000", "102703.493000", "102703.496000", "102703.498000", "102703.501000", "102703.503000", "102703.506000", "102703.509000", "102703.511000", "102703.514000", "102703.516000", "102703.519000", "102703.521000", "102703.524000", "102703.527000", "102703.529000", "102703.532000", "102703.534000", "102703.537000", "102703.539000", "102743.491000", "102743.493000", "102743.496000", "102743.498000", "102743.501000", "102743.504000", "102743.506000", "102743.509000", "102743.511000", "102743.514000", "102743.516000", "102743.519000", "102743.521000", "102743.524000", "102743.527000", "102743.529000", "102743.532000", "102743.534000", "102743.537000", "102743.539000", "102823.490000", "102823.493000", "102823.496000", "102823.498000", "102823.501000", "102823.504000", "102823.514000", "102823.516000", "102823.519000", "102823.521000", "102823.524000", "102823.526000", "102823.529000", "102823.532000", "102823.534000", "102823.537000", "102823.539000", "102823.542000", "102823.545000", "102823.547000", "102903.490000", "102903.493000", "102903.496000", "102903.498000", "102903.501000", "102903.503000", "102903.506000", "102903.509000", "102903.511000", "102903.514000", "102903.517000", "102903.519000", "102903.522000", "102903.524000", "102903.527000", "102903.529000", "102903.532000", "102903.535000", "102903.537000", "102903.540000", "102943.491000", "102943.493000", "102943.496000", "102943.499000", "102943.501000", "102943.504000", "102943.506000", "102943.509000", "102943.512000", "102943.514000", "102943.517000", "102943.519000", "102943.522000", "102943.525000", "102943.527000", "102943.530000", "102943.532000", "102943.535000", "102943.537000", "102943.540000", "103023.490000", "103023.493000", "103023.496000", "103023.498000", "103023.501000", "103023.503000", "103023.506000", "103023.509000", "103023.511000", "103023.514000", "103023.516000", "103023.519000", "103023.521000", "103023.524000", "103023.527000", "103023.529000", "103023.532000", "103023.534000", "103023.537000", "103023.540000", "103048.335000", "103048.338000", "103048.341000", "103048.343000", "103048.346000", "103048.349000", "103048.351000", "103048.355000", "103048.360000", "103048.363000", "103048.366000", "103048.369000", "103048.374000"],
      "InstanceNumber": [1, 2, 3, 4, 5, 6, 7, 8, 9, 10, 11, 12, 13, 14, 15, 16, 17, 18, 19, 20, 21, 22, 23, 24, 25, 26, 27, 28, 29, 30, 31, 32, 33, 34, 35, 36, 37, 38, 39, 40, 41, 42, 43, 44, 45, 46, 47, 48, 49, 50, 51, 52, 53, 54, 55, 56, 57, 58, 59, 60, 61, 62, 63, 64, 65, 66, 67, 68, 69, 70, 71, 72, 73, 74, 75, 76, 77, 78, 79, 80, 81, 82, 83, 84, 85, 86, 87, 88, 89, 90, 91, 92, 93, 94, 95, 96, 97, 98, 99, 100, 101, 102, 103, 104, 105, 106, 107, 108, 109, 110, 111, 112, 113, 114, 115, 116, 117, 118, 119, 120, 121, 122, 123, 124, 125, 126, 127, 128, 129, 130, 131, 132, 133, 134, 135, 136, 137, 138, 139, 140, 141, 142, 143, 144, 145, 146, 147, 148, 149, 150, 151, 152, 153, 154, 155, 156, 157, 158, 159, 160, 161, 162, 163, 164, 165, 166, 167, 168, 169, 170, 171, 172, 173, 174, 175, 176, 177, 178, 179, 180, 181, 182, 183, 184, 185, 186, 187, 188, 189, 190, 191, 192, 193, 194, 195, 196, 197, 198, 199, 200],
      "LargestImagePixelValue": [2275, 2272, 2275, 2273, 2270, 2279, 2275, 2281, 2273, 2273, 2279, 2275, 2274, 2272, 2271, 2275, 2275, 2275, 2279, 2277, 2277, 2275, 2274, 2276, 2274, 2276, 2279, 2273, 2275, 2278, 2275, 2276, 2276, 2281, 2275, 2281, 2277, 2283, 2271, 2276, 2272, 2273, 2267, 2273, 2279, 2280, 2273, 2268, 2278, 2273, 2273, 2277, 2272, 2271, 2278, 2276, 2277, 2273, 2276, 2277, 2277, 2277, 2273, 2270, 2275, 2270, 2281, 2277, 2274, 2278, 2274, 2278, 2277, 2273, 2275, 2282, 2278, 2281, 2274, 2281, 2277, 2279, 2277, 2274, 2275, 2272, 2279, 2271, 2270, 2273, 2271, 2279, 2277, 2272, 2270, 2279, 2277, 2276, 2276, 2271, 2279, 2275, 2275, 2271, 2271, 2275, 2277, 2276, 2275, 2275, 2280, 2269, 2274, 2275, 2271, 2271, 2275, 2274, 2273, 2271, 2275, 2278, 2273, 2272, 2271, 2274, 2281, 2276, 2276, 2279, 2278, 2279, 2276, 2275, 2273, 2275, 2276, 2278, 2272, 2273, 2277, 2276, 2281, 2273, 2274, 2276, 2276, 2276, 2274, 2277, 2277, 2276, 2274, 2272, 2278, 2273, 2275, 2269, 2272, 2272, 2277, 2278, 2274, 2276, 2275, 2279, 2273, 2278, 2273, 2274, 2274, 2273, 2277, 2270, 2277, 2277, 2276, 2270, 2272, 2272, 2277, 2278, 2280, 2275, 2279, 2278, 2274, 2274, 2274, 2276, 2275, 2273, 2277, 2278, 2277, 2278, 2277, 2274, 2271, 2276],
      "WindowWidth": [2243.0, 2242.0, 2243.0, 2243.0, 2242.0, 2242.0, 2242.0, 2242.0, 2242.0, 2242.0, 2242.0, 2242.0, 2242.0, 2242.0, 2242.0, 2242.0, 2243.0, 2243.0, 2242.0, 2243.0, 2243.0, 2242.0, 2243.0, 2242.0, 2243.0, 2243.0, 2242.0, 2242.0, 2242.0, 2242.0, 2242.0, 2242.0, 2243.0, 2242.0, 2242.0, 2242.0, 2242.0, 2242.0, 2242.0, 2243.0, 2242.0, 2242.0, 2243.0, 2243.0, 2243.0, 2242.0, 2242.0, 2242.0, 2242.0, 2243.0, 2243.0, 2242.0, 2243.0, 2242.0, 2242.0, 2242.0, 2242.0, 2242.0, 2242.0, 2243.0, 2242.0, 2242.0, 2242.0, 2242.0, 2243.0, 2242.0, 2242.0, 2242.0, 2242.0, 2242.0, 2242.0, 2242.0, 2242.0, 2242.0, 2242.0, 2242.0, 2242.0, 2242.0, 2242.0, 2242.0, 2242.0, 2242.0, 2242.0, 2242.0, 2242.0, 2242.0, 2243.0, 2242.0, 2242.0, 2242.0, 2243.0, 2242.0, 2242.0, 2242.0, 2242.0, 2242.0, 2242.0, 2242.0, 2242.0, 2242.0, 2242.0, 2242.0, 2242.0, 2242.0, 2242.0, 2242.0, 2242.0, 2242.0, 2242.0, 2242.0, 2242.0, 2242.0, 2242.0, 2242.0, 2242.0, 2242.0, 2242.0, 2242.0, 2242.0, 2242.0, 2242.0, 2242.0, 2242.0, 2242.0, 2242.0, 2242.0, 2242.0, 2242.0, 2242.0, 2242.0, 2242.0, 2242.0, 2243.0, 2242.0, 2242.0, 2242.0, 2242.0, 2242.0, 2242.0, 2242.0, 2242.0, 2242.0, 2242.0, 2242.0, 2242.0, 2242.0, 2242.0, 2242.0, 2242.0, 2242.0, 2242.0, 2242.0, 2242.0, 2242.0, 2242.0, 2242.0, 2242.0, 2242.0, 2242.0, 2242.0, 2241.0, 2242.0, 2242.0, 2242.0, 2242.0, 2242.0, 2242.0, 2242.0, 2242.0, 2242.0, 2242.0, 2242.0, 2242.0, 2242.0, 2242.0, 2242.0, 2242.0, 2242.0, 2242.0, 2242.0, 2242.0, 2242.0, 2242.0, 2241.0, 2242.0, 2242.0, 2242.0, 2241.0, 2242.0, 2242.0, 2242.0, 2242.0, 2242.0, 2241.0, 2242.0, 2242.0, 2241.0, 2241.0, 2241.0, 2242.0]
    },
    "slices": {}
  }
}