{
  "AcquisitionMatrixPE": 80,
  "AcquisitionNumber": 1,
  "AcquisitionTime": "10:17:13.470000",
  "BandwidthPerPixelPhaseEncode": 48.077,
  "BaseResolution": 80,
  "BodyPartExamined": "BRAIN",
  "CoilCombinationMethod": "Sum of Squares",
  "ConsistencyInfo": "N4_VE11C_LATEST_20160120",
  "ConversionSoftware": "dcm2niix",
  "ConversionSoftwareVersion": "v1.0.20220720",
  "DerivedVendorReportedEchoSpacing": 0.000519999,
  "DeviceSerialNumber": "66112",
  "DwellTime": 2.7e-06,
  "EchoTime": 0.035,
  "EchoTrainLength": 39,
  "EffectiveEchoSpacing": 0.00026,
  "FlipAngle": 90,
  "HeudiconvVersion": "0.13.1",
  "ImageOrientationPatientDICOM": [0.984859, 0.173222, 0.00686961, -0.167107, 0.938057, 0.303521],
  "ImageOrientationText": "Tra>Cor(17.5)>Sag(-2.6)",
  "ImageType": [
    "ORIGINAL",
    "PRIMARY",
    "M",
    "ND",
    "NORM",
    "MOSAIC"
],
  "ImagingFrequency": 123.252,
  "InPlanePhaseEncodingDirectionDICOM": "COL",
  "InstitutionAddress": "Maynard 3,Hanover,NH,US,03755",
  "InstitutionName": "Dartmouth College - PBS",
  "InstitutionalDepartmentName": "Department",
  "MRAcquisitionType": "2D",
  "MagneticFieldStrength": 3,
  "Manufacturer": "Siemens",
  "ManufacturersModelName": "Prisma",
  "MatrixCoilMode": "GRAPPA",
  "Modality": "MR",
  "NonlinearGradientCorrection": false,
  "ParallelReductionFactorInPlane": 2,
  "PartialFourier": 1,
  "PatientPosition": "HFS",
  "PercentPhaseFOV": 100,
  "PercentSampling": 100,
  "PhaseEncodingDirection": "j-",
  "PhaseEncodingSteps": 79,
  "PhaseResolution": 1,
  "PixelBandwidth": 2315,
  "ProcedureStepDescription": "dbic^QA",
  "ProtocolName": "func-bold_task-rest_acq-p2",
  "PulseSequenceDetails": "%SiemensSeq%\\ep2d_bold",
  "ReceiveCoilActiveElements": "HEA;HEP",
  "ReceiveCoilName": "Head_32",
  "ReconMatrixPE": 80,
  "RefLinesPE": 24,
  "RepetitionTime": 2,
  "SAR": 0.0478169,
  "ScanOptions": "FS",
  "ScanningSequence": "EP",
  "SequenceName": "*epfid2d1_80",
  "SequenceVariant": "SK",
  "SeriesDescription": "func-bold_task-rest_acq-p2",
  "SeriesNumber": 5,
  "ShimSetting": [4131, -7706, -7528, 247, -111, -113, -2, 22],
  "SliceThickness": 3.5,
  "SliceTiming": [0.99, 0, 1.0575, 0.0675, 1.1225, 0.1325, 1.1875, 0.1975, 1.255, 0.265, 1.32, 0.33, 1.3875, 0.3975, 1.4525, 0.4625, 1.5175, 0.5275, 1.585, 0.595, 1.65, 0.66, 1.7175, 0.7275, 1.7825, 0.7925, 1.8475, 0.8575, 1.915, 0.925],
  "SoftwareVersions": "syngo MR E11",
  "SpacingBetweenSlices": 3.99,
  "StationName": "AWP66112",
  "TaskName": "rest",
  "TotalReadoutTime": 0.02054,
  "TxRefAmp": 222.123,
  "dcmmeta_affine": [
    [-2.9545767307281494, -0.5013206005096436, -0.18406780064105988, 142.7158966064453],
    [-0.5196645855903625, 2.8141701221466064, 1.197292447090149, -94.04301452636719],
    [0.020608829334378242, -0.9105628728866577, 3.8016719818115234, -19.699081420898438],
    [0.0, 0.0, 0.0, 1.0]
],
  "dcmmeta_reorient_transform": [
    [0.0, -1.0, 0.0, 79.0],
    [1.0, 0.0, 0.0, 0.0],
    [0.0, 0.0, 1.0, 0.0],
    [0.0, 0.0, 0.0, 1.0]
],
  "dcmmeta_shape": [80, 80, 30, 200],
  "dcmmeta_slice_dim": 2,
  "dcmmeta_version": 0.6,
  "global": {
    "const": {
      "AccessionNumber": "qa",
      "AcquisitionMatrix": [80, 0, 0, 80],
      "AngioFlag": "N",
      "BitsAllocated": 16,
      "BitsStored": 12,
      "BodyPartExamined": "BRAIN",
      "Columns": 480,
      "EchoNumbers": 1,
      "EchoTime": 35.0,
      "EchoTrainLength": 39,
      "FlipAngle": 90.0,
      "HighBit": 11,
      "ImageOrientationPatient": [0.98485892869339, 0.17322153165976, 0.00686961005902, -0.1671068617509, 0.93805667628916, 0.30352095286008],
      "ImagePositionPatient": [-593.76281239442, -795.04334439119, -277.86788590478],
      "ImageType": [
        "ORIGINAL",
        "PRIMARY",
        "M",
        "ND",
        "NORM",
        "MOSAIC"
],
      "ImagedNucleus": "1H",
      "ImagingFrequency": 123.252319,
      "InPlanePhaseEncodingDirection": "COL",
      "MRAcquisitionType": "2D",
      "MagneticFieldStrength": 3.0,
      "Manufacturer": "SIEMENS",
      "ManufacturerModelName": "Prisma",
      "Modality": "MR",
      "NumberOfAverages": 1.0,
      "NumberOfPhaseEncodingSteps": 79,
      "PercentPhaseFieldOfView": 100.0,
      "PercentSampling": 100.0,
      "PerformedProcedureStepStartTime": "101533.154000",
      "PhotometricInterpretation": "MONOCHROME2",
      "PixelBandwidth": 2315.0,
      "PixelRepresentation": 0,
      "PixelSpacing": [3.0, 3.0],
      "ProtocolName": "func-bold_task-rest_acq-p2",
      "RepetitionTime": 2000.0,
      "Rows": 480,
      "SAR": 0.04781693170591,
      "SamplesPerPixel": 1,
      "ScanOptions": "FS",
      "ScanningSequence": "EP",
      "SequenceName": "*epfid2d1_80",
      "SequenceVariant": "SK",
      "SeriesDescription": "func-bold_task-rest_acq-p2",
      "SeriesNumber": 5,
      "SeriesTime": "101800.577000",
      "SliceLocation": -53.572890751294,
      "SliceThickness": 3.5,
      "SmallestImagePixelValue": 0,
      "SoftwareVersions": "syngo MR E11",
      "SpacingBetweenSlices": 3.9900000488023,
      "SpecificCharacterSet": "ISO_IR 100",
      "StudyID": "67",
      "StudyTime": "101533.098000",
      "TransmitCoilName": "Body",
      "VariableFlipAngleFlag": "N",
      "WindowCenterWidthExplanation": "Algo1",
      "dBdt": 0.0},
    "slices": {}
  },
  "time": {
    "samples": {
      "AcquisitionNumber": [1, 2, 3, 4, 5, 6, 7, 8, 9, 10, 11, 12, 13, 14, 15, 16, 17, 18, 19, 20, 21, 22, 23, 24, 25, 26, 27, 28, 29, 30, 31, 32, 33, 34, 35, 36, 37, 38, 39, 40, 41, 42, 43, 44, 45, 46, 47, 48, 49, 50, 51, 52, 53, 54, 55, 56, 57, 58, 59, 60, 61, 62, 63, 64, 65, 66, 67, 68, 69, 70, 71, 72, 73, 74, 75, 76, 77, 78, 79, 80, 81, 82, 83, 84, 85, 86, 87, 88, 89, 90, 91, 92, 93, 94, 95, 96, 97, 98, 99, 100, 101, 102, 103, 104, 105, 106, 107, 108, 109, 110, 111, 112, 113, 114, 115, 116, 117, 118, 119, 120, 121, 122, 123, 124, 125, 126, 127, 128, 129, 130, 131, 132, 133, 134, 135, 136, 137, 138, 139, 140, 141, 142, 143, 144, 145, 146, 147, 148, 149, 150, 151, 152, 153, 154, 155, 156, 157, 158, 159, 160, 161, 162, 163, 164, 165, 166, 167, 168, 169, 170, 171, 172, 173, 174, 175, 176, 177, 178, 179, 180, 181, 182, 183, 184, 185, 186, 187, 188, 189, 190, 191, 192, 193, 194, 195, 196, 197, 198, 199, 200],
      "AcquisitionTime": ["101713.470000", "101715.470000", "101717.470000", "101719.470000", "101721.470000", "101723.470000", "101725.470000", "101727.470000", "101729.470000", "101731.470000", "101733.470000", "101735.470000", "101737.470000", "101739.470000", "101741.470000", "101743.470000", "101745.470000", "101747.470000", "101749.470000", "101751.470000", "101753.470000", "101755.470000", "101757.470000", "101759.470000", "101801.470000", "101803.470000", "101805.470000", "101807.470000", "101809.470000", "101811.470000", "101813.470000", "101815.470000", "101817.470000", "101819.470000", "101821.470000", "101823.470000", "101825.470000", "101827.470000", "101829.470000", "101831.470000", "101833.470000", "101835.470000", "101837.470000", "101839.470000", "101841.470000", "101843.470000", "101845.470000", "101847.470000", "101849.470000", "101851.470000", "101853.470000", "101855.470000", "101857.470000", "101859.470000", "101901.470000", "101903.470000", "101905.470000", "101907.470000", "101909.470000", "101911.470000", "101913.470000", "101915.470000", "101917.470000", "101919.470000", "101921.470000", "101923.470000", "101925.470000", "101927.470000", "101929.470000", "101931.470000", "101933.470000", "101935.470000", "101937.470000", "101939.470000", "101941.470000", "101943.470000", "101945.470000", "101947.470000", "101949.470000", "101951.470000", "101953.470000", "101955.470000", "101957.470000", "101959.470000", "102001.470000", "102003.470000", "102005.470000", "102007.470000", "102009.470000", "102011.470000", "102013.470000", "102015.470000", "102017.470000", "102019.470000", "102021.470000", "102023.470000", "102025.470000", "102027.470000", "102029.470000", "102031.470000", "102033.470000", "102035.470000", "102037.470000", "102039.470000", "102041.470000", "102043.470000", "102045.470000", "102047.470000", "102049.470000", "102051.470000", "102053.470000", "102055.470000", "102057.470000", "102059.470000", "102101.470000", "102103.470000", "102105.470000", "102107.470000", "102109.470000", "102111.470000", "102113.470000", "102115.470000", "102117.470000", "102119.470000", "102121.470000", "102123.470000", "102125.470000", "102127.470000", "102129.470000", "102131.470000", "102133.470000", "102135.470000", "102137.470000", "102139.470000", "102141.470000", "102143.470000", "102145.470000", "102147.470000", "102149.470000", "102151.470000", "102153.470000", "102155.470000", "102157.470000", "102159.470000", "102201.470000", "102203.470000", "102205.470000", "102207.470000", "102209.470000", "102211.470000", "102213.470000", "102215.470000", "102217.470000", "102219.470000", "102221.470000", "102223.470000", "102225.470000", "102227.470000", "102229.470000", "102231.470000", "102233.470000", "102235.470000", "102237.470000", "102239.470000", "102241.470000", "102243.470000", "102245.470000", "102247.470000", "102249.470000", "102251.470000", "102253.470000", "102255.470000", "102257.470000", "102259.470000", "102301.470000", "102303.470000", "102305.470000", "102307.470000", "102309.470000", "102311.470000", "102313.470000", "102315.470000", "102317.470000", "102319.470000", "102321.470000", "102323.470000", "102325.470000", "102327.470000", "102329.470000", "102331.470000", "102333.470000", "102335.470000", "102337.470000", "102339.470000", "102341.470000", "102343.470000", "102345.470000", "102347.470000", "102349.470000", "102351.470000"],
      "ContentTime": ["101800.580000", "101800.584000", "101800.587000", "101800.589000", "101800.592000", "101800.595000", "101800.597000", "101800.600000", "101800.602000", "101800.605000", "101800.608000", "101800.617000", "101800.620000", "101800.623000", "101800.625000", "101800.628000", "101800.631000", "101800.633000", "101800.636000", "101800.639000", "101800.641000", "101800.644000", "101800.647000", "101840.575000", "101840.578000", "101840.581000", "101840.603000", "101840.605000", "101840.608000", "101840.611000", "101840.613000", "101840.616000", "101840.619000", "101840.621000", "101840.624000", "101840.626000", "101840.629000", "101840.632000", "101840.634000", "101840.637000", "101840.640000", "101840.642000", "101840.645000", "101900.575000", "101900.577000", "101900.580000", "101900.583000", "101900.585000", "101900.588000", "101900.591000", "101900.593000", "101900.596000", "101900.599000", "101940.575000", "101940.583000", "101940.585000", "101940.588000", "101940.591000", "101940.593000", "101940.596000", "101940.599000", "101940.601000", "101940.604000", "101940.606000", "101940.609000", "101940.612000", "101940.614000", "101940.617000", "101940.620000", "101940.622000", "101940.625000", "101940.628000", "101940.630000", "102020.575000", "102020.578000", "102020.581000", "102020.584000", "102020.586000", "102020.589000", "102020.592000", "102020.594000", "102020.597000", "102020.600000", "102020.602000", "102020.605000", "102020.608000", "102020.610000", "102020.613000", "102020.615000", "102020.618000", "102020.621000", "102020.623000", "102020.626000", "102100.576000", "102100.579000", "102100.581000", "102100.584000", "102100.586000", "102100.589000", "102100.592000", "102100.595000", "102100.597000", "102100.600000", "102100.603000", "102100.605000", "102100.608000", "102100.611000", "102100.613000", "102100.616000", "102100.618000", "102100.621000", "102100.624000", "102100.626000", "102140.575000", "102140.579000", "102140.581000", "102140.584000", "102140.586000", "102140.589000", "102140.592000", "102140.595000", "102140.597000", "102140.600000", "102140.603000", "102140.605000", "102140.608000", "102140.611000", "102140.613000", "102140.616000", "102140.618000", "102140.621000", "102140.624000", "102140.626000", "102220.575000", "102220.578000", "102220.581000", "102220.584000", "102220.586000", "102220.589000", "102220.592000", "102220.594000", "102220.597000", "102220.600000", "102220.602000", "102220.605000", "102220.608000", "102220.611000", "102220.613000", "102220.616000", "102220.618000", "102220.621000", "102220.624000", "102220.626000", "102300.575000", "102300.589000", "102300.592000", "102300.594000", "102300.597000", "102300.600000", "102300.602000", "102300.605000", "102300.608000", "102300.610000", "102300.613000", "102300.615000", "102300.618000", "102300.621000", "102300.624000", "102300.626000", "102300.629000", "102300.631000", "102300.634000", "102300.637000", "102340.575000", "102340.578000", "102340.580000", "102340.583000", "102340.586000", "102340.588000", "102340.591000", "102340.594000", "102340.596000", "102340.599000", "102340.601000", "102340.604000", "102340.607000", "102340.609000", "102340.612000", "102340.615000", "102340.618000", "102340.620000", "102340.623000", "102340.625000", "102352.729000", "102352.732000", "102352.735000", "102352.737000", "102352.740000", "102352.743000", "102352.746000"],
      "InstanceCreationTime": ["101800.580000", "101800.584000", "101800.587000", "101800.589000", "101800.592000", "101800.595000", "101800.597000", "101800.600000", "101800.602000", "101800.605000", "101800.608000", "101800.617000", "101800.620000", "101800.623000", "101800.625000", "101800.628000", "101800.631000", "101800.633000", "101800.636000", "101800.639000", "101800.641000", "101800.644000", "101800.647000", "101840.575000", "101840.578000", "101840.581000", "101840.603000", "101840.605000", "101840.608000", "101840.611000", "101840.613000", "101840.616000", "101840.619000", "101840.621000", "101840.624000", "101840.626000", "101840.629000", "101840.632000", "101840.634000", "101840.637000", "101840.640000", "101840.642000", "101840.645000", "101900.575000", "101900.577000", "101900.580000", "101900.583000", "101900.585000", "101900.588000", "101900.591000", "101900.593000", "101900.596000", "101900.599000", "101940.575000", "101940.583000", "101940.585000", "101940.588000", "101940.591000", "101940.593000", "101940.596000", "101940.599000", "101940.601000", "101940.604000", "101940.606000", "101940.609000", "101940.612000", "101940.614000", "101940.617000", "101940.620000", "101940.622000", "101940.625000", "101940.628000", "101940.630000", "102020.575000", "102020.578000", "102020.581000", "102020.584000", "102020.586000", "102020.589000", "102020.592000", "102020.594000", "102020.597000", "102020.600000", "102020.602000", "102020.605000", "102020.608000", "102020.610000", "102020.613000", "102020.615000", "102020.618000", "102020.621000", "102020.623000", "102020.626000", "102100.576000", "102100.579000", "102100.581000", "102100.584000", "102100.586000", "102100.589000", "102100.592000", "102100.595000", "102100.597000", "102100.600000", "102100.603000", "102100.605000", "102100.608000", "102100.611000", "102100.613000", "102100.616000", "102100.618000", "102100.621000", "102100.624000", "102100.626000", "102140.575000", "102140.579000", "102140.581000", "102140.584000", "102140.586000", "102140.589000", "102140.592000", "102140.595000", "102140.597000", "102140.600000", "102140.603000", "102140.605000", "102140.608000", "102140.611000", "102140.613000", "102140.616000", "102140.618000", "102140.621000", "102140.624000", "102140.626000", "102220.575000", "102220.578000", "102220.581000", "102220.584000", "102220.586000", "102220.589000", "102220.592000", "102220.594000", "102220.597000", "102220.600000", "102220.602000", "102220.605000", "102220.608000", "102220.611000", "102220.613000", "102220.616000", "102220.618000", "102220.621000", "102220.624000", "102220.626000", "102300.575000", "102300.589000", "102300.592000", "102300.594000", "102300.597000", "102300.600000", "102300.602000", "102300.605000", "102300.608000", "102300.610000", "102300.613000", "102300.615000", "102300.618000", "102300.621000", "102300.624000", "102300.626000", "102300.629000", "102300.631000", "102300.634000", "102300.637000", "102340.575000", "102340.578000", "102340.580000", "102340.583000", "102340.586000", "102340.588000", "102340.591000", "102340.594000", "102340.596000", "102340.599000", "102340.601000", "102340.604000", "102340.607000", "102340.609000", "102340.612000", "102340.615000", "102340.618000", "102340.620000", "102340.623000", "102340.625000", "102352.729000", "102352.732000", "102352.735000", "102352.737000", "102352.740000", "102352.743000", "102352.746000"],
      "InstanceNumber": [1, 2, 3, 4, 5, 6, 7, 8, 9, 10, 11, 12, 13, 14, 15, 16, 17, 18, 19, 20, 21, 22, 23, 24, 25, 26, 27, 28, 29, 30, 31, 32, 33, 34, 35, 36, 37, 38, 39, 40, 41, 42, 43, 44, 45, 46, 47, 48, 49, 50, 51, 52, 53, 54, 55, 56, 57, 58, 59, 60, 61, 62, 63, 64, 65, 66, 67, 68, 69, 70, 71, 72, 73, 74, 75, 76, 77, 78, 79, 80, 81, 82, 83, 84, 85, 86, 87, 88, 89, 90, 91, 92, 93, 94, 95, 96, 97, 98, 99, 100, 101, 102, 103, 104, 105, 106, 107, 108, 109, 110, 111, 112, 113, 114, 115, 116, 117, 118, 119, 120, 121, 122, 123, 124, 125, 126, 127, 128, 129, 130, 131, 132, 133, 134, 135, 136, 137, 138, 139, 140, 141, 142, 143, 144, 145, 146, 147, 148, 149, 150, 151, 152, 153, 154, 155, 156, 157, 158, 159, 160, 161, 162, 163, 164, 165, 166, 167, 168, 169, 170, 171, 172, 173, 174, 175, 176, 177, 178, 179, 180, 181, 182, 183, 184, 185, 186, 187, 188, 189, 190, 191, 192, 193, 194, 195, 196, 197, 198, 199, 200],
      "LargestImagePixelValue": [2107, 2101, 2097, 2104, 2106, 2106, 2106, 2105, 2105, 2106, 2102, 2109, 2111, 2107, 2102, 2106, 2104, 2102, 2105, 2110, 2106, 2105, 2102, 2102, 2104, 2110, 2112, 2101, 2106, 2103, 2095, 2108, 2102, 2102, 2106, 2114, 2102, 2104, 2105, 2103, 2105, 2104, 2103, 2109, 2109, 2108, 2105, 2108, 2098, 2105, 2114, 2106, 2099, 2108, 2102, 2107, 2109, 2106, 2106, 2104, 2101, 2104, 2100, 2098, 2100, 2105, 2112, 2102, 2101, 2112, 2107, 2113, 2101, 2108, 2113, 2105, 2111, 2108, 2106, 2105, 2111, 2099, 2108, 2102, 2104, 2114, 2103, 2106, 2106, 2097, 2102, 2101, 2103, 2105, 2117, 2106, 2108, 2106, 2105, 2103, 2105, 2104, 2109, 2102, 2100, 2108, 2111, 2110, 2103, 2104, 2104, 2110, 2104, 2105, 2110, 2111, 2110, 2108, 2107, 2106, 2104, 2106, 2102, 2101, 2099, 2107, 2103, 2105, 2105, 2098, 2102, 2106, 2103, 2109, 2100, 2113, 2109, 2106, 2109, 2108, 2109, 2112, 2110, 2109, 2104, 2108, 2102, 2107, 2105, 2104, 2105, 2102, 2108, 2103, 2107, 2111, 2110, 2105, 2102, 2107, 2111, 2100, 2111, 2109, 2111, 2106, 2112, 2105, 2112, 2106, 2109, 2109, 2100, 2103, 2103, 2104, 2103, 2097, 2110, 2105, 2100, 2107, 2107, 2106, 2107, 2110, 2104, 2103, 2113, 2103, 2115, 2116, 2109, 2107, 2105, 2106, 2114, 2114, 2110, 2113],
      "WindowCenter": [1030.0, 1030.0, 1030.0, 1031.0, 1030.0, 1030.0, 1029.0, 1029.0, 1031.0, 1030.0, 1029.0, 1029.0, 1029.0, 1029.0, 1029.0, 1029.0, 1029.0, 1030.0, 1029.0, 1029.0, 1029.0, 1029.0, 1029.0, 1029.0, 1029.0, 1030.0, 1029.0, 1029.0, 1030.0, 1029.0, 1029.0, 1030.0, 1029.0, 1029.0, 1029.0, 1030.0, 1029.0, 1029.0, 1029.0, 1030.0, 1030.0, 1030.0, 1030.0, 1029.0, 1030.0, 1029.0, 1029.0, 1029.0, 1029.0, 1030.0, 1029.0, 1029.0, 1029.0, 1030.0, 1029.0, 1029.0, 1029.0, 1029.0, 1029.0, 1029.0, 1029.0, 1029.0, 1030.0, 1030.0, 1029.0, 1029.0, 1029.0, 1029.0, 1029.0, 1029.0, 1029.0, 1029.0, 1028.0, 1029.0, 1029.0, 1029.0, 1028.0, 1029.0, 1028.0, 1029.0, 1029.0, 1028.0, 1028.0, 1029.0, 1028.0, 1029.0, 1029.0, 1028.0, 1029.0, 1028.0, 1028.0, 1028.0, 1029.0, 1028.0, 1029.0, 1029.0, 1028.0, 1028.0, 1028.0, 1028.0, 1028.0, 1028.0, 1028.0, 1028.0, 1029.0, 1028.0, 1028.0, 1028.0, 1028.0, 1028.0, 1028.0, 1029.0, 1029.0, 1028.0, 1028.0, 1028.0, 1029.0, 1028.0, 1029.0, 1029.0, 1028.0, 1028.0, 1028.0, 1028.0, 1028.0, 1029.0, 1028.0, 1028.0, 1028.0, 1029.0, 1028.0, 1028.0, 1029.0, 1028.0, 1028.0, 1028.0, 1028.0, 1028.0, 1028.0, 1029.0, 1028.0, 1028.0, 1028.0, 1028.0, 1029.0, 1028.0, 1028.0, 1029.0, 1028.0, 1028.0, 1028.0, 1028.0, 1028.0, 1029.0, 1029.0, 1029.0, 1028.0, 1029.0, 1028.0, 1028.0, 1028.0, 1028.0, 1028.0, 1028.0, 1028.0, 1028.0, 1028.0, 1028.0, 1028.0, 1028.0, 1028.0, 1028.0, 1028.0, 1028.0, 1028.0, 1028.0, 1028.0, 1028.0, 1029.0, 1028.0, 1028.0, 1028.0, 1028.0, 1028.0, 1028.0, 1028.0, 1028.0, 1028.0, 1028.0, 1028.0, 1028.0, 1028.0, 1029.0, 1028.0, 1028.0, 1028.0, 1029.0, 1028.0, 1028.0, 1029.0],
      "WindowWidth": [2290.0, 2290.0, 2290.0, 2291.0, 2290.0, 2290.0, 2290.0, 2290.0, 2290.0, 2289.0, 2289.0, 2289.0, 2289.0, 2289.0, 2289.0, 2289.0, 2289.0, 2290.0, 2289.0, 2289.0, 2289.0, 2289.0, 2289.0, 2289.0, 2289.0, 2289.0, 2289.0, 2289.0, 2289.0, 2289.0, 2289.0, 2289.0, 2289.0, 2289.0, 2288.0, 2290.0, 2289.0, 2289.0, 2289.0, 2289.0, 2289.0, 2289.0, 2289.0, 2288.0, 2289.0, 2288.0, 2288.0, 2288.0, 2288.0, 2289.0, 2288.0, 2288.0, 2288.0, 2289.0, 2288.0, 2288.0, 2288.0, 2288.0, 2288.0, 2288.0, 2288.0, 2288.0, 2288.0, 2288.0, 2288.0, 2288.0, 2288.0, 2288.0, 2287.0, 2288.0, 2287.0, 2288.0, 2287.0, 2287.0, 2288.0, 2288.0, 2287.0, 2287.0, 2287.0, 2288.0, 2288.0, 2287.0, 2287.0, 2287.0, 2287.0, 2288.0, 2288.0, 2287.0, 2287.0, 2287.0, 2287.0, 2287.0, 2287.0, 2287.0, 2287.0, 2288.0, 2287.0, 2287.0, 2287.0, 2287.0, 2287.0, 2287.0, 2287.0, 2287.0, 2287.0, 2287.0, 2287.0, 2287.0, 2287.0, 2287.0, 2287.0, 2287.0, 2287.0, 2287.0, 2287.0, 2286.0, 2287.0, 2286.0, 2287.0, 2287.0, 2286.0, 2286.0, 2286.0, 2286.0, 2286.0, 2287.0, 2286.0, 2286.0, 2286.0, 2287.0, 2286.0, 2286.0, 2287.0, 2286.0, 2286.0, 2286.0, 2286.0, 2286.0, 2286.0, 2286.0, 2286.0, 2286.0, 2286.0, 2286.0, 2287.0, 2286.0, 2286.0, 2286.0, 2286.0, 2286.0, 2286.0, 2286.0, 2285.0, 2286.0, 2286.0, 2286.0, 2286.0, 2286.0, 2286.0, 2285.0, 2285.0, 2286.0, 2286.0, 2286.0, 2285.0, 2285.0, 2285.0, 2285.0, 2285.0, 2285.0, 2285.0, 2285.0, 2285.0, 2285.0, 2285.0, 2285.0, 2285.0, 2285.0, 2286.0, 2285.0, 2285.0, 2285.0, 2285.0, 2285.0, 2285.0, 2285.0, 2285.0, 2285.0, 2285.0, 2285.0, 2285.0, 2285.0, 2286.0, 2285.0, 2285.0, 2285.0, 2286.0, 2285.0, 2285.0, 2285.0]
    },
    "slices": {}
  }
}