{
  "AcquisitionMatrixPE": 80,
  "AcquisitionNumber": 1,
  "AcquisitionTime": "10:30:57.490000",
  "BandwidthPerPixelPhaseEncode": 25,
  "BaseResolution": 80,
  "BodyPartExamined": "BRAIN",
  "CoilCombinationMethod": "Sum of Squares",
  "ConsistencyInfo": "N4_VE11C_LATEST_20160120",
  "ConversionSoftware": "dcm2niix",
  "ConversionSoftwareVersion": "v1.0.20220720",
  "DerivedVendorReportedEchoSpacing": 0.0005,
  "DeviceSerialNumber": "66112",
  "DwellTime": 2.7e-06,
  "EchoTime": 0.03,
  "EchoTrainLength": 80,
  "EffectiveEchoSpacing": 0.0005,
  "FlipAngle": 77,
  "HeudiconvVersion": "0.13.1",
  "ImageOrientationPatientDICOM": [0.984859, 0.173222, 0.00686961, -0.167107, 0.938057, 0.303521],
  "ImageOrientationText": "Tra>Cor(17.5)>Sag(-2.6)",
  "ImageType": [
    "ORIGINAL",
    "PRIMARY",
    "M",
    "ND",
    "NORM",
    "MOSAIC"
],
  "ImagingFrequency": 123.252,
  "InPlanePhaseEncodingDirectionDICOM": "COL",
  "InstitutionAddress": "Maynard 3,Hanover,NH,US,03755",
  "InstitutionName": "Dartmouth College - PBS",
  "InstitutionalDepartmentName": "Department",
  "MRAcquisitionType": "2D",
  "MagneticFieldStrength": 3,
  "Manufacturer": "Siemens",
  "ManufacturersModelName": "Prisma",
  "MatrixCoilMode": "SENSE",
  "Modality": "MR",
  "NonlinearGradientCorrection": false,
  "PartialFourier": 1,
  "PatientPosition": "HFS",
  "PercentPhaseFOV": 100,
  "PercentSampling": 100,
  "PhaseEncodingDirection": "j-",
  "PhaseEncodingSteps": 80,
  "PhaseResolution": 1,
  "PixelBandwidth": 2315,
  "ProcedureStepDescription": "dbic^QA",
  "ProtocolName": "func-bold_fa-77",
  "PulseSequenceDetails": "%SiemensSeq%\\ep2d_bold",
  "ReceiveCoilActiveElements": "HEA;HEP",
  "ReceiveCoilName": "Head_32",
  "ReconMatrixPE": 80,
  "RepetitionTime": 2,
  "SAR": 0.0375769,
  "ScanOptions": "FS",
  "ScanningSequence": "EP",
  "SequenceName": "*epfid2d1_80",
  "SequenceVariant": "SK",
  "SeriesDescription": "func-bold_fa-77",
  "SeriesNumber": 8,
  "ShimSetting": [4131, -7706, -7529, 248, -112, -113, -2, 22],
  "SliceThickness": 3.5,
  "SliceTiming": [0.99, 0, 1.055, 0.065, 1.12, 0.13, 1.1875, 0.1975, 1.2525, 0.2625, 1.32, 0.33, 1.385, 0.395, 1.45, 0.46, 1.5175, 0.5275, 1.5825, 0.5925, 1.65, 0.66, 1.715, 0.725, 1.78, 0.79, 1.8475, 0.8575, 1.9125, 0.9225],
  "SoftwareVersions": "syngo MR E11",
  "SpacingBetweenSlices": 3.99,
  "StationName": "AWP66112",
  "TotalReadoutTime": 0.0395,
  "TxRefAmp": 222.123,
  "dcmmeta_affine": [
    [-2.9545767307281494, -0.5013206005096436, -0.18406780064105988, 141.54519653320312],
    [-0.5196645855903625, 2.8141701221466064, 1.197292447090149, -94.7657241821289],
    [0.020608829334378242, -0.9105628728866577, 3.8016719818115234, -19.437416076660156],
    [0.0, 0.0, 0.0, 1.0]
],
  "dcmmeta_reorient_transform": [
    [0.0, -1.0, 0.0, 79.0],
    [1.0, 0.0, 0.0, 0.0],
    [0.0, 0.0, 1.0, 0.0],
    [0.0, 0.0, 0.0, 1.0]
],
  "dcmmeta_shape": [80, 80, 30, 200],
  "dcmmeta_slice_dim": 2,
  "dcmmeta_version": 0.6,
  "global": {
    "const": {
      "AccessionNumber": "qa",
      "AcquisitionMatrix": [80, 0, 0, 80],
      "AngioFlag": "N",
      "BitsAllocated": 16,
      "BitsStored": 12,
      "BodyPartExamined": "BRAIN",
      "Columns": 480,
      "EchoNumbers": 1,
      "EchoTime": 30.0,
      "EchoTrainLength": 80,
      "FlipAngle": 77.0,
      "HighBit": 11,
      "ImageOrientationPatient": [0.98485892869339, 0.17322153165976, 0.00686961005902, -0.1671068617509, 0.93805667628916, 0.30352095286008],
      "ImagePositionPatient": [-592.59211708955, -794.32063664278, -277.60622056054],
      "ImageType": [
        "ORIGINAL",
        "PRIMARY",
        "M",
        "ND",
        "NORM",
        "MOSAIC"
],
      "ImagedNucleus": "1H",
      "ImagingFrequency": 123.252318,
      "InPlanePhaseEncodingDirection": "COL",
      "MRAcquisitionType": "2D",
      "MagneticFieldStrength": 3.0,
      "Manufacturer": "SIEMENS",
      "ManufacturerModelName": "Prisma",
      "Modality": "MR",
      "NumberOfAverages": 1.0,
      "NumberOfPhaseEncodingSteps": 80,
      "PercentPhaseFieldOfView": 100.0,
      "PercentSampling": 100.0,
      "PerformedProcedureStepStartTime": "101533.154000",
      "PhotometricInterpretation": "MONOCHROME2",
      "PixelBandwidth": 2315.0,
      "PixelRepresentation": 0,
      "PixelSpacing": [3.0, 3.0],
      "ProtocolName": "func-bold_fa-77",
      "RepetitionTime": 2000.0,
      "Rows": 480,
      "SAR": 0.03757693210651,
      "SamplesPerPixel": 1,
      "ScanOptions": "FS",
      "ScanningSequence": "EP",
      "SequenceName": "*epfid2d1_80",
      "SequenceVariant": "SK",
      "SeriesDescription": "func-bold_fa-77",
      "SeriesNumber": 8,
      "SeriesTime": "103140.506000",
      "SliceLocation": -53.486434451008,
      "SliceThickness": 3.5,
      "SmallestImagePixelValue": 0,
      "SoftwareVersions": "syngo MR E11",
      "SpacingBetweenSlices": 3.9900000484704,
      "SpecificCharacterSet": "ISO_IR 100",
      "StudyID": "67",
      "StudyTime": "101533.098000",
      "TransmitCoilName": "Body",
      "VariableFlipAngleFlag": "N",
      "WindowCenterWidthExplanation": "Algo1",
      "dBdt": 0.0},
    "slices": {}
  },
  "time": {
    "samples": {
      "AcquisitionNumber": [1, 2, 3, 4, 5, 6, 7, 8, 9, 10, 11, 12, 13, 14, 15, 16, 17, 18, 19, 20, 21, 22, 23, 24, 25, 26, 27, 28, 29, 30, 31, 32, 33, 34, 35, 36, 37, 38, 39, 40, 41, 42, 43, 44, 45, 46, 47, 48, 49, 50, 51, 52, 53, 54, 55, 56, 57, 58, 59, 60, 61, 62, 63, 64, 65, 66, 67, 68, 69, 70, 71, 72, 73, 74, 75, 76, 77, 78, 79, 80, 81, 82, 83, 84, 85, 86, 87, 88, 89, 90, 91, 92, 93, 94, 95, 96, 97, 98, 99, 100, 101, 102, 103, 104, 105, 106, 107, 108, 109, 110, 111, 112, 113, 114, 115, 116, 117, 118, 119, 120, 121, 122, 123, 124, 125, 126, 127, 128, 129, 130, 131, 132, 133, 134, 135, 136, 137, 138, 139, 140, 141, 142, 143, 144, 145, 146, 147, 148, 149, 150, 151, 152, 153, 154, 155, 156, 157, 158, 159, 160, 161, 162, 163, 164, 165, 166, 167, 168, 169, 170, 171, 172, 173, 174, 175, 176, 177, 178, 179, 180, 181, 182, 183, 184, 185, 186, 187, 188, 189, 190, 191, 192, 193, 194, 195, 196, 197, 198, 199, 200],
      "AcquisitionTime": ["103057.490000", "103059.490000", "103101.490000", "103103.490000", "103105.490000", "103107.490000", "103109.490000", "103111.490000", "103113.490000", "103115.490000", "103117.490000", "103119.490000", "103121.490000", "103123.490000", "103125.490000", "103127.490000", "103129.490000", "103131.490000", "103133.490000", "103135.490000", "103137.490000", "103139.490000", "103141.490000", "103143.490000", "103145.490000", "103147.490000", "103149.490000", "103151.490000", "103153.490000", "103155.490000", "103157.490000", "103159.490000", "103201.490000", "103203.490000", "103205.490000", "103207.490000", "103209.490000", "103211.490000", "103213.490000", "103215.490000", "103217.490000", "103219.490000", "103221.490000", "103223.490000", "103225.490000", "103227.490000", "103229.490000", "103231.490000", "103233.490000", "103235.490000", "103237.490000", "103239.490000", "103241.490000", "103243.490000", "103245.490000", "103247.490000", "103249.490000", "103251.490000", "103253.490000", "103255.490000", "103257.490000", "103259.490000", "103301.490000", "103303.490000", "103305.490000", "103307.490000", "103309.490000", "103311.490000", "103313.490000", "103315.490000", "103317.490000", "103319.490000", "103321.490000", "103323.490000", "103325.490000", "103327.490000", "103329.490000", "103331.490000", "103333.490000", "103335.490000", "103337.490000", "103339.490000", "103341.490000", "103343.490000", "103345.490000", "103347.490000", "103349.490000", "103351.490000", "103353.490000", "103355.490000", "103357.490000", "103359.490000", "103401.490000", "103403.490000", "103405.490000", "103407.490000", "103409.490000", "103411.490000", "103413.490000", "103415.490000", "103417.490000", "103419.490000", "103421.490000", "103423.490000", "103425.490000", "103427.490000", "103429.490000", "103431.490000", "103433.490000", "103435.490000", "103437.490000", "103439.490000", "103441.490000", "103443.490000", "103445.490000", "103447.490000", "103449.490000", "103451.490000", "103453.490000", "103455.490000", "103457.490000", "103459.490000", "103501.490000", "103503.490000", "103505.490000", "103507.490000", "103509.490000", "103511.490000", "103513.490000", "103515.490000", "103517.490000", "103519.490000", "103521.490000", "103523.490000", "103525.490000", "103527.490000", "103529.490000", "103531.490000", "103533.490000", "103535.490000", "103537.490000", "103539.490000", "103541.490000", "103543.490000", "103545.490000", "103547.490000", "103549.490000", "103551.490000", "103553.490000", "103555.490000", "103557.490000", "103559.490000", "103601.490000", "103603.490000", "103605.490000", "103607.490000", "103609.490000", "103611.490000", "103613.490000", "103615.490000", "103617.490000", "103619.490000", "103621.490000", "103623.490000", "103625.490000", "103627.490000", "103629.490000", "103631.490000", "103633.490000", "103635.490000", "103637.490000", "103639.490000", "103641.490000", "103643.490000", "103645.490000", "103647.490000", "103649.490000", "103651.490000", "103653.490000", "103655.490000", "103657.490000", "103659.490000", "103701.490000", "103703.490000", "103705.490000", "103707.490000", "103709.490000", "103711.490000", "103713.490000", "103715.490000", "103717.490000", "103719.490000", "103721.490000", "103723.490000", "103725.490000", "103727.490000", "103729.490000", "103731.490000", "103733.490000", "103735.490000"],
      "ContentTime": ["103140.509000", "103140.513000", "103140.515000", "103140.518000", "103140.524000", "103140.526000", "103140.529000", "103140.532000", "103140.538000", "103140.540000", "103140.543000", "103140.546000", "103140.548000", "103140.551000", "103140.553000", "103140.556000", "103140.559000", "103140.561000", "103140.564000", "103140.567000", "103140.569000", "103220.505000", "103220.507000", "103220.510000", "103220.513000", "103220.515000", "103220.518000", "103220.521000", "103220.523000", "103220.526000", "103220.528000", "103220.531000", "103220.534000", "103220.536000", "103220.539000", "103220.541000", "103220.544000", "103220.546000", "103220.549000", "103220.552000", "103220.554000", "103300.503000", "103300.506000", "103300.509000", "103300.512000", "103300.514000", "103300.517000", "103300.519000", "103300.522000", "103300.525000", "103300.527000", "103300.530000", "103300.532000", "103300.542000", "103300.545000", "103300.547000", "103300.550000", "103300.553000", "103300.555000", "103300.558000", "103300.561000", "103340.504000", "103340.507000", "103340.510000", "103340.513000", "103340.515000", "103340.518000", "103340.520000", "103340.523000", "103340.526000", "103340.528000", "103340.531000", "103340.533000", "103340.536000", "103340.539000", "103340.541000", "103340.544000", "103340.546000", "103340.549000", "103340.552000", "103340.554000", "103420.505000", "103420.507000", "103420.510000", "103420.513000", "103420.515000", "103420.518000", "103420.521000", "103420.523000", "103420.526000", "103420.528000", "103420.531000", "103420.534000", "103420.536000", "103420.539000", "103420.541000", "103420.544000", "103420.547000", "103420.549000", "103420.552000", "103420.554000", "103500.504000", "103500.507000", "103500.510000", "103500.513000", "103500.515000", "103500.518000", "103500.520000", "103500.523000", "103500.526000", "103500.528000", "103500.531000", "103500.534000", "103500.536000", "103500.539000", "103500.541000", "103500.544000", "103500.547000", "103500.549000", "103500.552000", "103500.554000", "103540.504000", "103540.507000", "103540.510000", "103540.513000", "103540.515000", "103540.518000", "103540.521000", "103540.523000", "103540.526000", "103540.528000", "103540.531000", "103540.534000", "103540.536000", "103540.539000", "103540.541000", "103540.544000", "103540.547000", "103540.549000", "103540.552000", "103540.554000", "103620.505000", "103620.507000", "103620.510000", "103620.513000", "103620.515000", "103620.518000", "103620.521000", "103620.523000", "103620.526000", "103620.529000", "103620.531000", "103620.534000", "103620.536000", "103620.539000", "103620.542000", "103620.544000", "103620.547000", "103620.550000", "103620.552000", "103620.555000", "103700.504000", "103700.507000", "103700.510000", "103700.513000", "103700.515000", "103700.518000", "103700.521000", "103700.523000", "103700.526000", "103700.528000", "103700.531000", "103700.534000", "103700.536000", "103700.539000", "103700.541000", "103700.544000", "103700.546000", "103700.549000", "103700.552000", "103700.554000", "103737.169000", "103737.171000", "103737.174000", "103737.177000", "103737.179000", "103737.182000", "103737.185000", "103737.187000", "103737.190000", "103737.192000", "103737.195000", "103737.198000", "103737.204000", "103737.207000", "103737.210000", "103737.214000", "103737.220000", "103737.223000", "103737.227000"],
      "InstanceCreationTime": ["103140.509000", "103140.513000", "103140.515000", "103140.518000", "103140.524000", "103140.526000", "103140.529000", "103140.532000", "103140.538000", "103140.540000", "103140.543000", "103140.546000", "103140.548000", "103140.551000", "103140.553000", "103140.556000", "103140.559000", "103140.561000", "103140.564000", "103140.567000", "103140.569000", "103220.505000", "103220.507000", "103220.510000", "103220.513000", "103220.515000", "103220.518000", "103220.521000", "103220.523000", "103220.526000", "103220.528000", "103220.531000", "103220.534000", "103220.536000", "103220.539000", "103220.541000", "103220.544000", "103220.546000", "103220.549000", "103220.552000", "103220.554000", "103300.503000", "103300.506000", "103300.509000", "103300.512000", "103300.514000", "103300.517000", "103300.519000", "103300.522000", "103300.525000", "103300.527000", "103300.530000", "103300.532000", "103300.542000", "103300.545000", "103300.547000", "103300.550000", "103300.553000", "103300.555000", "103300.558000", "103300.561000", "103340.504000", "103340.507000", "103340.510000", "103340.513000", "103340.515000", "103340.518000", "103340.520000", "103340.523000", "103340.526000", "103340.528000", "103340.531000", "103340.533000", "103340.536000", "103340.539000", "103340.541000", "103340.544000", "103340.546000", "103340.549000", "103340.552000", "103340.554000", "103420.505000", "103420.507000", "103420.510000", "103420.513000", "103420.515000", "103420.518000", "103420.521000", "103420.523000", "103420.526000", "103420.528000", "103420.531000", "103420.534000", "103420.536000", "103420.539000", "103420.541000", "103420.544000", "103420.547000", "103420.549000", "103420.552000", "103420.554000", "103500.504000", "103500.507000", "103500.510000", "103500.513000", "103500.515000", "103500.518000", "103500.520000", "103500.523000", "103500.526000", "103500.528000", "103500.531000", "103500.534000", "103500.536000", "103500.539000", "103500.541000", "103500.544000", "103500.547000", "103500.549000", "103500.552000", "103500.554000", "103540.504000", "103540.507000", "103540.510000", "103540.513000", "103540.515000", "103540.518000", "103540.521000", "103540.523000", "103540.526000", "103540.528000", "103540.531000", "103540.534000", "103540.536000", "103540.539000", "103540.541000", "103540.544000", "103540.547000", "103540.549000", "103540.552000", "103540.554000", "103620.505000", "103620.507000", "103620.510000", "103620.513000", "103620.515000", "103620.518000", "103620.521000", "103620.523000", "103620.526000", "103620.529000", "103620.531000", "103620.534000", "103620.536000", "103620.539000", "103620.542000", "103620.544000", "103620.547000", "103620.550000", "103620.552000", "103620.555000", "103700.504000", "103700.507000", "103700.510000", "103700.513000", "103700.515000", "103700.518000", "103700.521000", "103700.523000", "103700.526000", "103700.528000", "103700.531000", "103700.534000", "103700.536000", "103700.539000", "103700.541000", "103700.544000", "103700.546000", "103700.549000", "103700.552000", "103700.554000", "103737.169000", "103737.171000", "103737.174000", "103737.177000", "103737.179000", "103737.182000", "103737.185000", "103737.187000", "103737.190000", "103737.192000", "103737.195000", "103737.198000", "103737.204000", "103737.207000", "103737.210000", "103737.214000", "103737.220000", "103737.223000", "103737.227000"],
      "InstanceNumber": [1, 2, 3, 4, 5, 6, 7, 8, 9, 10, 11, 12, 13, 14, 15, 16, 17, 18, 19, 20, 21, 22, 23, 24, 25, 26, 27, 28, 29, 30, 31, 32, 33, 34, 35, 36, 37, 38, 39, 40, 41, 42, 43, 44, 45, 46, 47, 48, 49, 50, 51, 52, 53, 54, 55, 56, 57, 58, 59, 60, 61, 62, 63, 64, 65, 66, 67, 68, 69, 70, 71, 72, 73, 74, 75, 76, 77, 78, 79, 80, 81, 82, 83, 84, 85, 86, 87, 88, 89, 90, 91, 92, 93, 94, 95, 96, 97, 98, 99, 100, 101, 102, 103, 104, 105, 106, 107, 108, 109, 110, 111, 112, 113, 114, 115, 116, 117, 118, 119, 120, 121, 122, 123, 124, 125, 126, 127, 128, 129, 130, 131, 132, 133, 134, 135, 136, 137, 138, 139, 140, 141, 142, 143, 144, 145, 146, 147, 148, 149, 150, 151, 152, 153, 154, 155, 156, 157, 158, 159, 160, 161, 162, 163, 164, 165, 166, 167, 168, 169, 170, 171, 172, 173, 174, 175, 176, 177, 178, 179, 180, 181, 182, 183, 184, 185, 186, 187, 188, 189, 190, 191, 192, 193, 194, 195, 196, 197, 198, 199, 200],
      "LargestImagePixelValue": [2104, 2104, 2104, 2101, 2102, 2102, 2103, 2104, 2102, 2102, 2100, 2100, 2103, 2102, 2104, 2105, 2102, 2101, 2100, 2099, 2101, 2101, 2101, 2101, 2100, 2098, 2101, 2100, 2103, 2100, 2098, 2100, 2098, 2098, 2096, 2099, 2101, 2098, 2099, 2101, 2101, 2101, 2101, 2101, 2101, 2101, 2101, 2100, 2102, 2103, 2102, 2101, 2101, 2099, 2101, 2102, 2102, 2100, 2101, 2100, 2100, 2099, 2100, 2101, 2102, 2101, 2102, 2099, 2101, 2102, 2103, 2105, 2103, 2101, 2102, 2101, 2099, 2100, 2103, 2102, 2101, 2100, 2099, 2100, 2102, 2100, 2101, 2100, 2102, 2101, 2099, 2099, 2102, 2099, 2101, 2100, 2099, 2100, 2101, 2100, 2099, 2098, 2097, 2100, 2102, 2103, 2099, 2100, 2100, 2101, 2100, 2100, 2100, 2099, 2100, 2101, 2100, 2099, 2099, 2098, 2099, 2101, 2099, 2100, 2101, 2100, 2098, 2099, 2099, 2098, 2099, 2101, 2100, 2099, 2100, 2100, 2103, 2100, 2100, 2100, 2102, 2102, 2101, 2100, 2099, 2100, 2098, 2100, 2101, 2101, 2099, 2098, 2097, 2100, 2099, 2097, 2099, 2099, 2099, 2099, 2098, 2100, 2098, 2100, 2098, 2100, 2097, 2099, 2100, 2097, 2100, 2100, 2101, 2099, 2098, 2101, 2100, 2099, 2097, 2099, 2101, 2097, 2097, 2099, 2097, 2100, 2099, 2099, 2098, 2097, 2099, 2101, 2098, 2099, 2098, 2098, 2101, 2098, 2098, 2099],
      "WindowCenter": [1011.0, 1012.0, 1011.0, 1011.0, 1010.0, 1010.0, 1011.0, 1012.0, 1011.0, 1012.0, 1011.0, 1011.0, 1012.0, 1010.0, 1010.0, 1012.0, 1010.0, 1011.0, 1011.0, 1012.0, 1011.0, 1011.0, 1011.0, 1012.0, 1012.0, 1010.0, 1012.0, 1012.0, 1010.0, 1011.0, 1011.0, 1012.0, 1012.0, 1011.0, 1012.0, 1011.0, 1012.0, 1011.0, 1010.0, 1012.0, 1012.0, 1010.0, 1012.0, 1011.0, 1011.0, 1011.0, 1012.0, 1011.0, 1011.0, 1011.0, 1010.0, 1011.0, 1011.0, 1011.0, 1011.0, 1011.0, 1011.0, 1011.0, 1010.0, 1011.0, 1010.0, 1010.0, 1009.0, 1010.0, 1010.0, 1011.0, 1011.0, 1010.0, 1010.0, 1009.0, 1011.0, 1011.0, 1011.0, 1010.0, 1010.0, 1010.0, 1012.0, 1010.0, 1011.0, 1010.0, 1011.0, 1009.0, 1011.0, 1011.0, 1010.0, 1009.0, 1011.0, 1011.0, 1011.0, 1011.0, 1010.0, 1009.0, 1011.0, 1011.0, 1009.0, 1011.0, 1011.0, 1011.0, 1010.0, 1011.0, 1011.0, 1009.0, 1010.0, 1011.0, 1009.0, 1010.0, 1011.0, 1010.0, 1011.0, 1009.0, 1011.0, 1011.0, 1011.0, 1009.0, 1009.0, 1010.0, 1011.0, 1011.0, 1010.0, 1011.0, 1010.0, 1010.0, 1010.0, 1012.0, 1011.0, 1011.0, 1011.0, 1010.0, 1011.0, 1010.0, 1010.0, 1011.0, 1010.0, 1010.0, 1011.0, 1011.0, 1011.0, 1009.0, 1009.0, 1011.0, 1011.0, 1010.0, 1011.0, 1009.0, 1011.0, 1011.0, 1011.0, 1010.0, 1011.0, 1010.0, 1010.0, 1011.0, 1011.0, 1011.0, 1011.0, 1011.0, 1011.0, 1011.0, 1012.0, 1011.0, 1010.0, 1011.0, 1009.0, 1009.0, 1011.0, 1011.0, 1009.0, 1011.0, 1011.0, 1009.0, 1010.0, 1010.0, 1011.0, 1012.0, 1010.0, 1011.0, 1010.0, 1011.0, 1010.0, 1011.0, 1012.0, 1012.0, 1011.0, 1011.0, 1010.0, 1011.0, 1009.0, 1011.0, 1010.0, 1011.0, 1011.0, 1009.0, 1010.0, 1011.0, 1009.0, 1010.0, 1010.0, 1011.0, 1009.0, 1009.0],
      "WindowWidth": [2247.0, 2248.0, 2247.0, 2247.0, 2246.0, 2247.0, 2247.0, 2248.0, 2247.0, 2248.0, 2247.0, 2247.0, 2248.0, 2246.0, 2246.0, 2248.0, 2246.0, 2247.0, 2247.0, 2248.0, 2247.0, 2247.0, 2247.0, 2248.0, 2248.0, 2246.0, 2248.0, 2248.0, 2246.0, 2247.0, 2247.0, 2248.0, 2248.0, 2247.0, 2248.0, 2247.0, 2248.0, 2247.0, 2246.0, 2248.0, 2248.0, 2246.0, 2248.0, 2247.0, 2247.0, 2248.0, 2248.0, 2248.0, 2247.0, 2247.0, 2246.0, 2247.0, 2248.0, 2248.0, 2248.0, 2247.0, 2248.0, 2247.0, 2247.0, 2247.0, 2247.0, 2247.0, 2246.0, 2247.0, 2247.0, 2247.0, 2247.0, 2247.0, 2246.0, 2246.0, 2247.0, 2247.0, 2247.0, 2247.0, 2247.0, 2247.0, 2248.0, 2247.0, 2247.0, 2247.0, 2247.0, 2246.0, 2247.0, 2247.0, 2247.0, 2246.0, 2247.0, 2247.0, 2247.0, 2247.0, 2246.0, 2246.0, 2247.0, 2247.0, 2246.0, 2247.0, 2247.0, 2247.0, 2246.0, 2247.0, 2247.0, 2246.0, 2246.0, 2247.0, 2245.0, 2246.0, 2247.0, 2246.0, 2247.0, 2246.0, 2247.0, 2247.0, 2247.0, 2245.0, 2245.0, 2246.0, 2247.0, 2246.0, 2246.0, 2247.0, 2246.0, 2246.0, 2246.0, 2247.0, 2246.0, 2246.0, 2246.0, 2246.0, 2246.0, 2246.0, 2246.0, 2246.0, 2246.0, 2246.0, 2246.0, 2246.0, 2246.0, 2245.0, 2245.0, 2246.0, 2246.0, 2246.0, 2246.0, 2245.0, 2246.0, 2246.0, 2246.0, 2246.0, 2246.0, 2246.0, 2246.0, 2246.0, 2246.0, 2246.0, 2246.0, 2246.0, 2246.0, 2246.0, 2247.0, 2246.0, 2245.0, 2246.0, 2245.0, 2245.0, 2246.0, 2246.0, 2245.0, 2246.0, 2246.0, 2245.0, 2246.0, 2245.0, 2246.0, 2247.0, 2245.0, 2246.0, 2245.0, 2246.0, 2245.0, 2246.0, 2247.0, 2247.0, 2246.0, 2246.0, 2245.0, 2246.0, 2245.0, 2246.0, 2245.0, 2246.0, 2246.0, 2244.0, 2246.0, 2245.0, 2244.0, 2245.0, 2246.0, 2245.0, 2244.0, 2244.0]
    },
    "slices": {}
  }
}