{
  "AcquisitionMatrixPE": 80,
  "AcquisitionNumber": 1,
  "AcquisitionTime": "10:24:8.185000",
  "BandwidthPerPixelPhaseEncode": 44.643,
  "BaseResolution": 80,
  "BodyPartExamined": "BRAIN",
  "CoilCombinationMethod": "Sum of Squares",
  "ConsistencyInfo": "N4_VE11C_LATEST_20160120",
  "ConversionSoftware": "dcm2niix",
  "ConversionSoftwareVersion": "v1.0.20220720",
  "DerivedVendorReportedEchoSpacing": 0.000559998,
  "DeviceSerialNumber": "66112",
  "DwellTime": 2.7e-06,
  "EchoTime": 0.035,
  "EchoTrainLength": 39,
  "EffectiveEchoSpacing": 0.000279999,
  "FlipAngle": 90,
  "HeudiconvVersion": "0.13.1",
  "ImageOrientationPatientDICOM": [0.984859, 0.173222, 0.00686961, -0.167107, 0.938057, 0.303521],
  "ImageOrientationText": "Tra>Cor(17.5)>Sag(-2.6)",
  "ImageType": [
    "ORIGINAL",
    "PRIMARY",
    "M",
    "ND",
    "NORM",
    "MOSAIC"
],
  "ImagingFrequency": 123.252,
  "InPlanePhaseEncodingDirectionDICOM": "COL",
  "InstitutionAddress": "Maynard 3,Hanover,NH,US,03755",
  "InstitutionName": "Dartmouth College - PBS",
  "InstitutionalDepartmentName": "Department",
  "MRAcquisitionType": "2D",
  "MagneticFieldStrength": 3,
  "Manufacturer": "Siemens",
  "ManufacturersModelName": "Prisma",
  "Modality": "MR",
  "MultibandAccelerationFactor": 4,
  "NonlinearGradientCorrection": false,
  "ParallelReductionFactorInPlane": 2,
  "PartialFourier": 1,
  "PatientPosition": "HFS",
  "PercentPhaseFOV": 100,
  "PercentSampling": 100,
  "PhaseEncodingDirection": "j-",
  "PhaseEncodingSteps": 79,
  "PhaseResolution": 1,
  "PixelBandwidth": 2315,
  "ProcedureStepDescription": "dbic^QA",
  "ProtocolName": "func-bold_task-rest_acq-p2-s4-3.5mm",
  "PulseSequenceDetails": "%SiemensSeq%\\ep2d_bold",
  "ReceiveCoilActiveElements": "HEA;HEP",
  "ReceiveCoilName": "Head_32",
  "ReconMatrixPE": 80,
  "RefLinesPE": 24,
  "RepetitionTime": 2,
  "SAR": 0.0179806,
  "ScanOptions": "FS",
  "ScanningSequence": "EP",
  "SequenceName": "*epfid2d1_80",
  "SequenceVariant": "SK",
  "SeriesDescription": "func-bold_task-rest_acq-p2-s4-3.5mm",
  "SeriesNumber": 7,
  "ShimSetting": [4131, -7707, -7527, 250, -118, -110, 0, 23],
  "SliceThickness": 3.5,
  "SliceTiming": [1.485, 0, 0.99, 0.2475, 1.2375, 0.7425, 1.7325, 0.495, 1.485, 0, 0.99, 0.2475, 1.2375, 0.7425, 1.7325, 0.495, 1.485, 0, 0.99, 0.2475, 1.2375, 0.7425, 1.7325, 0.495, 1.485, 0, 0.99, 0.2475, 1.2375, 0.7425, 1.7325, 0.495],
  "SoftwareVersions": "syngo MR E11",
  "SpacingBetweenSlices": 3.99,
  "StationName": "AWP66112",
  "TaskName": "rest",
  "TotalReadoutTime": 0.0221199,
  "TxRefAmp": 222.123,
  "dcmmeta_affine": [
    [-2.9545767307281494, -0.5013206005096436, -0.18406780064105988, 142.89996337890625],
    [-0.5196645855903625, 2.8141701221466064, 1.197292447090149, -95.24030303955078],
    [0.020608829334378242, -0.9105628728866577, 3.8016719818115234, -23.500751495361328],
    [0.0, 0.0, 0.0, 1.0]
],
  "dcmmeta_reorient_transform": [
    [0.0, -1.0, 0.0, 79.0],
    [1.0, 0.0, 0.0, 0.0],
    [0.0, 0.0, 1.0, 0.0],
    [0.0, 0.0, 0.0, 1.0]
],
  "dcmmeta_shape": [80, 80, 32, 200],
  "dcmmeta_slice_dim": 2,
  "dcmmeta_version": 0.6,
  "global": {
    "const": {
      "AccessionNumber": "qa",
      "AcquisitionMatrix": [80, 0, 0, 80],
      "AngioFlag": "N",
      "BitsAllocated": 16,
      "BitsStored": 12,
      "BodyPartExamined": "BRAIN",
      "Columns": 480,
      "EchoNumbers": 1,
      "EchoTime": 35.0,
      "EchoTrainLength": 39,
      "FlipAngle": 90.0,
      "HighBit": 11,
      "ImageOrientationPatient": [0.98485892869339, 0.17322153165976, 0.00686961005902, -0.1671068617509, 0.93805667628916, 0.30352095286008],
      "ImagePositionPatient": [-593.94688012055, -793.84605206331, -281.66955597924],
      "ImageType": [
        "ORIGINAL",
        "PRIMARY",
        "M",
        "ND",
        "NORM",
        "MOSAIC"
],
      "ImagedNucleus": "1H",
      "ImagingFrequency": 123.25232,
      "InPlanePhaseEncodingDirection": "COL",
      "MRAcquisitionType": "2D",
      "MagneticFieldStrength": 3.0,
      "Manufacturer": "SIEMENS",
      "ManufacturerModelName": "Prisma",
      "Modality": "MR",
      "NumberOfAverages": 1.0,
      "NumberOfPhaseEncodingSteps": 79,
      "PercentPhaseFieldOfView": 100.0,
      "PercentSampling": 100.0,
      "PerformedProcedureStepStartTime": "101533.154000",
      "PhotometricInterpretation": "MONOCHROME2",
      "PixelBandwidth": 2315.0,
      "PixelRepresentation": 0,
      "PixelSpacing": [3.0, 3.0],
      "ProtocolName": "func-bold_task-rest_acq-p2-s4-3.5mm",
      "RepetitionTime": 2000.0,
      "Rows": 480,
      "SAR": 0.01798056050181,
      "SamplesPerPixel": 1,
      "ScanOptions": "FS",
      "ScanningSequence": "EP",
      "SequenceName": "*epfid2d1_80",
      "SequenceVariant": "SK",
      "SeriesDescription": "func-bold_task-rest_acq-p2-s4-3.5mm",
      "SeriesNumber": 7,
      "SeriesTime": "102500.436000",
      "SliceLocation": -57.562888896817,
      "SliceThickness": 3.5,
      "SmallestImagePixelValue": 0,
      "SoftwareVersions": "syngo MR E11",
      "SpacingBetweenSlices": 3.9900000433896,
      "SpecificCharacterSet": "ISO_IR 100",
      "StudyID": "67",
      "StudyTime": "101533.098000",
      "TransmitCoilName": "Body",
      "VariableFlipAngleFlag": "N",
      "WindowCenter": 953.0,
      "WindowCenterWidthExplanation": "Algo1",
      "dBdt": 0.0},
    "slices": {}
  },
  "time": {
    "samples": {
      "AcquisitionNumber": [1, 2, 3, 4, 5, 6, 7, 8, 9, 10, 11, 12, 13, 14, 15, 16, 17, 18, 19, 20, 21, 22, 23, 24, 25, 26, 27, 28, 29, 30, 31, 32, 33, 34, 35, 36, 37, 38, 39, 40, 41, 42, 43, 44, 45, 46, 47, 48, 49, 50, 51, 52, 53, 54, 55, 56, 57, 58, 59, 60, 61, 62, 63, 64, 65, 66, 67, 68, 69, 70, 71, 72, 73, 74, 75, 76, 77, 78, 79, 80, 81, 82, 83, 84, 85, 86, 87, 88, 89, 90, 91, 92, 93, 94, 95, 96, 97, 98, 99, 100, 101, 102, 103, 104, 105, 106, 107, 108, 109, 110, 111, 112, 113, 114, 115, 116, 117, 118, 119, 120, 121, 122, 123, 124, 125, 126, 127, 128, 129, 130, 131, 132, 133, 134, 135, 136, 137, 138, 139, 140, 141, 142, 143, 144, 145, 146, 147, 148, 149, 150, 151, 152, 153, 154, 155, 156, 157, 158, 159, 160, 161, 162, 163, 164, 165, 166, 167, 168, 169, 170, 171, 172, 173, 174, 175, 176, 177, 178, 179, 180, 181, 182, 183, 184, 185, 186, 187, 188, 189, 190, 191, 192, 193, 194, 195, 196, 197, 198, 199, 200],
      "AcquisitionTime": ["102408.185000", "102410.185000", "102412.185000", "102414.185000", "102416.185000", "102418.185000", "102420.185000", "102422.185000", "102424.185000", "102426.185000", "102428.185000", "102430.185000", "102432.185000", "102434.185000", "102436.185000", "102438.185000", "102440.185000", "102442.185000", "102444.185000", "102446.185000", "102448.185000", "102450.185000", "102452.185000", "102454.185000", "102456.185000", "102458.185000", "102500.185000", "102502.185000", "102504.185000", "102506.185000", "102508.185000", "102510.185000", "102512.185000", "102514.185000", "102516.185000", "102518.185000", "102520.185000", "102522.185000", "102524.185000", "102526.185000", "102528.185000", "102530.185000", "102532.185000", "102534.185000", "102536.185000", "102538.185000", "102540.185000", "102542.185000", "102544.185000", "102546.185000", "102548.185000", "102550.185000", "102552.185000", "102554.185000", "102556.185000", "102558.185000", "102600.185000", "102602.185000", "102604.185000", "102606.185000", "102608.185000", "102610.185000", "102612.185000", "102614.185000", "102616.185000", "102618.185000", "102620.185000", "102622.185000", "102624.185000", "102626.185000", "102628.185000", "102630.185000", "102632.185000", "102634.185000", "102636.185000", "102638.185000", "102640.185000", "102642.185000", "102644.185000", "102646.185000", "102648.185000", "102650.185000", "102652.185000", "102654.185000", "102656.185000", "102658.185000", "102700.185000", "102702.185000", "102704.185000", "102706.185000", "102708.185000", "102710.185000", "102712.185000", "102714.185000", "102716.185000", "102718.185000", "102720.185000", "102722.185000", "102724.185000", "102726.185000", "102728.185000", "102730.185000", "102732.185000", "102734.185000", "102736.185000", "102738.185000", "102740.185000", "102742.185000", "102744.185000", "102746.185000", "102748.185000", "102750.185000", "102752.185000", "102754.185000", "102756.185000", "102758.185000", "102800.185000", "102802.185000", "102804.185000", "102806.185000", "102808.185000", "102810.185000", "102812.185000", "102814.185000", "102816.185000", "102818.185000", "102820.185000", "102822.185000", "102824.185000", "102826.185000", "102828.185000", "102830.185000", "102832.185000", "102834.185000", "102836.185000", "102838.185000", "102840.185000", "102842.185000", "102844.185000", "102846.185000", "102848.185000", "102850.185000", "102852.185000", "102854.185000", "102856.185000", "102858.185000", "102900.185000", "102902.185000", "102904.185000", "102906.185000", "102908.185000", "102910.185000", "102912.185000", "102914.185000", "102916.185000", "102918.185000", "102920.185000", "102922.185000", "102924.185000", "102926.185000", "102928.185000", "102930.185000", "102932.185000", "102934.185000", "102936.185000", "102938.185000", "102940.185000", "102942.185000", "102944.185000", "102946.185000", "102948.185000", "102950.185000", "102952.185000", "102954.185000", "102956.185000", "102958.185000", "103000.185000", "103002.185000", "103004.185000", "103006.185000", "103008.185000", "103010.185000", "103012.185000", "103014.185000", "103016.185000", "103018.185000", "103020.185000", "103022.185000", "103024.185000", "103026.185000", "103028.185000", "103030.185000", "103032.185000", "103034.185000", "103036.185000", "103038.185000", "103040.185000", "103042.185000", "103044.185000", "103046.185000"],
      "ContentTime": ["102500.439000", "102500.443000", "102500.445000", "102500.448000", "102500.457000", "102500.460000", "102500.462000", "102500.465000", "102500.467000", "102500.470000", "102500.473000", "102500.475000", "102500.482000", "102500.485000", "102500.487000", "102500.490000", "102500.497000", "102500.500000", "102500.503000", "102500.505000", "102500.508000", "102500.511000", "102500.513000", "102500.516000", "102500.519000", "102500.521000", "102540.435000", "102540.438000", "102540.440000", "102540.443000", "102540.446000", "102540.448000", "102540.451000", "102540.454000", "102540.456000", "102540.459000", "102540.469000", "102540.472000", "102540.474000", "102540.477000", "102540.480000", "102540.482000", "102540.485000", "102540.488000", "102540.490000", "102540.493000", "102620.435000", "102620.437000", "102620.440000", "102620.443000", "102620.445000", "102620.448000", "102620.450000", "102620.453000", "102620.456000", "102620.458000", "102620.471000", "102620.474000", "102620.477000", "102620.479000", "102620.482000", "102620.485000", "102620.487000", "102620.490000", "102620.493000", "102620.495000", "102700.434000", "102700.437000", "102700.440000", "102700.443000", "102700.445000", "102700.448000", "102700.451000", "102700.453000", "102700.456000", "102700.459000", "102700.461000", "102700.464000", "102700.467000", "102700.469000", "102700.472000", "102700.475000", "102700.477000", "102700.480000", "102700.483000", "102700.485000", "102740.435000", "102740.437000", "102740.440000", "102740.443000", "102740.446000", "102740.448000", "102740.451000", "102740.454000", "102740.456000", "102740.459000", "102740.461000", "102740.464000", "102740.467000", "102740.469000", "102740.472000", "102740.474000", "102740.477000", "102740.480000", "102740.482000", "102740.485000", "102820.434000", "102820.437000", "102820.439000", "102820.442000", "102820.445000", "102820.447000", "102820.450000", "102820.453000", "102820.455000", "102820.458000", "102820.461000", "102820.463000", "102820.466000", "102820.468000", "102820.471000", "102820.474000", "102820.476000", "102820.479000", "102820.482000", "102820.484000", "102840.435000", "102840.438000", "102840.440000", "102840.443000", "102840.446000", "102840.448000", "102840.451000", "102840.454000", "102840.456000", "102840.459000", "102920.435000", "102920.438000", "102920.440000", "102920.443000", "102920.446000", "102920.448000", "102920.451000", "102920.453000", "102920.456000", "102920.459000", "102920.461000", "102920.464000", "102920.467000", "102920.470000", "102920.472000", "102920.475000", "102920.477000", "102920.480000", "102920.483000", "102920.485000", "103000.435000", "103000.437000", "103000.440000", "103000.443000", "103000.446000", "103000.448000", "103000.451000", "103000.453000", "103000.456000", "103000.459000", "103000.461000", "103000.464000", "103000.467000", "103000.469000", "103000.483000", "103000.486000", "103000.489000", "103000.491000", "103000.494000", "103000.496000", "103040.434000", "103040.436000", "103040.439000", "103040.442000", "103040.445000", "103040.447000", "103040.450000", "103040.452000", "103040.455000", "103040.458000", "103040.460000", "103040.463000", "103040.466000", "103040.468000", "103040.471000", "103040.474000", "103040.476000", "103040.479000", "103040.482000", "103040.484000", "103046.787000", "103046.790000", "103046.793000", "103046.795000"],
      "InstanceCreationTime": ["102500.439000", "102500.443000", "102500.445000", "102500.448000", "102500.457000", "102500.460000", "102500.462000", "102500.465000", "102500.467000", "102500.470000", "102500.473000", "102500.475000", "102500.482000", "102500.485000", "102500.487000", "102500.490000", "102500.497000", "102500.500000", "102500.503000", "102500.505000", "102500.508000", "102500.511000", "102500.513000", "102500.516000", "102500.519000", "102500.521000", "102540.435000", "102540.438000", "102540.440000", "102540.443000", "102540.446000", "102540.448000", "102540.451000", "102540.454000", "102540.456000", "102540.459000", "102540.469000", "102540.472000", "102540.474000", "102540.477000", "102540.480000", "102540.482000", "102540.485000", "102540.488000", "102540.490000", "102540.493000", "102620.435000", "102620.437000", "102620.440000", "102620.443000", "102620.445000", "102620.448000", "102620.450000", "102620.453000", "102620.456000", "102620.458000", "102620.471000", "102620.474000", "102620.477000", "102620.479000", "102620.482000", "102620.485000", "102620.487000", "102620.490000", "102620.493000", "102620.495000", "102700.434000", "102700.437000", "102700.440000", "102700.443000", "102700.445000", "102700.448000", "102700.451000", "102700.453000", "102700.456000", "102700.459000", "102700.461000", "102700.464000", "102700.467000", "102700.469000", "102700.472000", "102700.475000", "102700.477000", "102700.480000", "102700.483000", "102700.485000", "102740.435000", "102740.437000", "102740.440000", "102740.443000", "102740.446000", "102740.448000", "102740.451000", "102740.454000", "102740.456000", "102740.459000", "102740.461000", "102740.464000", "102740.467000", "102740.469000", "102740.472000", "102740.474000", "102740.477000", "102740.480000", "102740.482000", "102740.485000", "102820.434000", "102820.437000", "102820.439000", "102820.442000", "102820.445000", "102820.447000", "102820.450000", "102820.453000", "102820.455000", "102820.458000", "102820.461000", "102820.463000", "102820.466000", "102820.468000", "102820.471000", "102820.474000", "102820.476000", "102820.479000", "102820.482000", "102820.484000", "102840.435000", "102840.438000", "102840.440000", "102840.443000", "102840.446000", "102840.448000", "102840.451000", "102840.454000", "102840.456000", "102840.459000", "102920.435000", "102920.438000", "102920.440000", "102920.443000", "102920.446000", "102920.448000", "102920.451000", "102920.453000", "102920.456000", "102920.459000", "102920.461000", "102920.464000", "102920.467000", "102920.470000", "102920.472000", "102920.475000", "102920.477000", "102920.480000", "102920.483000", "102920.485000", "103000.435000", "103000.437000", "103000.440000", "103000.443000", "103000.446000", "103000.448000", "103000.451000", "103000.453000", "103000.456000", "103000.459000", "103000.461000", "103000.464000", "103000.467000", "103000.469000", "103000.483000", "103000.486000", "103000.489000", "103000.491000", "103000.494000", "103000.496000", "103040.434000", "103040.436000", "103040.439000", "103040.442000", "103040.445000", "103040.447000", "103040.450000", "103040.452000", "103040.455000", "103040.458000", "103040.460000", "103040.463000", "103040.466000", "103040.468000", "103040.471000", "103040.474000", "103040.476000", "103040.479000", "103040.482000", "103040.484000", "103046.787000", "103046.790000", "103046.793000", "103046.795000"],
      "InstanceNumber": [1, 2, 3, 4, 5, 6, 7, 8, 9, 10, 11, 12, 13, 14, 15, 16, 17, 18, 19, 20, 21, 22, 23, 24, 25, 26, 27, 28, 29, 30, 31, 32, 33, 34, 35, 36, 37, 38, 39, 40, 41, 42, 43, 44, 45, 46, 47, 48, 49, 50, 51, 52, 53, 54, 55, 56, 57, 58, 59, 60, 61, 62, 63, 64, 65, 66, 67, 68, 69, 70, 71, 72, 73, 74, 75, 76, 77, 78, 79, 80, 81, 82, 83, 84, 85, 86, 87, 88, 89, 90, 91, 92, 93, 94, 95, 96, 97, 98, 99, 100, 101, 102, 103, 104, 105, 106, 107, 108, 109, 110, 111, 112, 113, 114, 115, 116, 117, 118, 119, 120, 121, 122, 123, 124, 125, 126, 127, 128, 129, 130, 131, 132, 133, 134, 135, 136, 137, 138, 139, 140, 141, 142, 143, 144, 145, 146, 147, 148, 149, 150, 151, 152, 153, 154, 155, 156, 157, 158, 159, 160, 161, 162, 163, 164, 165, 166, 167, 168, 169, 170, 171, 172, 173, 174, 175, 176, 177, 178, 179, 180, 181, 182, 183, 184, 185, 186, 187, 188, 189, 190, 191, 192, 193, 194, 195, 196, 197, 198, 199, 200],
      "LargestImagePixelValue": [2098, 2097, 2097, 2102, 2100, 2100, 2099, 2098, 2099, 2100, 2098, 2100, 2106, 2100, 2104, 2102, 2104, 2100, 2104, 2103, 2105, 2101, 2105, 2099, 2112, 2109, 2104, 2106, 2102, 2102, 2097, 2096, 2104, 2098, 2100, 2101, 2107, 2102, 2101, 2109, 2096, 2102, 2104, 2105, 2106, 2106, 2104, 2104, 2103, 2111, 2106, 2101, 2103, 2107, 2103, 2105, 2103, 2100, 2107, 2100, 2106, 2106, 2104, 2103, 2105, 2104, 2107, 2107, 2102, 2109, 2103, 2104, 2102, 2105, 2106, 2108, 2109, 2105, 2106, 2109, 2106, 2107, 2107, 2112, 2106, 2102, 2108, 2107, 2107, 2104, 2106, 2109, 2099, 2109, 2103, 2100, 2102, 2097, 2101, 2106, 2103, 2101, 2105, 2106, 2105, 2106, 2111, 2101, 2102, 2107, 2104, 2104, 2103, 2107, 2106, 2105, 2105, 2106, 2104, 2111, 2110, 2106, 2105, 2109, 2104, 2100, 2100, 2105, 2106, 2102, 2105, 2106, 2108, 2108, 2106, 2106, 2110, 2109, 2106, 2103, 2108, 2102, 2113, 2106, 2104, 2104, 2109, 2110, 2106, 2106, 2109, 2107, 2108, 2108, 2107, 2102, 2108, 2106, 2103, 2105, 2104, 2108, 2105, 2112, 2108, 2103, 2103, 2109, 2109, 2102, 2098, 2105, 2102, 2102, 2101, 2104, 2109, 2104, 2104, 2104, 2107, 2107, 2103, 2110, 2103, 2104, 2105, 2103, 2105, 2107, 2106, 2109, 2106, 2104, 2109, 2105, 2104, 2106, 2110, 2102],
      "WindowWidth": [2218.0, 2217.0, 2218.0, 2218.0, 2218.0, 2218.0, 2218.0, 2217.0, 2218.0, 2218.0, 2218.0, 2218.0, 2218.0, 2218.0, 2218.0, 2218.0, 2218.0, 2218.0, 2218.0, 2218.0, 2218.0, 2218.0, 2218.0, 2218.0, 2218.0, 2218.0, 2218.0, 2218.0, 2218.0, 2218.0, 2218.0, 2218.0, 2218.0, 2218.0, 2218.0, 2218.0, 2218.0, 2218.0, 2218.0, 2218.0, 2218.0, 2218.0, 2218.0, 2218.0, 2218.0, 2218.0, 2218.0, 2218.0, 2218.0, 2218.0, 2218.0, 2218.0, 2218.0, 2218.0, 2218.0, 2219.0, 2218.0, 2218.0, 2218.0, 2218.0, 2218.0, 2218.0, 2218.0, 2218.0, 2218.0, 2219.0, 2218.0, 2218.0, 2218.0, 2219.0, 2218.0, 2218.0, 2218.0, 2218.0, 2218.0, 2218.0, 2218.0, 2219.0, 2219.0, 2218.0, 2218.0, 2219.0, 2218.0, 2219.0, 2218.0, 2218.0, 2218.0, 2218.0, 2218.0, 2218.0, 2219.0, 2218.0, 2218.0, 2219.0, 2219.0, 2218.0, 2219.0, 2218.0, 2218.0, 2218.0, 2218.0, 2218.0, 2218.0, 2218.0, 2218.0, 2218.0, 2218.0, 2218.0, 2218.0, 2218.0, 2218.0, 2218.0, 2218.0, 2218.0, 2219.0, 2218.0, 2219.0, 2219.0, 2218.0, 2219.0, 2218.0, 2218.0, 2218.0, 2219.0, 2219.0, 2218.0, 2219.0, 2219.0, 2219.0, 2218.0, 2219.0, 2218.0, 2218.0, 2218.0, 2219.0, 2219.0, 2218.0, 2218.0, 2218.0, 2218.0, 2218.0, 2218.0, 2218.0, 2218.0, 2218.0, 2218.0, 2218.0, 2218.0, 2219.0, 2218.0, 2218.0, 2218.0, 2218.0, 2219.0, 2218.0, 2218.0, 2218.0, 2218.0, 2218.0, 2219.0, 2219.0, 2218.0, 2218.0, 2218.0, 2218.0, 2218.0, 2219.0, 2219.0, 2218.0, 2218.0, 2219.0, 2219.0, 2219.0, 2219.0, 2219.0, 2219.0, 2218.0, 2218.0, 2219.0, 2219.0, 2219.0, 2219.0, 2218.0, 2218.0, 2219.0, 2218.0, 2218.0, 2219.0, 2219.0, 2219.0, 2218.0, 2219.0, 2219.0, 2219.0, 2219.0, 2218.0, 2219.0, 2219.0, 2219.0, 2219.0]
    },
    "slices": {}
  }
}