{
  "AcquisitionMatrixPE": 122,
  "AcquisitionNumber": 1,
  "AcquisitionTime": "09:41:37.480000",
  "BandwidthPerPixelPhaseEncode": 27.785,
  "BaseResolution": 122,
  "BodyPartExamined": "BRAIN",
  "CoilCombinationMethod": "Adaptive Combine",
  "ConsistencyInfo": "N4_VE11C_LATEST_20160120",
  "ConversionSoftware": "dcm2niix",
  "ConversionSoftwareVersion": "v1.0.20220720",
  "DerivedVendorReportedEchoSpacing": 0.000590011,
  "DeviceSerialNumber": "66112",
  "DiffusionScheme": "Monopolar",
  "DwellTime": 2e-06,
  "EchoTime": 0.068,
  "EchoTrainLength": 61,
  "EffectiveEchoSpacing": 0.000295005,
  "FlipAngle": 90,
  "HeudiconvVersion": "0.13.1",
  "ImageOrientationPatientDICOM": [0.98652, 0.163112, 0.0131827, -0.159075, 0.936955, 0.311143],
  "ImageOrientationText": "Tra>Cor(18.0)>Sag(-2.2)",
  "ImageType": [
    "ORIGINAL",
    "PRIMARY",
    "DIFFUSION",
    "NONE",
    "ND",
    "NORM"
],
  "ImagingFrequency": 123.252,
  "InPlanePhaseEncodingDirectionDICOM": "COL",
  "InstitutionAddress": "Maynard 3,Hanover,NH,US,03755",
  "InstitutionName": "Dartmouth College - PBS",
  "InstitutionalDepartmentName": "Department",
  "MRAcquisitionType": "2D",
  "MagneticFieldStrength": 3,
  "Manufacturer": "Siemens",
  "ManufacturersModelName": "Prisma",
  "Modality": "MR",
  "MultibandAccelerationFactor": 4,
  "NonlinearGradientCorrection": false,
  "ParallelReductionFactorInPlane": 2,
  "PartialFourier": 1,
  "PatientPosition": "HFS",
  "PercentPhaseFOV": 100,
  "PercentSampling": 100,
  "PhaseEncodingDirection": "j-",
  "PhaseEncodingSteps": 122,
  "PhaseResolution": 1,
  "PixelBandwidth": 2050,
  "ProcedureStepDescription": "dbic^QA",
  "ProtocolName": "dwi_acq-DTI-30-p2-s4",
  "PulseSequenceDetails": "%SiemensSeq%\\ep2d_diff",
  "ReceiveCoilActiveElements": "HEA;HEP",
  "ReceiveCoilName": "Head_32",
  "ReconMatrixPE": 122,
  "RefLinesPE": 38,
  "RepetitionTime": 3.6,
  "SAR": 0.160866,
  "ScanOptions": "FS",
  "ScanningSequence": "EP",
  "SequenceName": "*ep_b0",
  "SequenceVariant": "SK\\SP",
  "SeriesDescription": "dwi_acq-DTI-30-p2-s4",
  "SeriesNumber": 13,
  "ShimSetting": [4146, -7698, -7516, 232, -62, -65, -9, 55],
  "SliceThickness": 2,
  "SliceTiming": [2.57812, 0, 1.78906, 0.19531, 1.98438, 0.39062, 2.1875, 0.59375, 2.38281, 0.99219, 2.78125, 1.1875, 2.97656, 1.39062, 3.17969, 1.58594, 3.375, 0.78906, 2.57812, 0, 1.78906, 0.19531, 1.98438, 0.39062, 2.1875, 0.59375, 2.38281, 0.99219, 2.78125, 1.1875, 2.97656, 1.39062, 3.17969, 1.58594, 3.375, 0.78906, 2.57812, 0, 1.78906, 0.19531, 1.98438, 0.39062, 2.1875, 0.59375, 2.38281, 0.99219, 2.78125, 1.1875, 2.97656, 1.39062, 3.17969, 1.58594, 3.375, 0.78906, 2.57812, 0, 1.78906, 0.19531, 1.98438, 0.39062, 2.1875, 0.59375, 2.38281, 0.99219, 2.78125, 1.1875, 2.97656, 1.39062, 3.17969, 1.58594, 3.375, 0.78906],
  "SoftwareVersions": "syngo MR E11",
  "SpacingBetweenSlices": 2,
  "SpoilingState": true,
  "StationName": "AWP66112",
  "TotalReadoutTime": 0.0356956,
  "TxRefAmp": 222.733,
  "dcmmeta_affine": [
    [-1.9406942129135132, -0.31293365359306335, -0.07679903507232666, 142.29762268066406],
    [-0.32087573409080505, 1.8431907892227173, 0.6180915832519531, -103.18946075439453],
    [0.02593318000435829, -0.6120848059654236, 1.900543212890625, -28.13249969482422],
    [0.0, 0.0, 0.0, 1.0]
],
  "dcmmeta_reorient_transform": [
    [0.0, -1.0, 0.0, 121.0],
    [1.0, 0.0, 0.0, 0.0],
    [0.0, 0.0, -1.0, 71.0],
    [0.0, 0.0, 0.0, 1.0]
],
  "dcmmeta_shape": [122, 122, 72, 31],
  "dcmmeta_slice_dim": 2,
  "dcmmeta_version": 0.6,
  "global": {
    "const": {
      "AccessionNumber": "qa",
      "AcquisitionMatrix": [122, 0, 0, 122],
      "AngioFlag": "N",
      "BitsAllocated": 16,
      "BitsStored": 12,
      "BodyPartExamined": "BRAIN",
      "Columns": 122,
      "EchoNumbers": 1,
      "EchoTime": 68.0,
      "EchoTrainLength": 61,
      "FlipAngle": 90.0,
      "HighBit": 11,
      "ImageOrientationPatient": [0.98651951163838, 0.1631118315442, 0.01318269953623, -0.1590746045946, 0.93695530021113, 0.31114311109092],
      "ImageType": [
        "ORIGINAL",
        "PRIMARY",
        "DIFFUSION",
        "NONE",
        "ND",
        "NORM"
],
      "ImagedNucleus": "1H",
      "ImagingFrequency": 123.252368,
      "InPlanePhaseEncodingDirection": "COL",
      "MRAcquisitionType": "2D",
      "MagneticFieldStrength": 3.0,
      "Manufacturer": "SIEMENS",
      "ManufacturerModelName": "Prisma",
      "Modality": "MR",
      "NumberOfAverages": 1.0,
      "NumberOfPhaseEncodingSteps": 122,
      "PercentPhaseFieldOfView": 100.0,
      "PercentSampling": 100.0,
      "PerformedProcedureStepStartTime": "085834.745000",
      "PhotometricInterpretation": "MONOCHROME2",
      "PixelBandwidth": 2050.0,
      "PixelRepresentation": 0,
      "PixelSpacing": [1.9672131538391, 1.9672131538391],
      "ProtocolName": "dwi_acq-DTI-30-p2-s4",
      "RepetitionTime": 3600.0,
      "Rows": 122,
      "SAR": 0.16086586853362,
      "SamplesPerPixel": 1,
      "ScanOptions": "FS",
      "ScanningSequence": "EP",
      "SequenceVariant": [
        "SK",
        "SP"
],
      "SeriesDescription": "dwi_acq-DTI-30-p2-s4",
      "SeriesNumber": 13,
      "SeriesTime": "094146.935000",
      "SliceThickness": 2.0,
      "SmallestImagePixelValue": 0,
      "SoftwareVersions": "syngo MR E11",
      "SpacingBetweenSlices": 2.0,
      "SpecificCharacterSet": "ISO_IR 100",
      "StudyID": "7",
      "StudyTime": "085834.694000",
      "TransmitCoilName": "Body",
      "VariableFlipAngleFlag": "N",
      "WindowCenterWidthExplanation": "Algo1",
      "dBdt": 0.0},
    "slices": {
      "AcquisitionTime": ["094137.480000", "094134.895000", "094136.685000", "094135.095000", "094136.885000", "094135.292500", "094137.082500", "094135.492500", "094137.282500", "094135.890000", "094137.680000", "094136.087500", "094137.877500", "094136.287500", "094138.077500", "094136.485000", "094138.275000", "094135.690000", "094137.480000", "094134.895000", "094136.685000", "094135.095000", "094136.885000", "094135.292500", "094137.082500", "094135.492500", "094137.282500", "094135.890000", "094137.680000", "094136.087500", "094137.877500", "094136.287500", "094138.077500", "094136.485000", "094138.275000", "094135.690000", "094137.480000", "094134.895000", "094136.685000", "094135.095000", "094136.885000", "094135.292500", "094137.082500", "094135.492500", "094137.282500", "094135.890000", "094137.680000", "094136.087500", "094137.877500", "094136.287500", "094138.077500", "094136.485000", "094138.275000", "094135.690000", "094137.480000", "094134.895000", "094136.685000", "094135.095000", "094136.885000", "094135.292500", "094137.082500", "094135.492500", "094137.282500", "094135.890000", "094137.680000", "094136.087500", "094137.877500", "094136.287500", "094138.077500", "094136.485000", "094138.275000", "094135.690000", "094141.080000", "094138.495000", "094140.285000", "094138.695000", "094140.485000", "094138.892500", "094140.682500", "094139.092500", "094140.882500", "094139.490000", "094141.280000", "094139.687500", "094141.477500", "094139.887500", "094141.677500", "094140.085000", "094141.875000", "094139.290000", "094141.080000", "094138.495000", "094140.285000", "094138.695000", "094140.485000", "094138.892500", "094140.682500", "094139.092500", "094140.882500", "094139.490000", "094141.280000", "094139.687500", "094141.477500", "094139.887500", "094141.677500", "094140.085000", "094141.875000", "094139.290000", "094141.080000", "094138.495000", "094140.285000", "094138.695000", "094140.485000", "094138.892500", "094140.682500", "094139.092500", "094140.882500", "094139.490000", "094141.280000", "094139.687500", "094141.477500", "094139.887500", "094141.677500", "094140.085000", "094141.875000", "094139.290000", "094141.080000", "094138.495000", "094140.285000", "094138.695000", "094140.485000", "094138.892500", "094140.682500", "094139.092500", "094140.882500", "094139.490000", "094141.280000", "094139.687500", "094141.477500", "094139.887500", "094141.677500", "094140.085000", "094141.875000", "094139.290000", "094144.680000", "094142.095000", "094143.885000", "094142.295000", "094144.085000", "094142.492500", "094144.282500", "094142.692500", "094144.482500", "094143.090000", "094144.880000", "094143.287500", "094145.077500", "094143.487500", "094145.277500", "094143.685000", "094145.475000", "094142.890000", "094144.680000", "094142.095000", "094143.885000", "094142.295000", "094144.085000", "094142.492500", "094144.282500", "094142.692500", "094144.482500", "094143.090000", "094144.880000", "094143.287500", "094145.077500", "094143.487500", "094145.277500", "094143.685000", "094145.475000", "094142.890000", "094144.680000", "094142.095000", "094143.885000", "094142.295000", "094144.085000", "094142.492500", "094144.282500", "094142.692500", "094144.482500", "094143.090000", "094144.880000", "094143.287500", "094145.077500", "094143.487500", "094145.277500", "094143.685000", "094145.475000", "094142.890000", "094144.680000", "094142.095000", "094143.885000", "094142.295000", "094144.085000", "094142.492500", "094144.282500", "094142.692500", "094144.482500", "094143.090000", "094144.880000", "094143.287500", "094145.077500", "094143.487500", "094145.277500", "094143.685000", "094145.475000", "094142.890000", "094148.280000", "094145.695000", "094147.485000", "094145.895000", "094147.685000", "094146.092500", "094147.882500", "094146.292500", "094148.082500", "094146.690000", "094148.480000", "094146.887500", "094148.677500", "094147.087500", "094148.877500", "094147.285000", "094149.075000", "094146.490000", "094148.280000", "094145.695000", "094147.485000", "094145.895000", "094147.685000", "094146.092500", "094147.882500", "094146.292500", "094148.082500", "094146.690000", "094148.480000", "094146.887500", "094148.677500", "094147.087500", "094148.877500", "094147.285000", "094149.075000", "094146.490000", "094148.280000", "094145.695000", "094147.485000", "094145.895000", "094147.685000", "094146.092500", "094147.882500", "094146.292500", "094148.082500", "094146.690000", "094148.480000", "094146.887500", "094148.677500", "094147.087500", "094148.877500", "094147.285000", "094149.075000", "094146.490000", "094148.280000", "094145.695000", "094147.485000", "094145.895000", "094147.685000", "094146.092500", "094147.882500", "094146.292500", "094148.082500", "094146.690000", "094148.480000", "094146.887500", "094148.677500", "094147.087500", "094148.877500", "094147.285000", "094149.075000", "094146.490000", "094151.880000", "094149.295000", "094151.085000", "094149.495000", "094151.285000", "094149.692500", "094151.482500", "094149.892500", "094151.682500", "094150.290000", "094152.080000", "094150.487500", "094152.277500", "094150.687500", "094152.477500", "094150.885000", "094152.675000", "094150.090000", "094151.880000", "094149.295000", "094151.085000", "094149.495000", "094151.285000", "094149.692500", "094151.482500", "094149.892500", "094151.682500", "094150.290000", "094152.080000", "094150.487500", "094152.277500", "094150.687500", "094152.477500", "094150.885000", "094152.675000", "094150.090000", "094151.880000", "094149.295000", "094151.085000", "094149.495000", "094151.285000", "094149.692500", "094151.482500", "094149.892500", "094151.682500", "094150.290000", "094152.080000", "094150.487500", "094152.277500", "094150.687500", "094152.477500", "094150.885000", "094152.675000", "094150.090000", "094151.880000", "094149.295000", "094151.085000", "094149.495000", "094151.285000", "094149.692500", "094151.482500", "094149.892500", "094151.682500", "094150.290000", "094152.080000", "094150.487500", "094152.277500", "094150.687500", "094152.477500", "094150.885000", "094152.675000", "094150.090000", "094155.480000", "094152.895000", "094154.685000", "094153.095000", "094154.885000", "094153.292500", "094155.082500", "094153.492500", "094155.282500", "094153.890000", "094155.680000", "094154.087500", "094155.877500", "094154.287500", "094156.077500", "094154.485000", "094156.275000", "094153.690000", "094155.480000", "094152.895000", "094154.685000", "094153.095000", "094154.885000", "094153.292500", "094155.082500", "094153.492500", "094155.282500", "094153.890000", "094155.680000", "094154.087500", "094155.877500", "094154.287500", "094156.077500", "094154.485000", "094156.275000", "094153.690000", "094155.480000", "094152.895000", "094154.685000", "094153.095000", "094154.885000", "094153.292500", "094155.082500", "094153.492500", "094155.282500", "094153.890000", "094155.680000", "094154.087500", "094155.877500", "094154.287500", "094156.077500", "094154.485000", "094156.275000", "094153.690000", "094155.480000", "094152.895000", "094154.685000", "094153.095000", "094154.885000", "094153.292500", "094155.082500", "094153.492500", "094155.282500", "094153.890000", "094155.680000", "094154.087500", "094155.877500", "094154.287500", "094156.077500", "094154.485000", "094156.275000", "094153.690000", "094159.080000", "094156.495000", "094158.285000", "094156.695000", "094158.485000", "094156.892500", "094158.682500", "094157.092500", "094158.882500", "094157.490000", "094159.280000", "094157.687500", "094159.477500", "094157.887500", "094159.677500", "094158.085000", "094159.875000", "094157.290000", "094159.080000", "094156.495000", "094158.285000", "094156.695000", "094158.485000", "094156.892500", "094158.682500", "094157.092500", "094158.882500", "094157.490000", "094159.280000", "094157.687500", "094159.477500", "094157.887500", "094159.677500", "094158.085000", "094159.875000", "094157.290000", "094159.080000", "094156.495000", "094158.285000", "094156.695000", "094158.485000", "094156.892500", "094158.682500", "094157.092500", "094158.882500", "094157.490000", "094159.280000", "094157.687500", "094159.477500", "094157.887500", "094159.677500", "094158.085000", "094159.875000", "094157.290000", "094159.080000", "094156.495000", "094158.285000", "094156.695000", "094158.485000", "094156.892500", "094158.682500", "094157.092500", "094158.882500", "094157.490000", "094159.280000", "094157.687500", "094159.477500", "094157.887500", "094159.677500", "094158.085000", "094159.875000", "094157.290000", "094202.680000", "094200.095000", "094201.885000", "094200.295000", "094202.085000", "094200.492500", "094202.282500", "094200.692500", "094202.482500", "094201.090000", "094202.880000", "094201.287500", "094203.077500", "094201.487500", "094203.277500", "094201.685000", "094203.475000", "094200.890000", "094202.680000", "094200.095000", "094201.885000", "094200.295000", "094202.085000", "094200.492500", "094202.282500", "094200.692500", "094202.482500", "094201.090000", "094202.880000", "094201.287500", "094203.077500", "094201.487500", "094203.277500", "094201.685000", "094203.475000", "094200.890000", "094202.680000", "094200.095000", "094201.885000", "094200.295000", "094202.085000", "094200.492500", "094202.282500", "094200.692500", "094202.482500", "094201.090000", "094202.880000", "094201.287500", "094203.077500", "094201.487500", "094203.277500", "094201.685000", "094203.475000", "094200.890000", "094202.680000", "094200.095000", "094201.885000", "094200.295000", "094202.085000", "094200.492500", "094202.282500", "094200.692500", "094202.482500", "094201.090000", "094202.880000", "094201.287500", "094203.077500", "094201.487500", "094203.277500", "094201.685000", "094203.475000", "094200.890000", "094206.280000", "094203.695000", "094205.485000", "094203.895000", "094205.685000", "094204.092500", "094205.882500", "094204.292500", "094206.082500", "094204.690000", "094206.480000", "094204.887500", "094206.677500", "094205.087500", "094206.877500", "094205.285000", "094207.075000", "094204.490000", "094206.280000", "094203.695000", "094205.485000", "094203.895000", "094205.685000", "094204.092500", "094205.882500", "094204.292500", "094206.082500", "094204.690000", "094206.480000", "094204.887500", "094206.677500", "094205.087500", "094206.877500", "094205.285000", "094207.075000", "094204.490000", "094206.280000", "094203.695000", "094205.485000", "094203.895000", "094205.685000", "094204.092500", "094205.882500", "094204.292500", "094206.082500", "094204.690000", "094206.480000", "094204.887500", "094206.677500", "094205.087500", "094206.877500", "094205.285000", "094207.075000", "094204.490000", "094206.280000", "094203.695000", "094205.485000", "094203.895000", "094205.685000", "094204.092500", "094205.882500", "094204.292500", "094206.082500", "094204.690000", "094206.480000", "094204.887500", "094206.677500", "094205.087500", "094206.877500", "094205.285000", "094207.075000", "094204.490000", "094209.880000", "094207.295000", "094209.085000", "094207.495000", "094209.285000", "094207.692500", "094209.482500", "094207.892500", "094209.682500", "094208.290000", "094210.080000", "094208.487500", "094210.277500", "094208.687500", "094210.477500", "094208.885000", "094210.675000", "094208.090000", "094209.880000", "094207.295000", "094209.085000", "094207.495000", "094209.285000", "094207.692500", "094209.482500", "094207.892500", "094209.682500", "094208.290000", "094210.080000", "094208.487500", "094210.277500", "094208.687500", "094210.477500", "094208.885000", "094210.675000", "094208.090000", "094209.880000", "094207.295000", "094209.085000", "094207.495000", "094209.285000", "094207.692500", "094209.482500", "094207.892500", "094209.682500", "094208.290000", "094210.080000", "094208.487500", "094210.277500", "094208.687500", "094210.477500", "094208.885000", "094210.675000", "094208.090000", "094209.880000", "094207.295000", "094209.085000", "094207.495000", "094209.285000", "094207.692500", "094209.482500", "094207.892500", "094209.682500", "094208.290000", "094210.080000", "094208.487500", "094210.277500", "094208.687500", "094210.477500", "094208.885000", "094210.675000", "094208.090000", "094213.480000", "094210.895000", "094212.685000", "094211.095000", "094212.885000", "094211.292500", "094213.082500", "094211.492500", "094213.282500", "094211.890000", "094213.680000", "094212.087500", "094213.877500", "094212.287500", "094214.077500", "094212.485000", "094214.275000", "094211.690000", "094213.480000", "094210.895000", "094212.685000", "094211.095000", "094212.885000", "094211.292500", "094213.082500", "094211.492500", "094213.282500", "094211.890000", "094213.680000", "094212.087500", "094213.877500", "094212.287500", "094214.077500", "094212.485000", "094214.275000", "094211.690000", "094213.480000", "094210.895000", "094212.685000", "094211.095000", "094212.885000", "094211.292500", "094213.082500", "094211.492500", "094213.282500", "094211.890000", "094213.680000", "094212.087500", "094213.877500", "094212.287500", "094214.077500", "094212.485000", "094214.275000", "094211.690000", "094213.480000", "094210.895000", "094212.685000", "094211.095000", "094212.885000", "094211.292500", "094213.082500", "094211.492500", "094213.282500", "094211.890000", "094213.680000", "094212.087500", "094213.877500", "094212.287500", "094214.077500", "094212.485000", "094214.275000", "094211.690000", "094217.080000", "094214.495000", "094216.285000", "094214.695000", "094216.485000", "094214.892500", "094216.682500", "094215.092500", "094216.882500", "094215.490000", "094217.280000", "094215.687500", "094217.477500", "094215.887500", "094217.677500", "094216.085000", "094217.875000", "094215.290000", "094217.080000", "094214.495000", "094216.285000", "094214.695000", "094216.485000", "094214.892500", "094216.682500", "094215.092500", "094216.882500", "094215.490000", "094217.280000", "094215.687500", "094217.477500", "094215.887500", "094217.677500", "094216.085000", "094217.875000", "094215.290000", "094217.080000", "094214.495000", "094216.285000", "094214.695000", "094216.485000", "094214.892500", "094216.682500", "094215.092500", "094216.882500", "094215.490000", "094217.280000", "094215.687500", "094217.477500", "094215.887500", "094217.677500", "094216.085000", "094217.875000", "094215.290000", "094217.080000", "094214.495000", "094216.285000", "094214.695000", "094216.485000", "094214.892500", "094216.682500", "094215.092500", "094216.882500", "094215.490000", "094217.280000", "094215.687500", "094217.477500", "094215.887500", "094217.677500", "094216.085000", "094217.875000", "094215.290000", "094220.680000", "094218.095000", "094219.885000", "094218.295000", "094220.085000", "094218.492500", "094220.282500", "094218.692500", "094220.482500", "094219.090000", "094220.880000", "094219.287500", "094221.077500", "094219.487500", "094221.277500", "094219.685000", "094221.475000", "094218.890000", "094220.680000", "094218.095000", "094219.885000", "094218.295000", "094220.085000", "094218.492500", "094220.282500", "094218.692500", "094220.482500", "094219.090000", "094220.880000", "094219.287500", "094221.077500", "094219.487500", "094221.277500", "094219.685000", "094221.475000", "094218.890000", "094220.680000", "094218.095000", "094219.885000", "094218.295000", "094220.085000", "094218.492500", "094220.282500", "094218.692500", "094220.482500", "094219.090000", "094220.880000", "094219.287500", "094221.077500", "094219.487500", "094221.277500", "094219.685000", "094221.475000", "094218.890000", "094220.680000", "094218.095000", "094219.885000", "094218.295000", "094220.085000", "094218.492500", "094220.282500", "094218.692500", "094220.482500", "094219.090000", "094220.880000", "094219.287500", "094221.077500", "094219.487500", "094221.277500", "094219.685000", "094221.475000", "094218.890000", "094224.280000", "094221.695000", "094223.485000", "094221.895000", "094223.685000", "094222.092500", "094223.882500", "094222.292500", "094224.082500", "094222.690000", "094224.480000", "094222.887500", "094224.677500", "094223.087500", "094224.877500", "094223.285000", "094225.075000", "094222.490000", "094224.280000", "094221.695000", "094223.485000", "094221.895000", "094223.685000", "094222.092500", "094223.882500", "094222.292500", "094224.082500", "094222.690000", "094224.480000", "094222.887500", "094224.677500", "094223.087500", "094224.877500", "094223.285000", "094225.075000", "094222.490000", "094224.280000", "094221.695000", "094223.485000", "094221.895000", "094223.685000", "094222.092500", "094223.882500", "094222.292500", "094224.082500", "094222.690000", "094224.480000", "094222.887500", "094224.677500", "094223.087500", "094224.877500", "094223.285000", "094225.075000", "094222.490000", "094224.280000", "094221.695000", "094223.485000", "094221.895000", "094223.685000", "094222.092500", "094223.882500", "094222.292500", "094224.082500", "094222.690000", "094224.480000", "094222.887500", "094224.677500", "094223.087500", "094224.877500", "094223.285000", "094225.075000", "094222.490000", "094227.880000", "094225.295000", "094227.085000", "094225.495000", "094227.285000", "094225.692500", "094227.482500", "094225.892500", "094227.682500", "094226.290000", "094228.080000", "094226.487500", "094228.277500", "094226.687500", "094228.477500", "094226.885000", "094228.675000", "094226.090000", "094227.880000", "094225.295000", "094227.085000", "094225.495000", "094227.285000", "094225.692500", "094227.482500", "094225.892500", "094227.682500", "094226.290000", "094228.080000", "094226.487500", "094228.277500", "094226.687500", "094228.477500", "094226.885000", "094228.675000", "094226.090000", "094227.880000", "094225.295000", "094227.085000", "094225.495000", "094227.285000", "094225.692500", "094227.482500", "094225.892500", "094227.682500", "094226.290000", "094228.080000", "094226.487500", "094228.277500", "094226.687500", "094228.477500", "094226.885000", "094228.675000", "094226.090000", "094227.880000", "094225.295000", "094227.085000", "094225.495000", "094227.285000", "094225.692500", "094227.482500", "094225.892500", "094227.682500", "094226.290000", "094228.080000", "094226.487500", "094228.277500", "094226.687500", "094228.477500", "094226.885000", "094228.675000", "094226.090000", "094231.480000", "094228.895000", "094230.685000", "094229.095000", "094230.885000", "094229.292500", "094231.082500", "094229.492500", "094231.282500", "094229.890000", "094231.680000", "094230.087500", "094231.877500", "094230.287500", "094232.077500", "094230.485000", "094232.275000", "094229.690000", "094231.480000", "094228.895000", "094230.685000", "094229.095000", "094230.885000", "094229.292500", "094231.082500", "094229.492500", "094231.282500", "094229.890000", "094231.680000", "094230.087500", "094231.877500", "094230.287500", "094232.077500", "094230.485000", "094232.275000", "094229.690000", "094231.480000", "094228.895000", "094230.685000", "094229.095000", "094230.885000", "094229.292500", "094231.082500", "094229.492500", "094231.282500", "094229.890000", "094231.680000", "094230.087500", "094231.877500", "094230.287500", "094232.077500", "094230.485000", "094232.275000", "094229.690000", "094231.480000", "094228.895000", "094230.685000", "094229.095000", "094230.885000", "094229.292500", "094231.082500", "094229.492500", "094231.282500", "094229.890000", "094231.680000", "094230.087500", "094231.877500", "094230.287500", "094232.077500", "094230.485000", "094232.275000", "094229.690000", "094235.080000", "094232.495000", "094234.285000", "094232.695000", "094234.485000", "094232.892500", "094234.682500", "094233.092500", "094234.882500", "094233.490000", "094235.280000", "094233.687500", "094235.477500", "094233.887500", "094235.677500", "094234.085000", "094235.875000", "094233.290000", "094235.080000", "094232.495000", "094234.285000", "094232.695000", "094234.485000", "094232.892500", "094234.682500", "094233.092500", "094234.882500", "094233.490000", "094235.280000", "094233.687500", "094235.477500", "094233.887500", "094235.677500", "094234.085000", "094235.875000", "094233.290000", "094235.080000", "094232.495000", "094234.285000", "094232.695000", "094234.485000", "094232.892500", "094234.682500", "094233.092500", "094234.882500", "094233.490000", "094235.280000", "094233.687500", "094235.477500", "094233.887500", "094235.677500", "094234.085000", "094235.875000", "094233.290000", "094235.080000", "094232.495000", "094234.285000", "094232.695000", "094234.485000", "094232.892500", "094234.682500", "094233.092500", "094234.882500", "094233.490000", "094235.280000", "094233.687500", "094235.477500", "094233.887500", "094235.677500", "094234.085000", "094235.875000", "094233.290000", "094238.680000", "094236.095000", "094237.885000", "094236.295000", "094238.085000", "094236.492500", "094238.282500", "094236.692500", "094238.482500", "094237.090000", "094238.880000", "094237.287500", "094239.077500", "094237.487500", "094239.277500", "094237.685000", "094239.475000", "094236.890000", "094238.680000", "094236.095000", "094237.885000", "094236.295000", "094238.085000", "094236.492500", "094238.282500", "094236.692500", "094238.482500", "094237.090000", "094238.880000", "094237.287500", "094239.077500", "094237.487500", "094239.277500", "094237.685000", "094239.475000", "094236.890000", "094238.680000", "094236.095000", "094237.885000", "094236.295000", "094238.085000", "094236.492500", "094238.282500", "094236.692500", "094238.482500", "094237.090000", "094238.880000", "094237.287500", "094239.077500", "094237.487500", "094239.277500", "094237.685000", "094239.475000", "094236.890000", "094238.680000", "094236.095000", "094237.885000", "094236.295000", "094238.085000", "094236.492500", "094238.282500", "094236.692500", "094238.482500", "094237.090000", "094238.880000", "094237.287500", "094239.077500", "094237.487500", "094239.277500", "094237.685000", "094239.475000", "094236.890000", "094242.280000", "094239.695000", "094241.485000", "094239.895000", "094241.685000", "094240.092500", "094241.882500", "094240.292500", "094242.082500", "094240.690000", "094242.480000", "094240.887500", "094242.677500", "094241.087500", "094242.877500", "094241.285000", "094243.075000", "094240.490000", "094242.280000", "094239.695000", "094241.485000", "094239.895000", "094241.685000", "094240.092500", "094241.882500", "094240.292500", "094242.082500", "094240.690000", "094242.480000", "094240.887500", "094242.677500", "094241.087500", "094242.877500", "094241.285000", "094243.075000", "094240.490000", "094242.280000", "094239.695000", "094241.485000", "094239.895000", "094241.685000", "094240.092500", "094241.882500", "094240.292500", "094242.082500", "094240.690000", "094242.480000", "094240.887500", "094242.677500", "094241.087500", "094242.877500", "094241.285000", "094243.075000", "094240.490000", "094242.280000", "094239.695000", "094241.485000", "094239.895000", "094241.685000", "094240.092500", "094241.882500", "094240.292500", "094242.082500", "094240.690000", "094242.480000", "094240.887500", "094242.677500", "094241.087500", "094242.877500", "094241.285000", "094243.075000", "094240.490000", "094245.880000", "094243.295000", "094245.085000", "094243.495000", "094245.285000", "094243.692500", "094245.482500", "094243.892500", "094245.682500", "094244.290000", "094246.080000", "094244.487500", "094246.277500", "094244.687500", "094246.477500", "094244.885000", "094246.675000", "094244.090000", "094245.880000", "094243.295000", "094245.085000", "094243.495000", "094245.285000", "094243.692500", "094245.482500", "094243.892500", "094245.682500", "094244.290000", "094246.080000", "094244.487500", "094246.277500", "094244.687500", "094246.477500", "094244.885000", "094246.675000", "094244.090000", "094245.880000", "094243.295000", "094245.085000", "094243.495000", "094245.285000", "094243.692500", "094245.482500", "094243.892500", "094245.682500", "094244.290000", "094246.080000", "094244.487500", "094246.277500", "094244.687500", "094246.477500", "094244.885000", "094246.675000", "094244.090000", "094245.880000", "094243.295000", "094245.085000", "094243.495000", "094245.285000", "094243.692500", "094245.482500", "094243.892500", "094245.682500", "094244.290000", "094246.080000", "094244.487500",