{
  "AcquisitionMatrixPE": 80,
  "AcquisitionNumber": 1,
  "AcquisitionTime": "09:03:43.525000",
  "BandwidthPerPixelPhaseEncode": 25,
  "BaseResolution": 80,
  "BodyPartExamined": "BRAIN",
  "CoilCombinationMethod": "Sum of Squares",
  "ConsistencyInfo": "N4_VE11C_LATEST_20160120",
  "ConversionSoftware": "dcm2niix",
  "ConversionSoftwareVersion": "v1.0.20220720",
  "DerivedVendorReportedEchoSpacing": 0.0005,
  "DeviceSerialNumber": "66112",
  "DwellTime": 2.7e-06,
  "EchoTime": 0.03,
  "EchoTrainLength": 80,
  "EffectiveEchoSpacing": 0.0005,
  "FlipAngle": 10,
  "HeudiconvVersion": "0.13.1",
  "ImageOrientationPatientDICOM": [0.999045, -0.0434784, 0.0044055, 0.0399511, 0.949522, 0.311148],
  "ImageOrientationText": "Tra>Cor(18.1)>Sag(1.0)",
  "ImageType": [
    "ORIGINAL",
    "PRIMARY",
    "M",
    "ND",
    "NORM",
    "MOSAIC"
],
  "ImagingFrequency": 123.252,
  "InPlanePhaseEncodingDirectionDICOM": "COL",
  "InstitutionAddress": "Maynard 3,Hanover,NH,US,03755",
  "InstitutionName": "Dartmouth College - PBS",
  "InstitutionalDepartmentName": "Department",
  "MRAcquisitionType": "2D",
  "MagneticFieldStrength": 3,
  "Manufacturer": "Siemens",
  "ManufacturersModelName": "Prisma",
  "MatrixCoilMode": "SENSE",
  "Modality": "MR",
  "NonlinearGradientCorrection": false,
  "PartialFourier": 1,
  "PatientPosition": "HFS",
  "PercentPhaseFOV": 100,
  "PercentSampling": 100,
  "PhaseEncodingDirection": "j-",
  "PhaseEncodingSteps": 80,
  "PhaseResolution": 1,
  "PixelBandwidth": 2315,
  "ProcedureStepDescription": "dbic^QA",
  "ProtocolName": "func-bold_fa-10",
  "PulseSequenceDetails": "%SiemensSeq%\\ep2d_bold",
  "ReceiveCoilActiveElements": "HC1-7;NC1,2",
  "ReceiveCoilName": "HeadNeck_64",
  "ReconMatrixPE": 80,
  "RepetitionTime": 2,
  "SAR": 0.00709088,
  "ScanOptions": "FS",
  "ScanningSequence": "EP",
  "SequenceName": "*epfid2d1_80",
  "SequenceVariant": "SK",
  "SeriesDescription": "func-bold_fa-10",
  "SeriesNumber": 9,
  "ShimSetting": [4143, -7678, -7513, 218, -75, -375, -82, 108],
  "SliceThickness": 3.5,
  "SliceTiming": [0.99, 0, 1.0575, 0.0675, 1.1225, 0.1325, 1.19, 0.2, 1.255, 0.265, 1.32, 0.33, 1.3875, 0.3975, 1.4525, 0.4625, 1.52, 0.53, 1.585, 0.595, 1.65, 0.66, 1.7175, 0.7275, 1.7825, 0.7925, 1.85, 0.86, 1.915, 0.925],
  "SoftwareVersions": "syngo MR E11",
  "SpacingBetweenSlices": 3.99,
  "StationName": "AWP66112",
  "TotalReadoutTime": 0.0395,
  "TxRefAmp": 224.52,
  "dcmmeta_affine": [
    [-2.99713397026062, 0.11985331028699875, 0.07066816091537476, 112.2986831665039],
    [0.1304352730512619, 2.848564624786377, 1.2395902872085571, -125.25038146972656],
    [0.013216497376561165, -0.9334425926208496, 3.7919020652770996, -45.7403564453125],
    [0.0, 0.0, 0.0, 1.0]
],
  "dcmmeta_reorient_transform": [
    [0.0, -1.0, 0.0, 79.0],
    [1.0, 0.0, 0.0, 0.0],
    [0.0, 0.0, 1.0, 0.0],
    [0.0, 0.0, 0.0, 1.0]
],
  "dcmmeta_shape": [80, 80, 30, 200],
  "dcmmeta_slice_dim": 2,
  "dcmmeta_version": 0.6,
  "global": {
    "const": {
      "AccessionNumber": "qa64",
      "AcquisitionMatrix": [80, 0, 0, 80],
      "AngioFlag": "N",
      "BitsAllocated": 16,
      "BitsStored": 12,
      "BodyPartExamined": "BRAIN",
      "Columns": 480,
      "EchoNumbers": 1,
      "EchoTime": 30.0,
      "EchoTrainLength": 80,
      "FlipAngle": 10.0,
      "HighBit": 11,
      "ImageOrientationPatient": [0.99904465285679, -0.0434784219619, 0.00440549906036, 0.03995110450685, 0.949521523946, 0.31114752901468],
      "ImagePositionPatient": [-745.16454839401, -643.41208193627, -308.81413938151],
      "ImageType": [
        "ORIGINAL",
        "PRIMARY",
        "M",
        "ND",
        "NORM",
        "MOSAIC"
],
      "ImagedNucleus": "1H",
      "ImagingFrequency": 123.252377,
      "InPlanePhaseEncodingDirection": "COL",
      "MRAcquisitionType": "2D",
      "MagneticFieldStrength": 3.0,
      "Manufacturer": "SIEMENS",
      "ManufacturerModelName": "Prisma",
      "Modality": "MR",
      "NumberOfAverages": 1.0,
      "NumberOfPhaseEncodingSteps": 80,
      "PercentPhaseFieldOfView": 100.0,
      "PercentSampling": 100.0,
      "PerformedProcedureStepStartTime": "084603.326000",
      "PhotometricInterpretation": "MONOCHROME2",
      "PixelBandwidth": 2315.0,
      "PixelRepresentation": 0,
      "PixelSpacing": [3.0, 3.0],
      "ProtocolName": "func-bold_fa-10",
      "RepetitionTime": 2000.0,
      "Rows": 480,
      "SAR": 0.00709088003227,
      "SamplesPerPixel": 1,
      "ScanOptions": "FS",
      "ScanningSequence": "EP",
      "SequenceName": "*epfid2d1_80",
      "SequenceVariant": "SK",
      "SeriesDescription": "func-bold_fa-10",
      "SeriesNumber": 9,
      "SeriesTime": "090428.549000",
      "SliceLocation": -80.392526684251,
      "SliceThickness": 3.5,
      "SmallestImagePixelValue": 0,
      "SoftwareVersions": "syngo MR E11",
      "SpacingBetweenSlices": 3.9899998896092,
      "SpecificCharacterSet": "ISO_IR 100",
      "StudyID": "42",
      "StudyTime": "084603.242000",
      "TransmitCoilName": "Body",
      "VariableFlipAngleFlag": "N",
      "WindowCenterWidthExplanation": "Algo1",
      "dBdt": 0.0},
    "slices": {}
  },
  "time": {
    "samples": {
      "AcquisitionNumber": [1, 2, 3, 4, 5, 6, 7, 8, 9, 10, 11, 12, 13, 14, 15, 16, 17, 18, 19, 20, 21, 22, 23, 24, 25, 26, 27, 28, 29, 30, 31, 32, 33, 34, 35, 36, 37, 38, 39, 40, 41, 42, 43, 44, 45, 46, 47, 48, 49, 50, 51, 52, 53, 54, 55, 56, 57, 58, 59, 60, 61, 62, 63, 64, 65, 66, 67, 68, 69, 70, 71, 72, 73, 74, 75, 76, 77, 78, 79, 80, 81, 82, 83, 84, 85, 86, 87, 88, 89, 90, 91, 92, 93, 94, 95, 96, 97, 98, 99, 100, 101, 102, 103, 104, 105, 106, 107, 108, 109, 110, 111, 112, 113, 114, 115, 116, 117, 118, 119, 120, 121, 122, 123, 124, 125, 126, 127, 128, 129, 130, 131, 132, 133, 134, 135, 136, 137, 138, 139, 140, 141, 142, 143, 144, 145, 146, 147, 148, 149, 150, 151, 152, 153, 154, 155, 156, 157, 158, 159, 160, 161, 162, 163, 164, 165, 166, 167, 168, 169, 170, 171, 172, 173, 174, 175, 176, 177, 178, 179, 180, 181, 182, 183, 184, 185, 186, 187, 188, 189, 190, 191, 192, 193, 194, 195, 196, 197, 198, 199, 200],
      "AcquisitionTime": ["090343.525000", "090345.525000", "090347.525000", "090349.525000", "090351.525000", "090353.525000", "090355.525000", "090357.525000", "090359.525000", "090401.525000", "090403.525000", "090405.525000", "090407.525000", "090409.525000", "090411.525000", "090413.525000", "090415.525000", "090417.525000", "090419.525000", "090421.525000", "090423.525000", "090425.525000", "090427.525000", "090429.525000", "090431.525000", "090433.525000", "090435.525000", "090437.525000", "090439.525000", "090441.525000", "090443.525000", "090445.525000", "090447.525000", "090449.525000", "090451.525000", "090453.525000", "090455.525000", "090457.525000", "090459.525000", "090501.525000", "090503.525000", "090505.525000", "090507.525000", "090509.525000", "090511.525000", "090513.525000", "090515.525000", "090517.525000", "090519.525000", "090521.525000", "090523.525000", "090525.525000", "090527.525000", "090529.525000", "090531.525000", "090533.525000", "090535.525000", "090537.525000", "090539.525000", "090541.525000", "090543.525000", "090545.525000", "090547.525000", "090549.525000", "090551.525000", "090553.525000", "090555.525000", "090557.525000", "090559.525000", "090601.525000", "090603.525000", "090605.525000", "090607.525000", "090609.525000", "090611.525000", "090613.525000", "090615.525000", "090617.525000", "090619.525000", "090621.525000", "090623.525000", "090625.525000", "090627.525000", "090629.525000", "090631.525000", "090633.525000", "090635.525000", "090637.525000", "090639.525000", "090641.525000", "090643.525000", "090645.525000", "090647.525000", "090649.525000", "090651.525000", "090653.525000", "090655.525000", "090657.525000", "090659.525000", "090701.525000", "090703.525000", "090705.525000", "090707.525000", "090709.525000", "090711.525000", "090713.525000", "090715.525000", "090717.525000", "090719.525000", "090721.525000", "090723.525000", "090725.525000", "090727.525000", "090729.525000", "090731.525000", "090733.525000", "090735.525000", "090737.525000", "090739.525000", "090741.525000", "090743.525000", "090745.525000", "090747.525000", "090749.525000", "090751.525000", "090753.525000", "090755.525000", "090757.525000", "090759.525000", "090801.525000", "090803.525000", "090805.525000", "090807.525000", "090809.525000", "090811.525000", "090813.525000", "090815.525000", "090817.525000", "090819.525000", "090821.525000", "090823.525000", "090825.525000", "090827.525000", "090829.525000", "090831.525000", "090833.525000", "090835.525000", "090837.525000", "090839.525000", "090841.525000", "090843.525000", "090845.525000", "090847.525000", "090849.525000", "090851.525000", "090853.525000", "090855.525000", "090857.525000", "090859.525000", "090901.525000", "090903.525000", "090905.525000", "090907.525000", "090909.525000", "090911.525000", "090913.525000", "090915.525000", "090917.525000", "090919.525000", "090921.525000", "090923.525000", "090925.525000", "090927.525000", "090929.525000", "090931.525000", "090933.525000", "090935.525000", "090937.525000", "090939.525000", "090941.525000", "090943.525000", "090945.525000", "090947.525000", "090949.525000", "090951.525000", "090953.525000", "090955.525000", "090957.525000", "090959.525000", "091001.525000", "091003.525000", "091005.525000", "091007.525000", "091009.525000", "091011.525000", "091013.525000", "091015.525000", "091017.525000", "091019.525000", "091021.525000"],
      "ContentTime": ["090428.558000", "090428.562000", "090428.565000", "090428.567000", "090428.570000", "090428.572000", "090428.581000", "090428.584000", "090428.586000", "090428.589000", "090428.592000", "090428.594000", "090428.597000", "090428.599000", "090428.602000", "090428.605000", "090428.607000", "090428.610000", "090428.619000", "090428.622000", "090428.624000", "090428.627000", "090508.548000", "090508.550000", "090508.553000", "090508.555000", "090508.558000", "090508.561000", "090508.563000", "090508.566000", "090508.568000", "090508.571000", "090508.574000", "090508.576000", "090508.579000", "090508.581000", "090508.584000", "090508.587000", "090508.589000", "090508.592000", "090508.594000", "090508.597000", "090548.546000", "090548.549000", "090548.552000", "090548.554000", "090548.557000", "090548.560000", "090548.562000", "090548.565000", "090548.568000", "090548.570000", "090548.573000", "090548.575000", "090548.578000", "090548.580000", "090548.583000", "090548.586000", "090548.588000", "090548.591000", "090548.593000", "090548.596000", "090628.548000", "090628.551000", "090628.553000", "090628.556000", "090628.558000", "090628.561000", "090628.564000", "090628.566000", "090628.569000", "090628.579000", "090628.582000", "090628.585000", "090628.587000", "090628.590000", "090628.593000", "090628.595000", "090628.598000", "090628.601000", "090628.603000", "090628.606000", "090708.547000", "090708.550000", "090708.553000", "090708.556000", "090708.558000", "090708.561000", "090708.563000", "090708.566000", "090708.569000", "090708.571000", "090708.574000", "090708.576000", "090708.579000", "090708.582000", "090708.584000", "090708.587000", "090708.590000", "090708.592000", "090708.595000", "090708.597000", "090748.546000", "090748.549000", "090748.552000", "090748.555000", "090748.557000", "090748.560000", "090748.562000", "090748.565000", "090748.568000", "090748.570000", "090748.573000", "090748.575000", "090748.578000", "090748.581000", "090748.583000", "090748.586000", "090748.588000", "090748.591000", "090748.594000", "090748.596000", "090828.547000", "090828.549000", "090828.552000", "090828.555000", "090828.557000", "090828.560000", "090828.562000", "090828.565000", "090828.568000", "090828.570000", "090828.573000", "090828.575000", "090828.578000", "090828.581000", "090828.583000", "090828.586000", "090828.588000", "090828.591000", "090828.593000", "090828.596000", "090908.548000", "090908.550000", "090908.553000", "090908.556000", "090908.558000", "090908.561000", "090908.564000", "090908.566000", "090908.569000", "090908.571000", "090908.574000", "090908.577000", "090908.579000", "090908.582000", "090908.584000", "090908.587000", "090908.589000", "090908.592000", "090908.595000", "090908.597000", "090948.547000", "090948.550000", "090948.553000", "090948.555000", "090948.558000", "090948.561000", "090948.563000", "090948.566000", "090948.569000", "090948.571000", "090948.574000", "090948.577000", "090948.579000", "090948.582000", "090948.584000", "090948.587000", "090948.590000", "090948.592000", "090948.595000", "090948.597000", "091022.947000", "091022.950000", "091022.953000", "091022.955000", "091022.958000", "091022.961000", "091022.963000", "091022.966000", "091022.969000", "091022.971000", "091022.974000", "091022.977000", "091022.984000", "091022.987000", "091022.991000", "091022.994000", "091023.000000", "091023.004000"],
      "InstanceCreationTime": ["090428.558000", "090428.562000", "090428.565000", "090428.567000", "090428.570000", "090428.572000", "090428.581000", "090428.584000", "090428.586000", "090428.589000", "090428.592000", "090428.594000", "090428.597000", "090428.599000", "090428.602000", "090428.605000", "090428.607000", "090428.610000", "090428.619000", "090428.622000", "090428.624000", "090428.627000", "090508.548000", "090508.550000", "090508.553000", "090508.555000", "090508.558000", "090508.561000", "090508.563000", "090508.566000", "090508.568000", "090508.571000", "090508.574000", "090508.576000", "090508.579000", "090508.581000", "090508.584000", "090508.587000", "090508.589000", "090508.592000", "090508.594000", "090508.597000", "090548.546000", "090548.549000", "090548.552000", "090548.554000", "090548.557000", "090548.560000", "090548.562000", "090548.565000", "090548.568000", "090548.570000", "090548.573000", "090548.575000", "090548.578000", "090548.580000", "090548.583000", "090548.586000", "090548.588000", "090548.591000", "090548.593000", "090548.596000", "090628.548000", "090628.551000", "090628.553000", "090628.556000", "090628.558000", "090628.561000", "090628.564000", "090628.566000", "090628.569000", "090628.579000", "090628.582000", "090628.585000", "090628.587000", "090628.590000", "090628.593000", "090628.595000", "090628.598000", "090628.601000", "090628.603000", "090628.606000", "090708.547000", "090708.550000", "090708.553000", "090708.556000", "090708.558000", "090708.561000", "090708.563000", "090708.566000", "090708.569000", "090708.571000", "090708.574000", "090708.576000", "090708.579000", "090708.582000", "090708.584000", "090708.587000", "090708.590000", "090708.592000", "090708.595000", "090708.597000", "090748.546000", "090748.549000", "090748.552000", "090748.555000", "090748.557000", "090748.560000", "090748.562000", "090748.565000", "090748.568000", "090748.570000", "090748.573000", "090748.575000", "090748.578000", "090748.581000", "090748.583000", "090748.586000", "090748.588000", "090748.591000", "090748.594000", "090748.596000", "090828.547000", "090828.549000", "090828.552000", "090828.555000", "090828.557000", "090828.560000", "090828.562000", "090828.565000", "090828.568000", "090828.570000", "090828.573000", "090828.575000", "090828.578000", "090828.581000", "090828.583000", "090828.586000", "090828.588000", "090828.591000", "090828.593000", "090828.596000", "090908.548000", "090908.550000", "090908.553000", "090908.556000", "090908.558000", "090908.561000", "090908.564000", "090908.566000", "090908.569000", "090908.571000", "090908.574000", "090908.577000", "090908.579000", "090908.582000", "090908.584000", "090908.587000", "090908.589000", "090908.592000", "090908.595000", "090908.597000", "090948.547000", "090948.550000", "090948.553000", "090948.555000", "090948.558000", "090948.561000", "090948.563000", "090948.566000", "090948.569000", "090948.571000", "090948.574000", "090948.577000", "090948.579000", "090948.582000", "090948.584000", "090948.587000", "090948.590000", "090948.592000", "090948.595000", "090948.597000", "091022.947000", "091022.950000", "091022.953000", "091022.955000", "091022.958000", "091022.961000", "091022.963000", "091022.966000", "091022.969000", "091022.971000", "091022.974000", "091022.977000", "091022.984000", "091022.987000", "091022.991000", "091022.994000", "091023.000000", "091023.004000"],
      "InstanceNumber": [1, 2, 3, 4, 5, 6, 7, 8, 9, 10, 11, 12, 13, 14, 15, 16, 17, 18, 19, 20, 21, 22, 23, 24, 25, 26, 27, 28, 29, 30, 31, 32, 33, 34, 35, 36, 37, 38, 39, 40, 41, 42, 43, 44, 45, 46, 47, 48, 49, 50, 51, 52, 53, 54, 55, 56, 57, 58, 59, 60, 61, 62, 63, 64, 65, 66, 67, 68, 69, 70, 71, 72, 73, 74, 75, 76, 77, 78, 79, 80, 81, 82, 83, 84, 85, 86, 87, 88, 89, 90, 91, 92, 93, 94, 95, 96, 97, 98, 99, 100, 101, 102, 103, 104, 105, 106, 107, 108, 109, 110, 111, 112, 113, 114, 115, 116, 117, 118, 119, 120, 121, 122, 123, 124, 125, 126, 127, 128, 129, 130, 131, 132, 133, 134, 135, 136, 137, 138, 139, 140, 141, 142, 143, 144, 145, 146, 147, 148, 149, 150, 151, 152, 153, 154, 155, 156, 157, 158, 159, 160, 161, 162, 163, 164, 165, 166, 167, 168, 169, 170, 171, 172, 173, 174, 175, 176, 177, 178, 179, 180, 181, 182, 183, 184, 185, 186, 187, 188, 189, 190, 191, 192, 193, 194, 195, 196, 197, 198, 199, 200],
      "LargestImagePixelValue": [724, 724, 729, 725, 730, 725, 723, 722, 728, 727, 723, 724, 728, 729, 726, 728, 726, 723, 728, 730, 724, 726, 726, 726, 723, 723, 721, 724, 723, 726, 728, 726, 723, 727, 722, 725, 725, 727, 722, 726, 721, 727, 725, 728, 728, 724, 727, 726, 726, 724, 726, 723, 725, 727, 726, 724, 722, 726, 728, 725, 724, 727, 726, 728, 727, 726, 724, 728, 724, 725, 725, 729, 724, 724, 726, 726, 723, 725, 724, 727, 727, 722, 723, 727, 729, 727, 724, 726, 726, 725, 726, 726, 727, 725, 725, 724, 727, 726, 723, 723, 724, 730, 724, 727, 727, 721, 725, 724, 725, 724, 726, 723, 728, 725, 727, 725, 724, 724, 725, 728, 724, 725, 726, 726, 725, 725, 729, 722, 727, 722, 725, 725, 727, 724, 723, 723, 725, 724, 724, 726, 728, 721, 728, 725, 722, 727, 726, 725, 726, 724, 725, 725, 727, 726, 726, 725, 727, 728, 725, 723, 726, 726, 726, 725, 724, 729, 724, 723, 726, 720, 722, 722, 725, 722, 727, 725, 724, 726, 723, 724, 725, 723, 723, 726, 724, 726, 727, 725, 724, 725, 724, 725, 723, 724, 721, 723, 721, 724, 723, 723],
      "WindowCenter": [467.0, 467.0, 467.0, 467.0, 468.0, 467.0, 467.0, 467.0, 467.0, 467.0, 467.0, 467.0, 467.0, 467.0, 467.0, 467.0, 467.0, 467.0, 467.0, 468.0, 467.0, 467.0, 467.0, 467.0, 467.0, 467.0, 467.0, 467.0, 467.0, 467.0, 467.0, 467.0, 467.0, 467.0, 467.0, 467.0, 467.0, 467.0, 467.0, 467.0, 467.0, 467.0, 467.0, 467.0, 467.0, 467.0, 467.0, 467.0, 467.0, 467.0, 467.0, 467.0, 467.0, 467.0, 467.0, 467.0, 467.0, 467.0, 467.0, 467.0, 467.0, 467.0, 467.0, 467.0, 467.0, 467.0, 467.0, 467.0, 467.0, 467.0, 467.0, 467.0, 467.0, 467.0, 467.0, 467.0, 467.0, 467.0, 467.0, 467.0, 467.0, 467.0, 467.0, 467.0, 467.0, 467.0, 467.0, 467.0, 467.0, 467.0, 467.0, 467.0, 467.0, 467.0, 467.0, 467.0, 467.0, 467.0, 467.0, 467.0, 467.0, 468.0, 467.0, 467.0, 467.0, 467.0, 467.0, 467.0, 467.0, 467.0, 467.0, 467.0, 467.0, 467.0, 467.0, 467.0, 467.0, 467.0, 467.0, 467.0, 467.0, 467.0, 467.0, 467.0, 467.0, 467.0, 467.0, 467.0, 467.0, 467.0, 467.0, 467.0, 467.0, 467.0, 467.0, 467.0, 467.0, 467.0, 467.0, 467.0, 467.0, 467.0, 467.0, 467.0, 467.0, 467.0, 467.0, 467.0, 467.0, 467.0, 467.0, 467.0, 467.0, 467.0, 467.0, 467.0, 467.0, 467.0, 467.0, 467.0, 467.0, 467.0, 467.0, 467.0, 467.0, 467.0, 467.0, 467.0, 467.0, 467.0, 467.0, 467.0, 467.0, 467.0, 467.0, 467.0, 467.0, 467.0, 467.0, 467.0, 467.0, 467.0, 467.0, 467.0, 467.0, 467.0, 467.0, 467.0, 467.0, 467.0, 467.0, 467.0, 467.0, 467.0, 467.0, 467.0, 467.0, 467.0, 467.0, 467.0],
      "WindowWidth": [968.0, 968.0, 968.0, 968.0, 968.0, 968.0, 968.0, 968.0, 968.0, 968.0, 968.0, 968.0, 968.0, 968.0, 968.0, 968.0, 968.0, 968.0, 968.0, 968.0, 968.0, 968.0, 968.0, 968.0, 968.0, 968.0, 968.0, 968.0, 968.0, 968.0, 968.0, 968.0, 968.0, 968.0, 968.0, 968.0, 968.0, 968.0, 968.0, 968.0, 968.0, 968.0, 968.0, 968.0, 968.0, 968.0, 968.0, 968.0, 968.0, 968.0, 968.0, 968.0, 968.0, 968.0, 968.0, 968.0, 968.0, 968.0, 968.0, 967.0, 968.0, 967.0, 967.0, 967.0, 968.0, 968.0, 968.0, 967.0, 967.0, 968.0, 967.0, 967.0, 967.0, 967.0, 967.0, 967.0, 967.0, 967.0, 967.0, 967.0, 967.0, 967.0, 967.0, 967.0, 967.0, 967.0, 967.0, 967.0, 967.0, 967.0, 967.0, 967.0, 967.0, 967.0, 967.0, 967.0, 967.0, 967.0, 967.0, 967.0, 967.0, 968.0, 967.0, 967.0, 967.0, 967.0, 967.0, 967.0, 967.0, 967.0, 967.0, 967.0, 967.0, 967.0, 967.0, 967.0, 967.0, 967.0, 967.0, 967.0, 967.0, 967.0, 967.0, 967.0, 967.0, 967.0, 967.0, 966.0, 967.0, 967.0, 967.0, 966.0, 967.0, 967.0, 966.0, 966.0, 966.0, 966.0, 966.0, 966.0, 966.0, 966.0, 966.0, 966.0, 966.0, 966.0, 966.0, 966.0, 966.0, 966.0, 966.0, 966.0, 966.0, 966.0, 966.0, 966.0, 966.0, 966.0, 966.0, 966.0, 966.0, 966.0, 966.0, 966.0, 966.0, 966.0, 966.0, 966.0, 966.0, 966.0, 966.0, 966.0, 966.0, 966.0, 966.0, 966.0, 966.0, 966.0, 966.0, 966.0, 966.0, 966.0, 966.0, 966.0, 966.0, 966.0, 966.0, 966.0, 966.0, 966.0, 966.0, 966.0, 966.0, 966.0, 966.0, 966.0, 966.0, 966.0, 966.0, 966.0]
    },
    "slices": {}
  }
}