{
  "AcquisitionMatrixPE": 80,
  "AcquisitionNumber": 1,
  "AcquisitionTime": "09:56:7.457500",
  "BandwidthPerPixelPhaseEncode": 25,
  "BaseResolution": 80,
  "BodyPartExamined": "BRAIN",
  "CoilCombinationMethod": "Sum of Squares",
  "ConsistencyInfo": "N4_VE11E_LATEST_20181129",
  "ConversionSoftware": "dcm2niix",
  "ConversionSoftwareVersion": "v1.0.20220720",
  "DerivedVendorReportedEchoSpacing": 0.0005,
  "DeviceSerialNumber": "66112",
  "DwellTime": 2.7e-06,
  "EchoTime": 0.03,
  "EchoTrainLength": 80,
  "EffectiveEchoSpacing": 0.0005,
  "FlipAngle": 10,
  "HeudiconvVersion": "0.13.1",
  "ImageOrientationPatientDICOM": [0.989031, -0.147711, -4.59122e-06, 0.14076, 0.942481, 0.303176],
  "ImageOrientationText": "Tra>Cor(17.5)>Sag(2.6)",
  "ImageType": [
    "ORIGINAL",
    "PRIMARY",
    "M",
    "ND",
    "NORM",
    "MOSAIC"
],
  "ImagingFrequency": 123.259,
  "InPlanePhaseEncodingDirectionDICOM": "COL",
  "InstitutionAddress": "Maynard 3,Hanover,NH,US,03755",
  "InstitutionName": "Dartmouth College - PBS",
  "InstitutionalDepartmentName": "Department",
  "MRAcquisitionType": "2D",
  "MagneticFieldStrength": 3,
  "Manufacturer": "Siemens",
  "ManufacturersModelName": "Prisma",
  "MatrixCoilMode": "SENSE",
  "Modality": "MR",
  "NonlinearGradientCorrection": false,
  "PartialFourier": 1,
  "PatientPosition": "HFS",
  "PercentPhaseFOV": 100,
  "PercentSampling": 100,
  "PhaseEncodingDirection": "j-",
  "PhaseEncodingSteps": 80,
  "PhaseResolution": 1,
  "PixelBandwidth": 2315,
  "ProcedureStepDescription": "dbic^QA",
  "ProtocolName": "func-bold_fa-10",
  "PulseSequenceDetails": "%SiemensSeq%\\ep2d_bold",
  "ReceiveCoilActiveElements": "HEA;HEP",
  "ReceiveCoilName": "Head_32",
  "ReconMatrixPE": 80,
  "RepetitionTime": 2,
  "SAR": 0.0114607,
  "ScanOptions": "FS",
  "ScanningSequence": "EP",
  "SequenceName": "*epfid2d1_80",
  "SequenceVariant": "SK",
  "SeriesDescription": "func-bold_fa-10",
  "SeriesNumber": 10,
  "ShimSetting": [4235, -7738, -7489, -30, -114, -7, 25, 115],
  "SliceThickness": 3.5,
  "SliceTiming": [0.99, 0, 1.0575, 0.0675, 1.1225, 0.1325, 1.19, 0.2, 1.255, 0.265, 1.32, 0.33, 1.3875, 0.3975, 1.4525, 0.4625, 1.52, 0.53, 1.585, 0.595, 1.65, 0.66, 1.7175, 0.7275, 1.7825, 0.7925, 1.85, 0.86, 1.915, 0.925],
  "SoftwareVersions": "syngo MR E11",
  "SpacingBetweenSlices": 3.99,
  "StationName": "AWP66112",
  "TotalReadoutTime": 0.0395,
  "TxRefAmp": 227.295,
  "dcmmeta_affine": [
    [-2.9670917987823486, 0.42227956652641296, 0.17866376042366028, 98.2503662109375],
    [0.44313153624534607, 2.827444314956665, 1.1964036226272583, -141.9630126953125],
    [-1.3773673344985582e-05, -0.9095265865325928, 3.8022096157073975, -6.368556499481201],
    [0.0, 0.0, 0.0, 1.0]
],
  "dcmmeta_reorient_transform": [
    [0.0, -1.0, 0.0, 79.0],
    [1.0, 0.0, 0.0, 0.0],
    [0.0, 0.0, 1.0, 0.0],
    [0.0, 0.0, 0.0, 1.0]
],
  "dcmmeta_shape": [80, 80, 30, 200],
  "dcmmeta_slice_dim": 2,
  "dcmmeta_version": 0.6,
  "global": {
    "const": {
      "AccessionNumber": "qa",
      "AcquisitionMatrix": [80, 0, 0, 80],
      "AngioFlag": "N",
      "BitsAllocated": 16,
      "BitsStored": 12,
      "BodyPartExamined": "BRAIN",
      "Columns": 480,
      "EchoNumbers": 1,
      "EchoTime": 30.0,
      "EchoTrainLength": 80,
      "FlipAngle": 10.0,
      "HighBit": 11,
      "ImageOrientationPatient": [0.98903063850903, -0.147710514417, -4.59122434e-06, 0.14075985558913, 0.94248143710234, 0.30317553293768],
      "ImagePositionPatient": [-809.48474997561, -558.26764852381, -260.12372287003],
      "ImageType": [
        "ORIGINAL",
        "PRIMARY",
        "M",
        "ND",
        "NORM",
        "MOSAIC"
],
      "ImagedNucleus": "1H",
      "ImagingFrequency": 123.259246,
      "InPlanePhaseEncodingDirection": "COL",
      "MRAcquisitionType": "2D",
      "MagneticFieldStrength": 3.0,
      "Manufacturer": "SIEMENS",
      "ManufacturerModelName": "Prisma",
      "Modality": "MR",
      "NumberOfAverages": 1.0,
      "NumberOfPhaseEncodingSteps": 80,
      "PercentPhaseFieldOfView": 100.0,
      "PercentSampling": 100.0,
      "PerformedProcedureStepStartTime": "093351.689000",
      "PhotometricInterpretation": "MONOCHROME2",
      "PixelBandwidth": 2315.0,
      "PixelRepresentation": 0,
      "PixelSpacing": [3.0, 3.0],
      "ProtocolName": "func-bold_fa-10",
      "RepetitionTime": 2000.0,
      "Rows": 480,
      "SAR": 0.01146074278143,
      "SamplesPerPixel": 1,
      "ScanOptions": "FS",
      "ScanningSequence": "EP",
      "SequenceName": "*epfid2d1_80",
      "SequenceVariant": "SK",
      "SeriesDescription": "func-bold_fa-10",
      "SeriesNumber": 10,
      "SeriesTime": "095653.809000",
      "SliceLocation": -44.237058361377,
      "SliceThickness": 3.5,
      "SmallestImagePixelValue": 0,
      "SoftwareVersions": "syngo MR E11",
      "SpacingBetweenSlices": 3.9899999693363,
      "SpecificCharacterSet": "ISO_IR 100",
      "StudyID": "19",
      "StudyTime": "093351.607000",
      "TransmitCoilName": "Body",
      "VariableFlipAngleFlag": "N",
      "WindowCenterWidthExplanation": "Algo1"
    },
    "slices": {}
  },
  "time": {
    "samples": {
      "AcquisitionNumber": [1, 2, 3, 4, 5, 6, 7, 8, 9, 10, 11, 12, 13, 14, 15, 16, 17, 18, 19, 20, 21, 22, 23, 24, 25, 26, 27, 28, 29, 30, 31, 32, 33, 34, 35, 36, 37, 38, 39, 40, 41, 42, 43, 44, 45, 46, 47, 48, 49, 50, 51, 52, 53, 54, 55, 56, 57, 58, 59, 60, 61, 62, 63, 64, 65, 66, 67, 68, 69, 70, 71, 72, 73, 74, 75, 76, 77, 78, 79, 80, 81, 82, 83, 84, 85, 86, 87, 88, 89, 90, 91, 92, 93, 94, 95, 96, 97, 98, 99, 100, 101, 102, 103, 104, 105, 106, 107, 108, 109, 110, 111, 112, 113, 114, 115, 116, 117, 118, 119, 120, 121, 122, 123, 124, 125, 126, 127, 128, 129, 130, 131, 132, 133, 134, 135, 136, 137, 138, 139, 140, 141, 142, 143, 144, 145, 146, 147, 148, 149, 150, 151, 152, 153, 154, 155, 156, 157, 158, 159, 160, 161, 162, 163, 164, 165, 166, 167, 168, 169, 170, 171, 172, 173, 174, 175, 176, 177, 178, 179, 180, 181, 182, 183, 184, 185, 186, 187, 188, 189, 190, 191, 192, 193, 194, 195, 196, 197, 198, 199, 200],
      "AcquisitionTime": ["095607.457500", "095609.457500", "095611.457500", "095613.457500", "095615.457500", "095617.457500", "095619.457500", "095621.457500", "095623.457500", "095625.457500", "095627.457500", "095629.457500", "095631.457500", "095633.457500", "095635.457500", "095637.457500", "095639.457500", "095641.457500", "095643.457500", "095645.457500", "095647.457500", "095649.457500", "095651.457500", "095653.457500", "095655.457500", "095657.457500", "095659.457500", "095701.457500", "095703.457500", "095705.457500", "095707.457500", "095709.457500", "095711.457500", "095713.457500", "095715.457500", "095717.457500", "095719.457500", "095721.457500", "095723.457500", "095725.457500", "095727.457500", "095729.457500", "095731.457500", "095733.457500", "095735.457500", "095737.457500", "095739.457500", "095741.457500", "095743.457500", "095745.457500", "095747.457500", "095749.457500", "095751.457500", "095753.457500", "095755.457500", "095757.457500", "095759.457500", "095801.457500", "095803.457500", "095805.457500", "095807.457500", "095809.457500", "095811.457500", "095813.457500", "095815.457500", "095817.457500", "095819.457500", "095821.457500", "095823.457500", "095825.457500", "095827.457500", "095829.457500", "095831.457500", "095833.457500", "095835.457500", "095837.457500", "095839.457500", "095841.457500", "095843.457500", "095845.457500", "095847.457500", "095849.457500", "095851.457500", "095853.457500", "095855.457500", "095857.457500", "095859.457500", "095901.457500", "095903.457500", "095905.457500", "095907.457500", "095909.457500", "095911.457500", "095913.457500", "095915.457500", "095917.457500", "095919.457500", "095921.457500", "095923.457500", "095925.457500", "095927.457500", "095929.457500", "095931.457500", "095933.457500", "095935.457500", "095937.457500", "095939.457500", "095941.457500", "095943.457500", "095945.457500", "095947.457500", "095949.457500", "095951.457500", "095953.457500", "095955.457500", "095957.457500", "095959.457500", "100001.457500", "100003.457500", "100005.457500", "100007.457500", "100009.457500", "100011.457500", "100013.457500", "100015.457500", "100017.457500", "100019.457500", "100021.457500", "100023.457500", "100025.457500", "100027.457500", "100029.457500", "100031.457500", "100033.457500", "100035.457500", "100037.457500", "100039.457500", "100041.457500", "100043.457500", "100045.457500", "100047.457500", "100049.457500", "100051.457500", "100053.457500", "100055.457500", "100057.457500", "100059.457500", "100101.457500", "100103.457500", "100105.457500", "100107.457500", "100109.457500", "100111.457500", "100113.457500", "100115.457500", "100117.457500", "100119.457500", "100121.457500", "100123.457500", "100125.457500", "100127.457500", "100129.457500", "100131.457500", "100133.457500", "100135.457500", "100137.457500", "100139.457500", "100141.457500", "100143.457500", "100145.457500", "100147.457500", "100149.457500", "100151.457500", "100153.457500", "100155.457500", "100157.457500", "100159.457500", "100201.457500", "100203.457500", "100205.457500", "100207.457500", "100209.457500", "100211.457500", "100213.457500", "100215.457500", "100217.457500", "100219.457500", "100221.457500", "100223.457500", "100225.457500", "100227.457500", "100229.457500", "100231.457500", "100233.457500", "100235.457500", "100237.457500", "100239.457500", "100241.457500", "100243.457500", "100245.457500"],
      "ContentTime": ["095653.812000", "095653.816000", "095653.828000", "095653.830000", "095653.833000", "095653.835000", "095653.838000", "095653.840000", "095653.842000", "095653.845000", "095653.847000", "095653.849000", "095653.851000", "095653.854000", "095653.856000", "095653.858000", "095653.861000", "095653.863000", "095653.865000", "095653.867000", "095653.870000", "095653.872000", "095653.874000", "095733.795000", "095733.798000", "095733.800000", "095733.802000", "095733.805000", "095733.807000", "095733.810000", "095733.812000", "095733.814000", "095733.816000", "095733.819000", "095733.821000", "095733.823000", "095733.825000", "095733.828000", "095733.830000", "095733.832000", "095733.834000", "095733.837000", "095733.839000", "095813.795000", "095813.798000", "095813.807000", "095813.809000", "095813.812000", "095813.814000", "095813.816000", "095813.819000", "095813.821000", "095813.823000", "095813.826000", "095813.828000", "095813.830000", "095813.832000", "095813.835000", "095813.837000", "095813.839000", "095813.842000", "095813.844000", "095813.846000", "095853.796000", "095853.798000", "095853.910000", "095853.913000", "095853.915000", "095853.917000", "095853.920000", "095853.922000", "095853.924000", "095853.926000", "095853.929000", "095853.931000", "095853.933000", "095853.935000", "095853.938000", "095853.940000", "095853.942000", "095853.945000", "095853.947000", "095853.949000", "095933.796000", "095933.799000", "095933.801000", "095933.803000", "095933.806000", "095933.808000", "095933.810000", "095933.813000", "095933.815000", "095933.817000", "095933.820000", "095933.822000", "095933.824000", "095933.826000", "095933.829000", "095933.831000", "095933.833000", "095933.836000", "095933.838000", "095933.840000", "100013.795000", "100013.798000", "100013.800000", "100013.803000", "100013.805000", "100013.807000", "100013.809000", "100013.812000", "100013.814000", "100013.816000", "100013.819000", "100013.821000", "100013.823000", "100013.825000", "100013.828000", "100013.830000", "100013.832000", "100013.835000", "100013.837000", "100013.839000", "100053.795000", "100053.798000", "100053.800000", "100053.803000", "100053.805000", "100053.807000", "100053.809000", "100053.812000", "100053.814000", "100053.816000", "100053.819000", "100053.821000", "100053.823000", "100053.826000", "100053.828000", "100053.830000", "100053.832000", "100053.835000", "100053.837000", "100053.839000", "100133.796000", "100133.799000", "100133.801000", "100133.804000", "100133.806000", "100133.808000", "100133.811000", "100133.813000", "100133.815000", "100133.818000", "100133.820000", "100133.822000", "100133.825000", "100133.827000", "100133.829000", "100133.831000", "100133.834000", "100133.836000", "100133.838000", "100133.841000", "100213.795000", "100213.798000", "100213.800000", "100213.803000", "100213.805000", "100213.807000", "100213.826000", "100213.829000", "100213.831000", "100213.833000", "100213.836000", "100213.838000", "100213.840000", "100213.842000", "100213.845000", "100213.847000", "100213.849000", "100213.851000", "100213.854000", "100213.856000", "100247.003000", "100247.006000", "100247.009000", "100247.011000", "100247.013000", "100247.016000", "100247.018000", "100247.020000", "100247.022000", "100247.025000", "100247.027000", "100247.030000", "100247.032000", "100247.035000", "100247.044000", "100247.047000", "100247.052000"],
      "InstanceCreationTime": ["095653.812000", "095653.816000", "095653.828000", "095653.830000", "095653.833000", "095653.835000", "095653.838000", "095653.840000", "095653.842000", "095653.845000", "095653.847000", "095653.849000", "095653.851000", "095653.854000", "095653.856000", "095653.858000", "095653.861000", "095653.863000", "095653.865000", "095653.867000", "095653.870000", "095653.872000", "095653.874000", "095733.795000", "095733.798000", "095733.800000", "095733.802000", "095733.805000", "095733.807000", "095733.810000", "095733.812000", "095733.814000", "095733.816000", "095733.819000", "095733.821000", "095733.823000", "095733.825000", "095733.828000", "095733.830000", "095733.832000", "095733.834000", "095733.837000", "095733.839000", "095813.795000", "095813.798000", "095813.807000", "095813.809000", "095813.812000", "095813.814000", "095813.816000", "095813.819000", "095813.821000", "095813.823000", "095813.826000", "095813.828000", "095813.830000", "095813.832000", "095813.835000", "095813.837000", "095813.839000", "095813.842000", "095813.844000", "095813.846000", "095853.796000", "095853.798000", "095853.910000", "095853.913000", "095853.915000", "095853.917000", "095853.920000", "095853.922000", "095853.924000", "095853.926000", "095853.929000", "095853.931000", "095853.933000", "095853.935000", "095853.938000", "095853.940000", "095853.942000", "095853.945000", "095853.947000", "095853.949000", "095933.796000", "095933.799000", "095933.801000", "095933.803000", "095933.806000", "095933.808000", "095933.810000", "095933.813000", "095933.815000", "095933.817000", "095933.820000", "095933.822000", "095933.824000", "095933.826000", "095933.829000", "095933.831000", "095933.833000", "095933.836000", "095933.838000", "095933.840000", "100013.795000", "100013.798000", "100013.800000", "100013.803000", "100013.805000", "100013.807000", "100013.809000", "100013.812000", "100013.814000", "100013.816000", "100013.819000", "100013.821000", "100013.823000", "100013.825000", "100013.828000", "100013.830000", "100013.832000", "100013.835000", "100013.837000", "100013.839000", "100053.795000", "100053.798000", "100053.800000", "100053.803000", "100053.805000", "100053.807000", "100053.809000", "100053.812000", "100053.814000", "100053.816000", "100053.819000", "100053.821000", "100053.823000", "100053.826000", "100053.828000", "100053.830000", "100053.832000", "100053.835000", "100053.837000", "100053.839000", "100133.796000", "100133.799000", "100133.801000", "100133.804000", "100133.806000", "100133.808000", "100133.811000", "100133.813000", "100133.815000", "100133.818000", "100133.820000", "100133.822000", "100133.825000", "100133.827000", "100133.829000", "100133.831000", "100133.834000", "100133.836000", "100133.838000", "100133.841000", "100213.795000", "100213.798000", "100213.800000", "100213.803000", "100213.805000", "100213.807000", "100213.826000", "100213.829000", "100213.831000", "100213.833000", "100213.836000", "100213.838000", "100213.840000", "100213.842000", "100213.845000", "100213.847000", "100213.849000", "100213.851000", "100213.854000", "100213.856000", "100247.003000", "100247.006000", "100247.009000", "100247.011000", "100247.013000", "100247.016000", "100247.018000", "100247.020000", "100247.022000", "100247.025000", "100247.027000", "100247.030000", "100247.032000", "100247.035000", "100247.044000", "100247.047000", "100247.052000"],
      "InstanceNumber": [1, 2, 3, 4, 5, 6, 7, 8, 9, 10, 11, 12, 13, 14, 15, 16, 17, 18, 19, 20, 21, 22, 23, 24, 25, 26, 27, 28, 29, 30, 31, 32, 33, 34, 35, 36, 37, 38, 39, 40, 41, 42, 43, 44, 45, 46, 47, 48, 49, 50, 51, 52, 53, 54, 55, 56, 57, 58, 59, 60, 61, 62, 63, 64, 65, 66, 67, 68, 69, 70, 71, 72, 73, 74, 75, 76, 77, 78, 79, 80, 81, 82, 83, 84, 85, 86, 87, 88, 89, 90, 91, 92, 93, 94, 95, 96, 97, 98, 99, 100, 101, 102, 103, 104, 105, 106, 107, 108, 109, 110, 111, 112, 113, 114, 115, 116, 117, 118, 119, 120, 121, 122, 123, 124, 125, 126, 127, 128, 129, 130, 131, 132, 133, 134, 135, 136, 137, 138, 139, 140, 141, 142, 143, 144, 145, 146, 147, 148, 149, 150, 151, 152, 153, 154, 155, 156, 157, 158, 159, 160, 161, 162, 163, 164, 165, 166, 167, 168, 169, 170, 171, 172, 173, 174, 175, 176, 177, 178, 179, 180, 181, 182, 183, 184, 185, 186, 187, 188, 189, 190, 191, 192, 193, 194, 195, 196, 197, 198, 199, 200],
      "LargestImagePixelValue": [380, 377, 375, 380, 381, 378, 379, 377, 379, 380, 375, 381, 377, 380, 383, 379, 378, 380, 376, 380, 377, 376, 381, 377, 377, 376, 378, 379, 381, 378, 383, 381, 378, 382, 382, 380, 378, 379, 379, 380, 378, 376, 382, 376, 379, 377, 380, 380, 380, 377, 382, 378, 379, 379, 382, 378, 379, 381, 378, 377, 380, 380, 381, 381, 379, 382, 378, 379, 377, 382, 381, 378, 381, 380, 380, 382, 383, 380, 380, 382, 379, 382, 380, 381, 379, 376, 381, 380, 377, 377, 378, 382, 380, 379, 381, 382, 382, 379, 380, 377, 381, 383, 381, 378, 377, 376, 377, 384, 376, 384, 381, 378, 381, 377, 376, 383, 376, 378, 381, 378, 381, 377, 377, 380, 376, 380, 383, 376, 380, 383, 378, 380, 378, 377, 378, 379, 378, 377, 384, 376, 378, 378, 378, 377, 377, 380, 383, 379, 378, 380, 378, 379, 385, 379, 376, 380, 378, 382, 377, 386, 379, 378, 378, 378, 377, 378, 380, 376, 381, 381, 380, 378, 377, 376, 378, 378, 380, 377, 378, 380, 378, 379, 383, 378, 379, 378, 381, 377, 380, 376, 381, 378, 380, 381, 378, 379, 377, 376, 378, 379],
      "WindowCenter": [310.0, 309.0, 309.0, 310.0, 309.0, 310.0, 310.0, 310.0, 309.0, 310.0, 310.0, 309.0, 309.0, 310.0, 310.0, 309.0, 309.0, 309.0, 309.0, 310.0, 310.0, 309.0, 309.0, 309.0, 310.0, 310.0, 309.0, 309.0, 309.0, 309.0, 310.0, 310.0, 309.0, 309.0, 309.0, 309.0, 310.0, 310.0, 310.0, 309.0, 309.0, 309.0, 309.0, 309.0, 310.0, 310.0, 310.0, 310.0, 310.0, 310.0, 310.0, 310.0, 310.0, 310.0, 310.0, 310.0, 310.0, 310.0, 310.0, 310.0, 310.0, 310.0, 310.0, 310.0, 310.0, 310.0, 310.0, 310.0, 310.0, 310.0, 310.0, 310.0, 310.0, 310.0, 310.0, 310.0, 310.0, 310.0, 310.0, 310.0, 310.0, 310.0, 310.0, 310.0, 310.0, 310.0, 310.0, 310.0, 310.0, 310.0, 310.0, 310.0, 310.0, 310.0, 310.0, 310.0, 310.0, 310.0, 310.0, 310.0, 310.0, 310.0, 310.0, 310.0, 310.0, 310.0, 310.0, 310.0, 310.0, 310.0, 310.0, 310.0, 310.0, 310.0, 310.0, 310.0, 310.0, 310.0, 310.0, 310.0, 310.0, 310.0, 310.0, 310.0, 310.0, 310.0, 310.0, 310.0, 309.0, 310.0, 310.0, 310.0, 310.0, 310.0, 310.0, 310.0, 310.0, 310.0, 310.0, 310.0, 310.0, 310.0, 310.0, 310.0, 310.0, 310.0, 310.0, 310.0, 310.0, 310.0, 310.0, 310.0, 309.0, 310.0, 310.0, 310.0, 310.0, 310.0, 310.0, 309.0, 310.0, 310.0, 310.0, 310.0, 310.0, 310.0, 310.0, 310.0, 310.0, 310.0, 310.0, 310.0, 310.0, 310.0, 310.0, 310.0, 310.0, 310.0, 310.0, 310.0, 310.0, 310.0, 310.0, 310.0, 310.0, 310.0, 310.0, 309.0, 310.0, 310.0, 310.0, 310.0, 310.0, 310.0, 310.0, 310.0, 309.0, 310.0, 310.0, 310.0],
      "WindowWidth": [669.0, 668.0, 668.0, 669.0, 667.0, 669.0, 668.0, 669.0, 668.0, 668.0, 669.0, 668.0, 667.0, 669.0, 669.0, 668.0, 668.0, 667.0, 667.0, 669.0, 669.0, 668.0, 668.0, 667.0, 669.0, 669.0, 668.0, 668.0, 668.0, 668.0, 669.0, 668.0, 668.0, 668.0, 668.0, 668.0, 669.0, 669.0, 669.0, 668.0, 667.0, 668.0, 668.0, 668.0, 669.0, 668.0, 669.0, 669.0, 669.0, 669.0, 669.0, 669.0, 669.0, 669.0, 669.0, 669.0, 669.0, 669.0, 669.0, 669.0, 669.0, 669.0, 670.0, 669.0, 669.0, 669.0, 669.0, 669.0, 669.0, 669.0, 669.0, 669.0, 670.0, 669.0, 669.0, 669.0, 669.0, 669.0, 669.0, 669.0, 669.0, 670.0, 669.0, 669.0, 669.0, 669.0, 669.0, 669.0, 669.0, 669.0, 669.0, 669.0, 669.0, 669.0, 669.0, 669.0, 669.0, 670.0, 669.0, 669.0, 669.0, 669.0, 669.0, 669.0, 669.0, 669.0, 669.0, 669.0, 669.0, 669.0, 669.0, 669.0, 669.0, 669.0, 669.0, 669.0, 669.0, 669.0, 669.0, 669.0, 669.0, 669.0, 669.0, 669.0, 669.0, 669.0, 669.0, 669.0, 668.0, 669.0, 669.0, 669.0, 669.0, 669.0, 669.0, 669.0, 669.0, 669.0, 669.0, 669.0, 669.0, 669.0, 669.0, 669.0, 669.0, 669.0, 669.0, 669.0, 669.0, 669.0, 669.0, 669.0, 668.0, 669.0, 669.0, 669.0, 669.0, 669.0, 669.0, 668.0, 669.0, 669.0, 669.0, 669.0, 669.0, 669.0, 669.0, 669.0, 669.0, 669.0, 669.0, 669.0, 668.0, 669.0, 669.0, 669.0, 668.0, 669.0, 669.0, 669.0, 669.0, 669.0, 669.0, 669.0, 669.0, 669.0, 669.0, 668.0, 669.0, 668.0, 669.0, 668.0, 669.0, 669.0, 669.0, 668.0, 668.0, 669.0, 669.0, 668.0]
    },
    "slices": {}
  }
}