{
  "AcquisitionMatrixPE": 80,
  "AcquisitionNumber": 1,
  "AcquisitionTime": "09:35:37.772500",
  "BandwidthPerPixelPhaseEncode": 48.077,
  "BaseResolution": 80,
  "BodyPartExamined": "BRAIN",
  "CoilCombinationMethod": "Sum of Squares",
  "ConsistencyInfo": "N4_VE11E_LATEST_20181129",
  "ConversionSoftware": "dcm2niix",
  "ConversionSoftwareVersion": "v1.0.20220720",
  "DerivedVendorReportedEchoSpacing": 0.000519999,
  "DeviceSerialNumber": "66112",
  "DwellTime": 2.7e-06,
  "EchoTime": 0.035,
  "EchoTrainLength": 39,
  "EffectiveEchoSpacing": 0.00026,
  "FlipAngle": 90,
  "HeudiconvVersion": "0.13.1",
  "ImageOrientationPatientDICOM": [0.989031, -0.147711, -4.59122e-06, 0.14076, 0.942481, 0.303176],
  "ImageOrientationText": "Tra>Cor(17.5)>Sag(2.6)",
  "ImageType": [
    "ORIGINAL",
    "PRIMARY",
    "M",
    "ND",
    "NORM",
    "MOSAIC"
],
  "ImagingFrequency": 123.259,
  "InPlanePhaseEncodingDirectionDICOM": "COL",
  "InstitutionAddress": "Maynard 3,Hanover,NH,US,03755",
  "InstitutionName": "Dartmouth College - PBS",
  "InstitutionalDepartmentName": "Department",
  "MRAcquisitionType": "2D",
  "MagneticFieldStrength": 3,
  "Manufacturer": "Siemens",
  "ManufacturersModelName": "Prisma",
  "MatrixCoilMode": "GRAPPA",
  "Modality": "MR",
  "NonlinearGradientCorrection": false,
  "ParallelReductionFactorInPlane": 2,
  "PartialFourier": 1,
  "PatientPosition": "HFS",
  "PercentPhaseFOV": 100,
  "PercentSampling": 100,
  "PhaseEncodingDirection": "j-",
  "PhaseEncodingSteps": 79,
  "PhaseResolution": 1,
  "PixelBandwidth": 2315,
  "ProcedureStepDescription": "dbic^QA",
  "ProtocolName": "func-bold_task-rest_acq-p2",
  "PulseSequenceDetails": "%SiemensSeq%\\ep2d_bold",
  "ReceiveCoilActiveElements": "HEA;HEP",
  "ReceiveCoilName": "Head_32",
  "ReconMatrixPE": 80,
  "RefLinesPE": 24,
  "RepetitionTime": 2,
  "SAR": 0.0543669,
  "ScanOptions": "FS",
  "ScanningSequence": "EP",
  "SequenceName": "*epfid2d1_80",
  "SequenceVariant": "SK",
  "SeriesDescription": "func-bold_task-rest_acq-p2",
  "SeriesNumber": 5,
  "ShimSetting": [4235, -7737, -7489, -34, -121, -6, 21, 116],
  "SliceThickness": 3.5,
  "SliceTiming": [0.99, 0, 1.0575, 0.0675, 1.1225, 0.1325, 1.1875, 0.2, 1.255, 0.265, 1.32, 0.33, 1.3875, 0.3975, 1.4525, 0.4625, 1.5175, 0.53, 1.585, 0.595, 1.65, 0.66, 1.7175, 0.7275, 1.7825, 0.7925, 1.8475, 0.86, 1.915, 0.925],
  "SoftwareVersions": "syngo MR E11",
  "SpacingBetweenSlices": 3.99,
  "StationName": "AWP66112",
  "TaskName": "rest",
  "TotalReadoutTime": 0.02054,
  "TxRefAmp": 227.295,
  "dcmmeta_affine": [
    [-2.9670917987823486, 0.42227956652641296, 0.17866377532482147, 98.16865539550781],
    [0.44313153624534607, 2.827444314956665, 1.1964036226272583, -142.5104217529297],
    [-1.3773673344985582e-05, -0.9095265865325928, 3.8022096157073975, -10.229377746582031],
    [0.0, 0.0, 0.0, 1.0]
],
  "dcmmeta_reorient_transform": [
    [0.0, -1.0, 0.0, 79.0],
    [1.0, 0.0, 0.0, 0.0],
    [0.0, 0.0, 1.0, 0.0],
    [0.0, 0.0, 0.0, 1.0]
],
  "dcmmeta_shape": [80, 80, 30, 200],
  "dcmmeta_slice_dim": 2,
  "dcmmeta_version": 0.6,
  "global": {
    "const": {
      "AccessionNumber": "qa",
      "AcquisitionMatrix": [80, 0, 0, 80],
      "AngioFlag": "N",
      "BitsAllocated": 16,
      "BitsStored": 12,
      "BodyPartExamined": "BRAIN",
      "Columns": 480,
      "EchoNumbers": 1,
      "EchoTime": 35.0,
      "EchoTrainLength": 39,
      "FlipAngle": 90.0,
      "HighBit": 11,
      "ImageOrientationPatient": [0.98903063850903, -0.147710514417, -4.59122434e-06, 0.14075985558913, 0.94248143710234, 0.30317553293768],
      "ImagePositionPatient": [-809.40303701441, -557.72022992945, -263.98454364029],
      "ImageType": [
        "ORIGINAL",
        "PRIMARY",
        "M",
        "ND",
        "NORM",
        "MOSAIC"
],
      "ImagedNucleus": "1H",
      "ImagingFrequency": 123.259243,
      "InPlanePhaseEncodingDirection": "COL",
      "MRAcquisitionType": "2D",
      "MagneticFieldStrength": 3.0,
      "Manufacturer": "SIEMENS",
      "ManufacturerModelName": "Prisma",
      "Modality": "MR",
      "NumberOfAverages": 1.0,
      "NumberOfPhaseEncodingSteps": 79,
      "PercentPhaseFieldOfView": 100.0,
      "PercentSampling": 100.0,
      "PerformedProcedureStepStartTime": "093351.689000",
      "PhotometricInterpretation": "MONOCHROME2",
      "PixelBandwidth": 2315.0,
      "PixelRepresentation": 0,
      "PixelSpacing": [3.0, 3.0],
      "ProtocolName": "func-bold_task-rest_acq-p2",
      "RepetitionTime": 2000.0,
      "Rows": 480,
      "SAR": 0.05436693607229,
      "SamplesPerPixel": 1,
      "ScanOptions": "FS",
      "ScanningSequence": "EP",
      "SequenceName": "*epfid2d1_80",
      "SequenceVariant": "SK",
      "SeriesDescription": "func-bold_task-rest_acq-p2",
      "SeriesNumber": 5,
      "SeriesTime": "093633.797000",
      "SliceLocation": -48.08397124602,
      "SliceThickness": 3.5,
      "SmallestImagePixelValue": 0,
      "SoftwareVersions": "syngo MR E11",
      "SpacingBetweenSlices": 3.9900000945025,
      "SpecificCharacterSet": "ISO_IR 100",
      "StudyID": "19",
      "StudyTime": "093351.607000",
      "TransmitCoilName": "Body",
      "VariableFlipAngleFlag": "N",
      "WindowCenterWidthExplanation": "Algo1"
    },
    "slices": {}
  },
  "time": {
    "samples": {
      "AcquisitionNumber": [1, 2, 3, 4, 5, 6, 7, 8, 9, 10, 11, 12, 13, 14, 15, 16, 17, 18, 19, 20, 21, 22, 23, 24, 25, 26, 27, 28, 29, 30, 31, 32, 33, 34, 35, 36, 37, 38, 39, 40, 41, 42, 43, 44, 45, 46, 47, 48, 49, 50, 51, 52, 53, 54, 55, 56, 57, 58, 59, 60, 61, 62, 63, 64, 65, 66, 67, 68, 69, 70, 71, 72, 73, 74, 75, 76, 77, 78, 79, 80, 81, 82, 83, 84, 85, 86, 87, 88, 89, 90, 91, 92, 93, 94, 95, 96, 97, 98, 99, 100, 101, 102, 103, 104, 105, 106, 107, 108, 109, 110, 111, 112, 113, 114, 115, 116, 117, 118, 119, 120, 121, 122, 123, 124, 125, 126, 127, 128, 129, 130, 131, 132, 133, 134, 135, 136, 137, 138, 139, 140, 141, 142, 143, 144, 145, 146, 147, 148, 149, 150, 151, 152, 153, 154, 155, 156, 157, 158, 159, 160, 161, 162, 163, 164, 165, 166, 167, 168, 169, 170, 171, 172, 173, 174, 175, 176, 177, 178, 179, 180, 181, 182, 183, 184, 185, 186, 187, 188, 189, 190, 191, 192, 193, 194, 195, 196, 197, 198, 199, 200],
      "AcquisitionTime": ["093537.772500", "093539.772500", "093541.772500", "093543.772500", "093545.772500", "093547.772500", "093549.772500", "093551.772500", "093553.772500", "093555.772500", "093557.772500", "093559.772500", "093601.772500", "093603.772500", "093605.772500", "093607.772500", "093609.772500", "093611.772500", "093613.772500", "093615.772500", "093617.772500", "093619.772500", "093621.772500", "093623.772500", "093625.772500", "093627.772500", "093629.772500", "093631.772500", "093633.772500", "093635.772500", "093637.772500", "093639.772500", "093641.772500", "093643.772500", "093645.772500", "093647.772500", "093649.772500", "093651.772500", "093653.772500", "093655.772500", "093657.772500", "093659.772500", "093701.772500", "093703.772500", "093705.772500", "093707.772500", "093709.772500", "093711.772500", "093713.772500", "093715.772500", "093717.772500", "093719.772500", "093721.772500", "093723.772500", "093725.772500", "093727.772500", "093729.772500", "093731.772500", "093733.772500", "093735.772500", "093737.772500", "093739.772500", "093741.772500", "093743.772500", "093745.772500", "093747.772500", "093749.772500", "093751.772500", "093753.772500", "093755.772500", "093757.772500", "093759.772500", "093801.772500", "093803.772500", "093805.772500", "093807.772500", "093809.772500", "093811.772500", "093813.772500", "093815.772500", "093817.772500", "093819.772500", "093821.772500", "093823.772500", "093825.772500", "093827.772500", "093829.772500", "093831.772500", "093833.772500", "093835.772500", "093837.772500", "093839.772500", "093841.772500", "093843.772500", "093845.772500", "093847.772500", "093849.772500", "093851.772500", "093853.772500", "093855.772500", "093857.772500", "093859.772500", "093901.772500", "093903.772500", "093905.772500", "093907.772500", "093909.772500", "093911.772500", "093913.772500", "093915.772500", "093917.772500", "093919.772500", "093921.772500", "093923.772500", "093925.772500", "093927.772500", "093929.772500", "093931.772500", "093933.772500", "093935.772500", "093937.772500", "093939.772500", "093941.772500", "093943.772500", "093945.772500", "093947.772500", "093949.772500", "093951.772500", "093953.772500", "093955.772500", "093957.772500", "093959.772500", "094001.772500", "094003.772500", "094005.772500", "094007.772500", "094009.772500", "094011.772500", "094013.772500", "094015.772500", "094017.772500", "094019.772500", "094021.772500", "094023.772500", "094025.772500", "094027.772500", "094029.772500", "094031.772500", "094033.772500", "094035.772500", "094037.772500", "094039.772500", "094041.772500", "094043.772500", "094045.772500", "094047.772500", "094049.772500", "094051.772500", "094053.772500", "094055.772500", "094057.772500", "094059.772500", "094101.772500", "094103.772500", "094105.772500", "094107.772500", "094109.772500", "094111.772500", "094113.772500", "094115.772500", "094117.772500", "094119.772500", "094121.772500", "094123.772500", "094125.772500", "094127.772500", "094129.772500", "094131.772500", "094133.772500", "094135.772500", "094137.772500", "094139.772500", "094141.772500", "094143.772500", "094145.772500", "094147.772500", "094149.772500", "094151.772500", "094153.772500", "094155.772500", "094157.772500", "094159.772500", "094201.772500", "094203.772500", "094205.772500", "094207.772500", "094209.772500", "094211.772500", "094213.772500", "094215.772500"],
      "ContentTime": ["093633.800000", "093633.813000", "093633.815000", "093633.817000", "093633.820000", "093633.822000", "093633.824000", "093633.827000", "093633.829000", "093633.832000", "093633.834000", "093633.836000", "093633.839000", "093633.841000", "093633.843000", "093633.846000", "093633.848000", "093633.850000", "093633.853000", "093633.855000", "093633.857000", "093633.860000", "093633.866000", "093633.868000", "093633.871000", "093633.873000", "093633.875000", "093633.877000", "093713.795000", "093713.798000", "093713.801000", "093713.803000", "093713.805000", "093713.808000", "093713.810000", "093713.813000", "093713.815000", "093713.817000", "093713.820000", "093713.822000", "093713.824000", "093713.826000", "093713.829000", "093713.831000", "093713.834000", "093713.836000", "093713.838000", "093713.841000", "093753.795000", "093753.798000", "093753.800000", "093753.802000", "093753.805000", "093753.807000", "093753.810000", "093753.812000", "093753.814000", "093753.816000", "093753.840000", "093753.843000", "093753.845000", "093753.847000", "093753.856000", "093753.859000", "093753.861000", "093753.863000", "093753.866000", "093753.868000", "093833.796000", "093833.799000", "093833.801000", "093833.804000", "093833.806000", "093833.808000", "093833.810000", "093833.813000", "093833.815000", "093833.817000", "093833.820000", "093833.822000", "093833.824000", "093833.827000", "093833.829000", "093833.831000", "093833.833000", "093833.836000", "093833.838000", "093833.840000", "093913.795000", "093913.798000", "093913.800000", "093913.803000", "093913.805000", "093913.807000", "093913.810000", "093913.812000", "093913.814000", "093913.817000", "093913.819000", "093913.821000", "093913.824000", "093913.826000", "093913.828000", "093913.831000", "093913.833000", "093913.835000", "093913.837000", "093913.840000", "093953.795000", "093953.798000", "093953.800000", "093953.802000", "093953.805000", "093953.807000", "093953.809000", "093953.812000", "093953.814000", "093953.816000", "093953.818000", "093953.821000", "093953.823000", "093953.825000", "093953.828000", "093953.830000", "093953.832000", "093953.835000", "093953.837000", "093953.839000", "094033.796000", "094033.799000", "094033.801000", "094033.803000", "094033.806000", "094033.808000", "094033.811000", "094033.813000", "094033.815000", "094033.818000", "094033.820000", "094033.822000", "094033.824000", "094033.827000", "094033.829000", "094033.831000", "094033.834000", "094033.836000", "094033.838000", "094033.841000", "094113.795000", "094113.798000", "094113.800000", "094113.803000", "094113.805000", "094113.807000", "094113.810000", "094113.812000", "094113.814000", "094113.817000", "094113.819000", "094113.821000", "094113.824000", "094113.826000", "094113.828000", "094113.831000", "094113.833000", "094113.835000", "094113.838000", "094113.840000", "094153.795000", "094153.798000", "094153.800000", "094153.803000", "094153.805000", "094153.807000", "094153.810000", "094153.812000", "094153.814000", "094153.817000", "094153.819000", "094153.821000", "094153.823000", "094153.826000", "094153.828000", "094153.830000", "094153.833000", "094153.835000", "094153.837000", "094153.840000", "094216.940000", "094216.945000", "094216.948000", "094216.951000", "094216.953000", "094216.956000", "094216.958000", "094216.961000", "094216.963000", "094216.967000", "094216.970000", "094216.972000"],
      "InstanceCreationTime": ["093633.800000", "093633.813000", "093633.815000", "093633.817000", "093633.820000", "093633.822000", "093633.824000", "093633.827000", "093633.829000", "093633.832000", "093633.834000", "093633.836000", "093633.839000", "093633.841000", "093633.843000", "093633.846000", "093633.848000", "093633.850000", "093633.853000", "093633.855000", "093633.857000", "093633.860000", "093633.866000", "093633.868000", "093633.871000", "093633.873000", "093633.875000", "093633.877000", "093713.795000", "093713.798000", "093713.801000", "093713.803000", "093713.805000", "093713.808000", "093713.810000", "093713.813000", "093713.815000", "093713.817000", "093713.820000", "093713.822000", "093713.824000", "093713.826000", "093713.829000", "093713.831000", "093713.834000", "093713.836000", "093713.838000", "093713.841000", "093753.795000", "093753.798000", "093753.800000", "093753.802000", "093753.805000", "093753.807000", "093753.810000", "093753.812000", "093753.814000", "093753.816000", "093753.840000", "093753.843000", "093753.845000", "093753.847000", "093753.856000", "093753.859000", "093753.861000", "093753.863000", "093753.866000", "093753.868000", "093833.796000", "093833.799000", "093833.801000", "093833.804000", "093833.806000", "093833.808000", "093833.810000", "093833.813000", "093833.815000", "093833.817000", "093833.820000", "093833.822000", "093833.824000", "093833.827000", "093833.829000", "093833.831000", "093833.833000", "093833.836000", "093833.838000", "093833.840000", "093913.795000", "093913.798000", "093913.800000", "093913.803000", "093913.805000", "093913.807000", "093913.810000", "093913.812000", "093913.814000", "093913.817000", "093913.819000", "093913.821000", "093913.824000", "093913.826000", "093913.828000", "093913.831000", "093913.833000", "093913.835000", "093913.837000", "093913.840000", "093953.795000", "093953.798000", "093953.800000", "093953.802000", "093953.805000", "093953.807000", "093953.809000", "093953.812000", "093953.814000", "093953.816000", "093953.818000", "093953.821000", "093953.823000", "093953.825000", "093953.828000", "093953.830000", "093953.832000", "093953.835000", "093953.837000", "093953.839000", "094033.796000", "094033.799000", "094033.801000", "094033.803000", "094033.806000", "094033.808000", "094033.811000", "094033.813000", "094033.815000", "094033.818000", "094033.820000", "094033.822000", "094033.824000", "094033.827000", "094033.829000", "094033.831000", "094033.834000", "094033.836000", "094033.838000", "094033.841000", "094113.795000", "094113.798000", "094113.800000", "094113.803000", "094113.805000", "094113.807000", "094113.810000", "094113.812000", "094113.814000", "094113.817000", "094113.819000", "094113.821000", "094113.824000", "094113.826000", "094113.828000", "094113.831000", "094113.833000", "094113.835000", "094113.838000", "094113.840000", "094153.795000", "094153.798000", "094153.800000", "094153.803000", "094153.805000", "094153.807000", "094153.810000", "094153.812000", "094153.814000", "094153.817000", "094153.819000", "094153.821000", "094153.823000", "094153.826000", "094153.828000", "094153.830000", "094153.833000", "094153.835000", "094153.837000", "094153.840000", "094216.940000", "094216.945000", "094216.948000", "094216.951000", "094216.953000", "094216.956000", "094216.958000", "094216.961000", "094216.963000", "094216.967000", "094216.970000", "094216.972000"],
      "InstanceNumber": [1, 2, 3, 4, 5, 6, 7, 8, 9, 10, 11, 12, 13, 14, 15, 16, 17, 18, 19, 20, 21, 22, 23, 24, 25, 26, 27, 28, 29, 30, 31, 32, 33, 34, 35, 36, 37, 38, 39, 40, 41, 42, 43, 44, 45, 46, 47, 48, 49, 50, 51, 52, 53, 54, 55, 56, 57, 58, 59, 60, 61, 62, 63, 64, 65, 66, 67, 68, 69, 70, 71, 72, 73, 74, 75, 76, 77, 78, 79, 80, 81, 82, 83, 84, 85, 86, 87, 88, 89, 90, 91, 92, 93, 94, 95, 96, 97, 98, 99, 100, 101, 102, 103, 104, 105, 106, 107, 108, 109, 110, 111, 112, 113, 114, 115, 116, 117, 118, 119, 120, 121, 122, 123, 124, 125, 126, 127, 128, 129, 130, 131, 132, 133, 134, 135, 136, 137, 138, 139, 140, 141, 142, 143, 144, 145, 146, 147, 148, 149, 150, 151, 152, 153, 154, 155, 156, 157, 158, 159, 160, 161, 162, 163, 164, 165, 166, 167, 168, 169, 170, 171, 172, 173, 174, 175, 176, 177, 178, 179, 180, 181, 182, 183, 184, 185, 186, 187, 188, 189, 190, 191, 192, 193, 194, 195, 196, 197, 198, 199, 200],
      "LargestImagePixelValue": [2205, 2205, 2209, 2208, 2208, 2204, 2211, 2202, 2206, 2210, 2209, 2205, 2205, 2200, 2211, 2209, 2211, 2210, 2207, 2202, 2212, 2206, 2206, 2204, 2204, 2203, 2205, 2206, 2211, 2203, 2199, 2205, 2215, 2203, 2207, 2205, 2207, 2207, 2202, 2205, 2210, 2206, 2202, 2205, 2209, 2211, 2201, 2207, 2209, 2208, 2208, 2206, 2206, 2212, 2208, 2209, 2212, 2209, 2205, 2206, 2205, 2209, 2206, 2201, 2206, 2209, 2209, 2211, 2209, 2209, 2214, 2213, 2210, 2210, 2209, 2213, 2213, 2208, 2212, 2210, 2215, 2208, 2214, 2214, 2208, 2210, 2212, 2211, 2215, 2214, 2215, 2210, 2213, 2216, 2212, 2214, 2213, 2211, 2214, 2214, 2212, 2214, 2212, 2213, 2213, 2214, 2211, 2210, 2217, 2214, 2218, 2219, 2216, 2217, 2218, 2215, 2220, 2220, 2215, 2216, 2216, 2219, 2214, 2217, 2211, 2211, 2211, 2213, 2216, 2217, 2217, 2215, 2214, 2213, 2218, 2216, 2214, 2213, 2219, 2217, 2219, 2216, 2218, 2220, 2217, 2216, 2221, 2219, 2219, 2220, 2219, 2216, 2220, 2221, 2213, 2217, 2219, 2214, 2220, 2219, 2221, 2222, 2219, 2218, 2220, 2222, 2221, 2222, 2218, 2219, 2220, 2219, 2219, 2218, 2221, 2222, 2222, 2220, 2224, 2222, 2224, 2225, 2220, 2219, 2219, 2223, 2218, 2220, 2220, 2223, 2220, 2216, 2222, 2220, 2218, 2220, 2221, 2220, 2221, 2220],
      "WindowCenter": [1057.0, 1056.0, 1056.0, 1056.0, 1056.0, 1056.0, 1056.0, 1056.0, 1056.0, 1056.0, 1056.0, 1056.0, 1056.0, 1056.0, 1056.0, 1056.0, 1056.0, 1056.0, 1056.0, 1056.0, 1056.0, 1056.0, 1056.0, 1056.0, 1056.0, 1056.0, 1056.0, 1056.0, 1056.0, 1056.0, 1056.0, 1056.0, 1056.0, 1056.0, 1056.0, 1056.0, 1056.0, 1056.0, 1056.0, 1056.0, 1056.0, 1056.0, 1056.0, 1056.0, 1056.0, 1056.0, 1056.0, 1056.0, 1056.0, 1056.0, 1056.0, 1056.0, 1056.0, 1056.0, 1056.0, 1056.0, 1056.0, 1056.0, 1056.0, 1056.0, 1056.0, 1056.0, 1056.0, 1056.0, 1056.0, 1056.0, 1056.0, 1056.0, 1056.0, 1056.0, 1056.0, 1056.0, 1055.0, 1056.0, 1055.0, 1055.0, 1056.0, 1055.0, 1055.0, 1055.0, 1055.0, 1056.0, 1055.0, 1056.0, 1056.0, 1055.0, 1055.0, 1055.0, 1055.0, 1055.0, 1055.0, 1055.0, 1055.0, 1055.0, 1055.0, 1055.0, 1055.0, 1055.0, 1055.0, 1055.0, 1055.0, 1055.0, 1055.0, 1055.0, 1055.0, 1055.0, 1055.0, 1055.0, 1055.0, 1055.0, 1055.0, 1056.0, 1055.0, 1055.0, 1055.0, 1055.0, 1055.0, 1055.0, 1055.0, 1055.0, 1055.0, 1055.0, 1055.0, 1055.0, 1055.0, 1055.0, 1055.0, 1055.0, 1055.0, 1055.0, 1055.0, 1055.0, 1055.0, 1055.0, 1055.0, 1055.0, 1055.0, 1055.0, 1055.0, 1055.0, 1055.0, 1055.0, 1055.0, 1055.0, 1055.0, 1055.0, 1055.0, 1055.0, 1055.0, 1055.0, 1055.0, 1055.0, 1055.0, 1055.0, 1055.0, 1055.0, 1055.0, 1055.0, 1055.0, 1055.0, 1055.0, 1055.0, 1055.0, 1055.0, 1055.0, 1055.0, 1055.0, 1055.0, 1055.0, 1055.0, 1055.0, 1055.0, 1055.0, 1055.0, 1055.0, 1055.0, 1055.0, 1055.0, 1055.0, 1055.0, 1055.0, 1055.0, 1055.0, 1055.0, 1055.0, 1055.0, 1055.0, 1055.0, 1055.0, 1055.0, 1055.0, 1055.0, 1055.0, 1055.0, 1055.0, 1055.0, 1055.0, 1055.0, 1055.0, 1055.0],
      "WindowWidth": [2364.0, 2364.0, 2364.0, 2364.0, 2364.0, 2364.0, 2364.0, 2363.0, 2363.0, 2363.0, 2363.0, 2364.0, 2364.0, 2363.0, 2363.0, 2364.0, 2363.0, 2363.0, 2363.0, 2363.0, 2363.0, 2364.0, 2363.0, 2363.0, 2363.0, 2363.0, 2364.0, 2363.0, 2363.0, 2363.0, 2363.0, 2363.0, 2363.0, 2363.0, 2362.0, 2363.0, 2363.0, 2362.0, 2362.0, 2362.0, 2363.0, 2363.0, 2362.0, 2362.0, 2362.0, 2362.0, 2362.0, 2362.0, 2362.0, 2362.0, 2362.0, 2362.0, 2362.0, 2362.0, 2362.0, 2362.0, 2362.0, 2362.0, 2362.0, 2362.0, 2362.0, 2362.0, 2362.0, 2362.0, 2362.0, 2362.0, 2362.0, 2362.0, 2362.0, 2362.0, 2362.0, 2362.0, 2362.0, 2362.0, 2362.0, 2362.0, 2362.0, 2362.0, 2362.0, 2362.0, 2362.0, 2362.0, 2362.0, 2362.0, 2361.0, 2362.0, 2362.0, 2362.0, 2362.0, 2362.0, 2362.0, 2362.0, 2361.0, 2362.0, 2361.0, 2362.0, 2362.0, 2362.0, 2361.0, 2361.0, 2361.0, 2362.0, 2361.0, 2361.0, 2361.0, 2362.0, 2361.0, 2361.0, 2362.0, 2361.0, 2362.0, 2361.0, 2361.0, 2361.0, 2361.0, 2361.0, 2362.0, 2361.0, 2362.0, 2362.0, 2362.0, 2362.0, 2361.0, 2362.0, 2362.0, 2362.0, 2361.0, 2361.0, 2361.0, 2361.0, 2361.0, 2361.0, 2362.0, 2361.0, 2361.0, 2361.0, 2361.0, 2361.0, 2361.0, 2361.0, 2361.0, 2361.0, 2361.0, 2361.0, 2361.0, 2361.0, 2361.0, 2361.0, 2361.0, 2361.0, 2361.0, 2361.0, 2361.0, 2361.0, 2361.0, 2361.0, 2361.0, 2361.0, 2361.0, 2361.0, 2361.0, 2361.0, 2361.0, 2361.0, 2360.0, 2361.0, 2361.0, 2361.0, 2361.0, 2361.0, 2361.0, 2361.0, 2360.0, 2360.0, 2361.0, 2361.0, 2361.0, 2360.0, 2360.0, 2360.0, 2361.0, 2360.0, 2361.0, 2360.0, 2361.0, 2360.0, 2360.0, 2360.0, 2361.0, 2360.0, 2360.0, 2360.0, 2360.0, 2360.0, 2360.0, 2360.0, 2360.0, 2360.0, 2360.0, 2360.0]
    },
    "slices": {}
  }
}