{
  "AcquisitionMatrixPE": 122,
  "AcquisitionNumber": 1,
  "AcquisitionTime": "10:02:32.477500",
  "BandwidthPerPixelPhaseEncode": 27.785,
  "BaseResolution": 122,
  "BodyPartExamined": "BRAIN",
  "CoilCombinationMethod": "Adaptive Combine",
  "ConsistencyInfo": "N4_VE11C_LATEST_20160120",
  "ConversionSoftware": "dcm2niix",
  "ConversionSoftwareVersion": "v1.0.20220720",
  "DerivedVendorReportedEchoSpacing": 0.000590011,
  "DeviceSerialNumber": "66112",
  "DiffusionScheme": "Monopolar",
  "DwellTime": 2e-06,
  "EchoTime": 0.068,
  "EchoTrainLength": 61,
  "EffectiveEchoSpacing": 0.000295005,
  "FlipAngle": 90,
  "HeudiconvVersion": "0.13.1",
  "ImageOrientationPatientDICOM": [0.987327, 0.157258, -0.0213346, -0.1421, 0.935893, 0.322352],
  "ImageOrientationText": "Tra>Cor(18.4)>Sag(-4.1)",
  "ImageType": [
    "ORIGINAL",
    "PRIMARY",
    "DIFFUSION",
    "NONE",
    "ND",
    "NORM"
],
  "ImagingFrequency": 123.252,
  "InPlanePhaseEncodingDirectionDICOM": "COL",
  "InstitutionAddress": "Maynard 3,Hanover,NH,US,03755",
  "InstitutionName": "Dartmouth College - PBS",
  "InstitutionalDepartmentName": "Department",
  "MRAcquisitionType": "2D",
  "MagneticFieldStrength": 3,
  "Manufacturer": "Siemens",
  "ManufacturersModelName": "Prisma",
  "Modality": "MR",
  "MultibandAccelerationFactor": 4,
  "NonlinearGradientCorrection": false,
  "ParallelReductionFactorInPlane": 2,
  "PartialFourier": 1,
  "PatientPosition": "HFS",
  "PercentPhaseFOV": 100,
  "PercentSampling": 100,
  "PhaseEncodingDirection": "j-",
  "PhaseEncodingSteps": 122,
  "PhaseResolution": 1,
  "PixelBandwidth": 2050,
  "ProcedureStepDescription": "dbic^QA",
  "ProtocolName": "dwi_acq-DTI-30-p2-s4",
  "PulseSequenceDetails": "%SiemensSeq%\\ep2d_diff",
  "ReceiveCoilActiveElements": "HEA;HEP",
  "ReceiveCoilName": "Head_32",
  "ReconMatrixPE": 122,
  "RefLinesPE": 38,
  "RepetitionTime": 3.6,
  "SAR": 0.157146,
  "ScanOptions": "FS",
  "ScanningSequence": "EP",
  "SequenceName": "*ep_b0",
  "SequenceVariant": "SK\\SP",
  "SeriesDescription": "dwi_acq-DTI-30-p2-s4",
  "SeriesNumber": 13,
  "ShimSetting": [4148, -7700, -7502, 227, -46, -138, -2, 67],
  "SliceThickness": 2,
  "SliceTiming": [2.58594, 0, 1.78906, 0.20312, 1.99219, 0.39844, 2.1875, 0.60156, 2.39062, 1, 2.78906, 1.19531, 2.98438, 1.39062, 3.1875, 1.59375, 3.38281, 0.79688, 2.58594, 0, 1.78906, 0.20312, 1.99219, 0.39844, 2.1875, 0.60156, 2.39062, 1, 2.78906, 1.19531, 2.98438, 1.39062, 3.1875, 1.59375, 3.38281, 0.79688, 2.58594, 0, 1.78906, 0.20312, 1.99219, 0.39844, 2.1875, 0.60156, 2.39062, 1, 2.78906, 1.19531, 2.98438, 1.39062, 3.1875, 1.59375, 3.38281, 0.79688, 2.58594, 0, 1.78906, 0.20312, 1.99219, 0.39844, 2.1875, 0.60156, 2.39062, 1, 2.78906, 1.19531, 2.98438, 1.39062, 3.1875, 1.59375, 3.38281, 0.79688],
  "SoftwareVersions": "syngo MR E11",
  "SpacingBetweenSlices": 2,
  "SpoilingState": true,
  "StationName": "AWP66112",
  "TotalReadoutTime": 0.0356956,
  "TxRefAmp": 228.438,
  "dcmmeta_affine": [
    [-1.9422829151153564, -0.27954116463661194, -0.14131879806518555, 141.15533447265625],
    [-0.3093596398830414, 1.8411017656326294, 0.6304702758789062, -101.01417541503906],
    [-0.041969794780015945, -0.6341359615325928, 1.8927536010742188, -19.967605590820312],
    [0.0, 0.0, 0.0, 1.0]
],
  "dcmmeta_reorient_transform": [
    [0.0, -1.0, 0.0, 121.0],
    [1.0, 0.0, 0.0, 0.0],
    [0.0, 0.0, -1.0, 71.0],
    [0.0, 0.0, 0.0, 1.0]
],
  "dcmmeta_shape": [122, 122, 72, 31],
  "dcmmeta_slice_dim": 2,
  "dcmmeta_version": 0.6,
  "global": {
    "const": {
      "AccessionNumber": "qa",
      "AcquisitionMatrix": [122, 0, 0, 122],
      "AngioFlag": "N",
      "BitsAllocated": 16,
      "BitsStored": 12,
      "BodyPartExamined": "BRAIN",
      "Columns": 122,
      "EchoNumbers": 1,
      "EchoTime": 68.0,
      "EchoTrainLength": 61,
      "FlipAngle": 90.0,
      "HighBit": 11,
      "ImageOrientationPatient": [0.98732710586656, 0.15725781045993, -0.0213346448417, -0.1421000928603, 0.93589340790754, 0.32235243545583],
      "ImageType": [
        "ORIGINAL",
        "PRIMARY",
        "DIFFUSION",
        "NONE",
        "ND",
        "NORM"
],
      "ImagedNucleus": "1H",
      "ImagingFrequency": 123.252361,
      "InPlanePhaseEncodingDirection": "COL",
      "MRAcquisitionType": "2D",
      "MagneticFieldStrength": 3.0,
      "Manufacturer": "SIEMENS",
      "ManufacturerModelName": "Prisma",
      "Modality": "MR",
      "NumberOfAverages": 1.0,
      "NumberOfPhaseEncodingSteps": 122,
      "PercentPhaseFieldOfView": 100.0,
      "PercentSampling": 100.0,
      "PerformedProcedureStepStartTime": "092834.720000",
      "PhotometricInterpretation": "MONOCHROME2",
      "PixelBandwidth": 2050.0,
      "PixelRepresentation": 0,
      "PixelSpacing": [1.9672131538391, 1.9672131538391],
      "ProtocolName": "dwi_acq-DTI-30-p2-s4",
      "RepetitionTime": 3600.0,
      "Rows": 122,
      "SAR": 0.15714568958978,
      "SamplesPerPixel": 1,
      "ScanOptions": "FS",
      "ScanningSequence": "EP",
      "SequenceVariant": [
        "SK",
        "SP"
],
      "SeriesDescription": "dwi_acq-DTI-30-p2-s4",
      "SeriesNumber": 13,
      "SeriesTime": "100241.450000",
      "SliceThickness": 2.0,
      "SmallestImagePixelValue": 0,
      "SoftwareVersions": "syngo MR E11",
      "SpacingBetweenSlices": 2.0,
      "SpecificCharacterSet": "ISO_IR 100",
      "StudyID": "58",
      "StudyTime": "092834.675000",
      "TransmitCoilName": "Body",
      "VariableFlipAngleFlag": "N",
      "WindowCenterWidthExplanation": "Algo1",
      "dBdt": 0.0},
    "slices": {
      "AcquisitionTime": ["100232.477500", "100229.892500", "100231.682500", "100230.092500", "100231.882500", "100230.290000", "100232.080000", "100230.490000", "100232.280000", "100230.887500", "100232.677500", "100231.087500", "100232.875000", "100231.285000", "100233.075000", "100231.485000", "100233.275000", "100230.687500", "100232.477500", "100229.892500", "100231.682500", "100230.092500", "100231.882500", "100230.290000", "100232.080000", "100230.490000", "100232.280000", "100230.887500", "100232.677500", "100231.087500", "100232.875000", "100231.285000", "100233.075000", "100231.485000", "100233.275000", "100230.687500", "100232.477500", "100229.892500", "100231.682500", "100230.092500", "100231.882500", "100230.290000", "100232.080000", "100230.490000", "100232.280000", "100230.887500", "100232.677500", "100231.087500", "100232.875000", "100231.285000", "100233.075000", "100231.485000", "100233.275000", "100230.687500", "100232.477500", "100229.892500", "100231.682500", "100230.092500", "100231.882500", "100230.290000", "100232.080000", "100230.490000", "100232.280000", "100230.887500", "100232.677500", "100231.087500", "100232.875000", "100231.285000", "100233.075000", "100231.485000", "100233.275000", "100230.687500", "100236.077500", "100233.492500", "100235.282500", "100233.692500", "100235.482500", "100233.890000", "100235.680000", "100234.090000", "100235.880000", "100234.487500", "100236.277500", "100234.687500", "100236.475000", "100234.885000", "100236.675000", "100235.085000", "100236.875000", "100234.287500", "100236.077500", "100233.492500", "100235.282500", "100233.692500", "100235.482500", "100233.890000", "100235.680000", "100234.090000", "100235.880000", "100234.487500", "100236.277500", "100234.687500", "100236.475000", "100234.885000", "100236.675000", "100235.085000", "100236.875000", "100234.287500", "100236.077500", "100233.492500", "100235.282500", "100233.692500", "100235.482500", "100233.890000", "100235.680000", "100234.090000", "100235.880000", "100234.487500", "100236.277500", "100234.687500", "100236.475000", "100234.885000", "100236.675000", "100235.085000", "100236.875000", "100234.287500", "100236.077500", "100233.492500", "100235.282500", "100233.692500", "100235.482500", "100233.890000", "100235.680000", "100234.090000", "100235.880000", "100234.487500", "100236.277500", "100234.687500", "100236.475000", "100234.885000", "100236.675000", "100235.085000", "100236.875000", "100234.287500", "100239.677500", "100237.092500", "100238.882500", "100237.292500", "100239.082500", "100237.490000", "100239.280000", "100237.690000", "100239.480000", "100238.087500", "100239.877500", "100238.287500", "100240.075000", "100238.485000", "100240.275000", "100238.685000", "100240.475000", "100237.887500", "100239.677500", "100237.092500", "100238.882500", "100237.292500", "100239.082500", "100237.490000", "100239.280000", "100237.690000", "100239.480000", "100238.087500", "100239.877500", "100238.287500", "100240.075000", "100238.485000", "100240.275000", "100238.685000", "100240.475000", "100237.887500", "100239.677500", "100237.092500", "100238.882500", "100237.292500", "100239.082500", "100237.490000", "100239.280000", "100237.690000", "100239.480000", "100238.087500", "100239.877500", "100238.287500", "100240.075000", "100238.485000", "100240.275000", "100238.685000", "100240.475000", "100237.887500", "100239.677500", "100237.092500", "100238.882500", "100237.292500", "100239.082500", "100237.490000", "100239.280000", "100237.690000", "100239.480000", "100238.087500", "100239.877500", "100238.287500", "100240.075000", "100238.485000", "100240.275000", "100238.685000", "100240.475000", "100237.887500", "100243.277500", "100240.692500", "100242.482500", "100240.892500", "100242.682500", "100241.090000", "100242.880000", "100241.290000", "100243.080000", "100241.687500", "100243.477500", "100241.887500", "100243.675000", "100242.085000", "100243.875000", "100242.285000", "100244.075000", "100241.487500", "100243.277500", "100240.692500", "100242.482500", "100240.892500", "100242.682500", "100241.090000", "100242.880000", "100241.290000", "100243.080000", "100241.687500", "100243.477500", "100241.887500", "100243.675000", "100242.085000", "100243.875000", "100242.285000", "100244.075000", "100241.487500", "100243.277500", "100240.692500", "100242.482500", "100240.892500", "100242.682500", "100241.090000", "100242.880000", "100241.290000", "100243.080000", "100241.687500", "100243.477500", "100241.887500", "100243.675000", "100242.085000", "100243.875000", "100242.285000", "100244.075000", "100241.487500", "100243.277500", "100240.692500", "100242.482500", "100240.892500", "100242.682500", "100241.090000", "100242.880000", "100241.290000", "100243.080000", "100241.687500", "100243.477500", "100241.887500", "100243.675000", "100242.085000", "100243.875000", "100242.285000", "100244.075000", "100241.487500", "100246.877500", "100244.292500", "100246.082500", "100244.492500", "100246.282500", "100244.690000", "100246.480000", "100244.890000", "100246.680000", "100245.287500", "100247.077500", "100245.487500", "100247.275000", "100245.685000", "100247.475000", "100245.885000", "100247.675000", "100245.087500", "100246.877500", "100244.292500", "100246.082500", "100244.492500", "100246.282500", "100244.690000", "100246.480000", "100244.890000", "100246.680000", "100245.287500", "100247.077500", "100245.487500", "100247.275000", "100245.685000", "100247.475000", "100245.885000", "100247.675000", "100245.087500", "100246.877500", "100244.292500", "100246.082500", "100244.492500", "100246.282500", "100244.690000", "100246.480000", "100244.890000", "100246.680000", "100245.287500", "100247.077500", "100245.487500", "100247.275000", "100245.685000", "100247.475000", "100245.885000", "100247.675000", "100245.087500", "100246.877500", "100244.292500", "100246.082500", "100244.492500", "100246.282500", "100244.690000", "100246.480000", "100244.890000", "100246.680000", "100245.287500", "100247.077500", "100245.487500", "100247.275000", "100245.685000", "100247.475000", "100245.885000", "100247.675000", "100245.087500", "100250.477500", "100247.892500", "100249.682500", "100248.092500", "100249.882500", "100248.290000", "100250.080000", "100248.490000", "100250.280000", "100248.887500", "100250.677500", "100249.087500", "100250.875000", "100249.285000", "100251.075000", "100249.485000", "100251.275000", "100248.687500", "100250.477500", "100247.892500", "100249.682500", "100248.092500", "100249.882500", "100248.290000", "100250.080000", "100248.490000", "100250.280000", "100248.887500", "100250.677500", "100249.087500", "100250.875000", "100249.285000", "100251.075000", "100249.485000", "100251.275000", "100248.687500", "100250.477500", "100247.892500", "100249.682500", "100248.092500", "100249.882500", "100248.290000", "100250.080000", "100248.490000", "100250.280000", "100248.887500", "100250.677500", "100249.087500", "100250.875000", "100249.285000", "100251.075000", "100249.485000", "100251.275000", "100248.687500", "100250.477500", "100247.892500", "100249.682500", "100248.092500", "100249.882500", "100248.290000", "100250.080000", "100248.490000", "100250.280000", "100248.887500", "100250.677500", "100249.087500", "100250.875000", "100249.285000", "100251.075000", "100249.485000", "100251.275000", "100248.687500", "100254.077500", "100251.492500", "100253.282500", "100251.692500", "100253.482500", "100251.890000", "100253.680000", "100252.090000", "100253.880000", "100252.487500", "100254.277500", "100252.687500", "100254.475000", "100252.885000", "100254.675000", "100253.085000", "100254.875000", "100252.287500", "100254.077500", "100251.492500", "100253.282500", "100251.692500", "100253.482500", "100251.890000", "100253.680000", "100252.090000", "100253.880000", "100252.487500", "100254.277500", "100252.687500", "100254.475000", "100252.885000", "100254.675000", "100253.085000", "100254.875000", "100252.287500", "100254.077500", "100251.492500", "100253.282500", "100251.692500", "100253.482500", "100251.890000", "100253.680000", "100252.090000", "100253.880000", "100252.487500", "100254.277500", "100252.687500", "100254.475000", "100252.885000", "100254.675000", "100253.085000", "100254.875000", "100252.287500", "100254.077500", "100251.492500", "100253.282500", "100251.692500", "100253.482500", "100251.890000", "100253.680000", "100252.090000", "100253.880000", "100252.487500", "100254.277500", "100252.687500", "100254.475000", "100252.885000", "100254.675000", "100253.085000", "100254.875000", "100252.287500", "100257.677500", "100255.092500", "100256.882500", "100255.292500", "100257.082500", "100255.490000", "100257.280000", "100255.690000", "100257.480000", "100256.087500", "100257.877500", "100256.287500", "100258.075000", "100256.485000", "100258.275000", "100256.685000", "100258.475000", "100255.887500", "100257.677500", "100255.092500", "100256.882500", "100255.292500", "100257.082500", "100255.490000", "100257.280000", "100255.690000", "100257.480000", "100256.087500", "100257.877500", "100256.287500", "100258.075000", "100256.485000", "100258.275000", "100256.685000", "100258.475000", "100255.887500", "100257.677500", "100255.092500", "100256.882500", "100255.292500", "100257.082500", "100255.490000", "100257.280000", "100255.690000", "100257.480000", "100256.087500", "100257.877500", "100256.287500", "100258.075000", "100256.485000", "100258.275000", "100256.685000", "100258.475000", "100255.887500", "100257.677500", "100255.092500", "100256.882500", "100255.292500", "100257.082500", "100255.490000", "100257.280000", "100255.690000", "100257.480000", "100256.087500", "100257.877500", "100256.287500", "100258.075000", "100256.485000", "100258.275000", "100256.685000", "100258.475000", "100255.887500", "100301.277500", "100258.692500", "100300.482500", "100258.892500", "100300.682500", "100259.090000", "100300.880000", "100259.290000", "100301.080000", "100259.687500", "100301.477500", "100259.887500", "100301.675000", "100300.085000", "100301.875000", "100300.285000", "100302.075000", "100259.487500", "100301.277500", "100258.692500", "100300.482500", "100258.892500", "100300.682500", "100259.090000", "100300.880000", "100259.290000", "100301.080000", "100259.687500", "100301.477500", "100259.887500", "100301.675000", "100300.085000", "100301.875000", "100300.285000", "100302.075000", "100259.487500", "100301.277500", "100258.692500", "100300.482500", "100258.892500", "100300.682500", "100259.090000", "100300.880000", "100259.290000", "100301.080000", "100259.687500", "100301.477500", "100259.887500", "100301.675000", "100300.085000", "100301.875000", "100300.285000", "100302.075000", "100259.487500", "100301.277500", "100258.692500", "100300.482500", "100258.892500", "100300.682500", "100259.090000", "100300.880000", "100259.290000", "100301.080000", "100259.687500", "100301.477500", "100259.887500", "100301.675000", "100300.085000", "100301.875000", "100300.285000", "100302.075000", "100259.487500", "100304.877500", "100302.292500", "100304.082500", "100302.492500", "100304.282500", "100302.690000", "100304.480000", "100302.890000", "100304.680000", "100303.287500", "100305.077500", "100303.487500", "100305.275000", "100303.685000", "100305.475000", "100303.885000", "100305.675000", "100303.087500", "100304.877500", "100302.292500", "100304.082500", "100302.492500", "100304.282500", "100302.690000", "100304.480000", "100302.890000", "100304.680000", "100303.287500", "100305.077500", "100303.487500", "100305.275000", "100303.685000", "100305.475000", "100303.885000", "100305.675000", "100303.087500", "100304.877500", "100302.292500", "100304.082500", "100302.492500", "100304.282500", "100302.690000", "100304.480000", "100302.890000", "100304.680000", "100303.287500", "100305.077500", "100303.487500", "100305.275000", "100303.685000", "100305.475000", "100303.885000", "100305.675000", "100303.087500", "100304.877500", "100302.292500", "100304.082500", "100302.492500", "100304.282500", "100302.690000", "100304.480000", "100302.890000", "100304.680000", "100303.287500", "100305.077500", "100303.487500", "100305.275000", "100303.685000", "100305.475000", "100303.885000", "100305.675000", "100303.087500", "100308.477500", "100305.892500", "100307.682500", "100306.092500", "100307.882500", "100306.290000", "100308.080000", "100306.490000", "100308.280000", "100306.887500", "100308.677500", "100307.087500", "100308.875000", "100307.285000", "100309.075000", "100307.485000", "100309.275000", "100306.687500", "100308.477500", "100305.892500", "100307.682500", "100306.092500", "100307.882500", "100306.290000", "100308.080000", "100306.490000", "100308.280000", "100306.887500", "100308.677500", "100307.087500", "100308.875000", "100307.285000", "100309.075000", "100307.485000", "100309.275000", "100306.687500", "100308.477500", "100305.892500", "100307.682500", "100306.092500", "100307.882500", "100306.290000", "100308.080000", "100306.490000", "100308.280000", "100306.887500", "100308.677500", "100307.087500", "100308.875000", "100307.285000", "100309.075000", "100307.485000", "100309.275000", "100306.687500", "100308.477500", "100305.892500", "100307.682500", "100306.092500", "100307.882500", "100306.290000", "100308.080000", "100306.490000", "100308.280000", "100306.887500", "100308.677500", "100307.087500", "100308.875000", "100307.285000", "100309.075000", "100307.485000", "100309.275000", "100306.687500", "100312.077500", "100309.492500", "100311.282500", "100309.692500", "100311.482500", "100309.890000", "100311.680000", "100310.090000", "100311.880000", "100310.487500", "100312.277500", "100310.687500", "100312.475000", "100310.885000", "100312.675000", "100311.085000", "100312.875000", "100310.287500", "100312.077500", "100309.492500", "100311.282500", "100309.692500", "100311.482500", "100309.890000", "100311.680000", "100310.090000", "100311.880000", "100310.487500", "100312.277500", "100310.687500", "100312.475000", "100310.885000", "100312.675000", "100311.085000", "100312.875000", "100310.287500", "100312.077500", "100309.492500", "100311.282500", "100309.692500", "100311.482500", "100309.890000", "100311.680000", "100310.090000", "100311.880000", "100310.487500", "100312.277500", "100310.687500", "100312.475000", "100310.885000", "100312.675000", "100311.085000", "100312.875000", "100310.287500", "100312.077500", "100309.492500", "100311.282500", "100309.692500", "100311.482500", "100309.890000", "100311.680000", "100310.090000", "100311.880000", "100310.487500", "100312.277500", "100310.687500", "100312.475000", "100310.885000", "100312.675000", "100311.085000", "100312.875000", "100310.287500", "100315.677500", "100313.092500", "100314.882500", "100313.292500", "100315.082500", "100313.490000", "100315.280000", "100313.690000", "100315.480000", "100314.087500", "100315.877500", "100314.287500", "100316.075000", "100314.485000", "100316.275000", "100314.685000", "100316.475000", "100313.887500", "100315.677500", "100313.092500", "100314.882500", "100313.292500", "100315.082500", "100313.490000", "100315.280000", "100313.690000", "100315.480000", "100314.087500", "100315.877500", "100314.287500", "100316.075000", "100314.485000", "100316.275000", "100314.685000", "100316.475000", "100313.887500", "100315.677500", "100313.092500", "100314.882500", "100313.292500", "100315.082500", "100313.490000", "100315.280000", "100313.690000", "100315.480000", "100314.087500", "100315.877500", "100314.287500", "100316.075000", "100314.485000", "100316.275000", "100314.685000", "100316.475000", "100313.887500", "100315.677500", "100313.092500", "100314.882500", "100313.292500", "100315.082500", "100313.490000", "100315.280000", "100313.690000", "100315.480000", "100314.087500", "100315.877500", "100314.287500", "100316.075000", "100314.485000", "100316.275000", "100314.685000", "100316.475000", "100313.887500", "100319.277500", "100316.692500", "100318.482500", "100316.892500", "100318.682500", "100317.090000", "100318.880000", "100317.290000", "100319.080000", "100317.687500", "100319.477500", "100317.887500", "100319.675000", "100318.085000", "100319.875000", "100318.285000", "100320.075000", "100317.487500", "100319.277500", "100316.692500", "100318.482500", "100316.892500", "100318.682500", "100317.090000", "100318.880000", "100317.290000", "100319.080000", "100317.687500", "100319.477500", "100317.887500", "100319.675000", "100318.085000", "100319.875000", "100318.285000", "100320.075000", "100317.487500", "100319.277500", "100316.692500", "100318.482500", "100316.892500", "100318.682500", "100317.090000", "100318.880000", "100317.290000", "100319.080000", "100317.687500", "100319.477500", "100317.887500", "100319.675000", "100318.085000", "100319.875000", "100318.285000", "100320.075000", "100317.487500", "100319.277500", "100316.692500", "100318.482500", "100316.892500", "100318.682500", "100317.090000", "100318.880000", "100317.290000", "100319.080000", "100317.687500", "100319.477500", "100317.887500", "100319.675000", "100318.085000", "100319.875000", "100318.285000", "100320.075000", "100317.487500", "100322.877500", "100320.292500", "100322.082500", "100320.492500", "100322.282500", "100320.690000", "100322.480000", "100320.890000", "100322.680000", "100321.287500", "100323.077500", "100321.487500", "100323.275000", "100321.685000", "100323.475000", "100321.885000", "100323.675000", "100321.087500", "100322.877500", "100320.292500", "100322.082500", "100320.492500", "100322.282500", "100320.690000", "100322.480000", "100320.890000", "100322.680000", "100321.287500", "100323.077500", "100321.487500", "100323.275000", "100321.685000", "100323.475000", "100321.885000", "100323.675000", "100321.087500", "100322.877500", "100320.292500", "100322.082500", "100320.492500", "100322.282500", "100320.690000", "100322.480000", "100320.890000", "100322.680000", "100321.287500", "100323.077500", "100321.487500", "100323.275000", "100321.685000", "100323.475000", "100321.885000", "100323.675000", "100321.087500", "100322.877500", "100320.292500", "100322.082500", "100320.492500", "100322.282500", "100320.690000", "100322.480000", "100320.890000", "100322.680000", "100321.287500", "100323.077500", "100321.487500", "100323.275000", "100321.685000", "100323.475000", "100321.885000", "100323.675000", "100321.087500", "100326.477500", "100323.892500", "100325.682500", "100324.092500", "100325.882500", "100324.290000", "100326.080000", "100324.490000", "100326.280000", "100324.887500", "100326.677500", "100325.087500", "100326.875000", "100325.285000", "100327.075000", "100325.485000", "100327.275000", "100324.687500", "100326.477500", "100323.892500", "100325.682500", "100324.092500", "100325.882500", "100324.290000", "100326.080000", "100324.490000", "100326.280000", "100324.887500", "100326.677500", "100325.087500", "100326.875000", "100325.285000", "100327.075000", "100325.485000", "100327.275000", "100324.687500", "100326.477500", "100323.892500", "100325.682500", "100324.092500", "100325.882500", "100324.290000", "100326.080000", "100324.490000", "100326.280000", "100324.887500", "100326.677500", "100325.087500", "100326.875000", "100325.285000", "100327.075000", "100325.485000", "100327.275000", "100324.687500", "100326.477500", "100323.892500", "100325.682500", "100324.092500", "100325.882500", "100324.290000", "100326.080000", "100324.490000", "100326.280000", "100324.887500", "100326.677500", "100325.087500", "100326.875000", "100325.285000", "100327.075000", "100325.485000", "100327.275000", "100324.687500", "100330.077500", "100327.492500", "100329.282500", "100327.692500", "100329.482500", "100327.890000", "100329.680000", "100328.090000", "100329.880000", "100328.487500", "100330.277500", "100328.687500", "100330.475000", "100328.885000", "100330.675000", "100329.085000", "100330.875000", "100328.287500", "100330.077500", "100327.492500", "100329.282500", "100327.692500", "100329.482500", "100327.890000", "100329.680000", "100328.090000", "100329.880000", "100328.487500", "100330.277500", "100328.687500", "100330.475000", "100328.885000", "100330.675000", "100329.085000", "100330.875000", "100328.287500", "100330.077500", "100327.492500", "100329.282500", "100327.692500", "100329.482500", "100327.890000", "100329.680000", "100328.090000", "100329.880000", "100328.487500", "100330.277500", "100328.687500", "100330.475000", "100328.885000", "100330.675000", "100329.085000", "100330.875000", "100328.287500", "100330.077500", "100327.492500", "100329.282500", "100327.692500", "100329.482500", "100327.890000", "100329.680000", "100328.090000", "100329.880000", "100328.487500", "100330.277500", "100328.687500", "100330.475000", "100328.885000", "100330.675000", "100329.085000", "100330.875000", "100328.287500", "100333.677500", "100331.092500", "100332.882500", "100331.292500", "100333.082500", "100331.490000", "100333.280000", "100331.690000", "100333.480000", "100332.087500", "100333.877500", "100332.287500", "100334.075000", "100332.485000", "100334.275000", "100332.685000", "100334.475000", "100331.887500", "100333.677500", "100331.092500", "100332.882500", "100331.292500", "100333.082500", "100331.490000", "100333.280000", "100331.690000", "100333.480000", "100332.087500", "100333.877500", "100332.287500", "100334.075000", "100332.485000", "100334.275000", "100332.685000", "100334.475000", "100331.887500", "100333.677500", "100331.092500", "100332.882500", "100331.292500", "100333.082500", "100331.490000", "100333.280000", "100331.690000", "100333.480000", "100332.087500", "100333.877500", "100332.287500", "100334.075000", "100332.485000", "100334.275000", "100332.685000", "100334.475000", "100331.887500", "100333.677500", "100331.092500", "100332.882500", "100331.292500", "100333.082500", "100331.490000", "100333.280000", "100331.690000", "100333.480000", "100332.087500", "100333.877500", "100332.287500", "100334.075000", "100332.485000", "100334.275000", "100332.685000", "100334.475000", "100331.887500", "100337.277500", "100334.692500", "100336.482500", "100334.892500", "100336.682500", "100335.090000", "100336.880000", "100335.290000", "100337.080000", "100335.687500", "100337.477500", "100335.887500", "100337.675000", "100336.085000", "100337.875000", "100336.285000", "100338.075000", "100335.487500", "100337.277500", "100334.692500", "100336.482500", "100334.892500", "100336.682500", "100335.090000", "100336.880000", "100335.290000", "100337.080000", "100335.687500", "100337.477500", "100335.887500", "100337.675000", "100336.085000", "100337.875000", "100336.285000", "100338.075000", "100335.487500", "100337.277500", "100334.692500", "100336.482500", "100334.892500", "100336.682500", "100335.090000", "100336.880000", "100335.290000", "100337.080000", "100335.687500", "100337.477500", "100335.887500", "100337.675000", "100336.085000", "100337.875000", "100336.285000", "100338.075000", "100335.487500", "100337.277500", "100334.692500", "100336.482500", "100334.892500", "100336.682500", "100335.090000", "100336.880000", "100335.290000", "100337.080000", "100335.687500", "100337.477500", "100335.887500", "100337.675000", "100336.085000", "100337.875000", "100336.285000", "100338.075000", "100335.487500", "100340.877500", "100338.292500", "100340.082500", "100338.492500", "100340.282500", "100338.690000", "100340.480000", "100338.890000", "100340.680000", "100339.287500", "100341.077500", "100339.487500", "100341.275000", "100339.685000", "100341.475000", "100339.885000", "100341.675000", "100339.087500", "100340.877500", "100338.292500", "100340.082500", "100338.492500", "100340.282500", "100338.690000", "100340.480000", "100338.890000", "100340.680000", "100339.287500", "100341.077500", "100339.487500", "100341.275000", "100339.685000", "100341.475000", "100339.885000", "100341.675000", "100339.087500", "100340.877500", "100338.292500", "100340.082500", "100338.492500", "100340.282500", "100338.690000", "100340.480000", "100338.890000", "100340.680000", "100339.287500", "100341.077500", "100339.487500", "100341.275000", "100339.685000", "100341.475000", "100339.885000", "100341.675000", "100339.087500", "100340.877500", "100338.292500", "100340.082500", "100338.492500", "100340.282500", "100338.690000", "100340.480000", "100338.890000", "100340.680000", "100339.287500", "100341.077500", "100339.487500", "100341.2