{
  "AcquisitionMatrixPE": 80,
  "AcquisitionNumber": 1,
  "AcquisitionTime": "08:37:59.725000",
  "BandwidthPerPixelPhaseEncode": 48.077,
  "BaseResolution": 80,
  "BodyPartExamined": "BRAIN",
  "CoilCombinationMethod": "Sum of Squares",
  "ConsistencyInfo": "N4_VE11E_LATEST_20181129",
  "ConversionSoftware": "dcm2niix",
  "ConversionSoftwareVersion": "v1.0.20220720",
  "DerivedVendorReportedEchoSpacing": 0.000519999,
  "DeviceSerialNumber": "66112",
  "DwellTime": 2.7e-06,
  "EchoTime": 0.035,
  "EchoTrainLength": 39,
  "EffectiveEchoSpacing": 0.00026,
  "FlipAngle": 90,
  "HeudiconvVersion": "0.13.1",
  "ImageOrientationPatientDICOM": [0.988839, 0.148485, 0.012261, -0.145314, 0.943, 0.29939],
  "ImageOrientationText": "Tra>Cor(17.3)>Sag(-1.9)",
  "ImageType": [
    "ORIGINAL",
    "PRIMARY",
    "M",
    "ND",
    "NORM",
    "MOSAIC"
],
  "ImagingFrequency": 123.252,
  "InPlanePhaseEncodingDirectionDICOM": "COL",
  "InstitutionAddress": "Maynard 3,Hanover,NH,US,03755",
  "InstitutionName": "Dartmouth College - PBS",
  "InstitutionalDepartmentName": "Department",
  "MRAcquisitionType": "2D",
  "MagneticFieldStrength": 3,
  "Manufacturer": "Siemens",
  "ManufacturersModelName": "Prisma",
  "MatrixCoilMode": "GRAPPA",
  "Modality": "MR",
  "NonlinearGradientCorrection": false,
  "ParallelReductionFactorInPlane": 2,
  "PartialFourier": 1,
  "PatientPosition": "HFS",
  "PercentPhaseFOV": 100,
  "PercentSampling": 100,
  "PhaseEncodingDirection": "j-",
  "PhaseEncodingSteps": 79,
  "PhaseResolution": 1,
  "PixelBandwidth": 2315,
  "ProcedureStepDescription": "dbic^QA",
  "ProtocolName": "func-bold_task-rest_acq-p2",
  "PulseSequenceDetails": "%SiemensSeq%\\ep2d_bold",
  "ReceiveCoilActiveElements": "HC1-7;NC1,2",
  "ReceiveCoilName": "HeadNeck_64",
  "ReconMatrixPE": 80,
  "RefLinesPE": 24,
  "RepetitionTime": 2,
  "SAR": 0.0366086,
  "ScanOptions": "FS",
  "ScanningSequence": "EP",
  "SequenceName": "*epfid2d1_80",
  "SequenceVariant": "SK",
  "SeriesDescription": "func-bold_task-rest_acq-p2",
  "SeriesNumber": 5,
  "ShimSetting": [4136, -7700, -7517, 216, -66, -307, 3, 72],
  "SliceThickness": 3.5,
  "SliceTiming": [0.99, 0, 1.0575, 0.0675, 1.1225, 0.1325, 1.1875, 0.1975, 1.255, 0.265, 1.32, 0.33, 1.3875, 0.3975, 1.4525, 0.4625, 1.5175, 0.5275, 1.585, 0.595, 1.65, 0.66, 1.7175, 0.7275, 1.7825, 0.7925, 1.8475, 0.8575, 1.915, 0.925],
  "SoftwareVersions": "syngo MR E11",
  "SpacingBetweenSlices": 3.99,
  "StationName": "AWP66112",
  "TaskName": "rest",
  "TotalReadoutTime": 0.02054,
  "TxRefAmp": 220.662,
  "dcmmeta_affine": [
    [-2.9665162563323975, -0.43594107031822205, -0.131241574883461, 141.65699768066406],
    [-0.4454536736011505, 2.8290011882781982, 1.1883411407470703, -96.04225158691406],
    [0.036782994866371155, -0.898169219493866, 3.8066680431365967, -26.877050399780273],
    [0.0, 0.0, 0.0, 1.0]
],
  "dcmmeta_reorient_transform": [
    [0.0, -1.0, 0.0, 79.0],
    [1.0, 0.0, 0.0, 0.0],
    [0.0, 0.0, 1.0, 0.0],
    [0.0, 0.0, 0.0, 1.0]
],
  "dcmmeta_shape": [80, 80, 30, 200],
  "dcmmeta_slice_dim": 2,
  "dcmmeta_version": 0.6,
  "global": {
    "const": {
      "AccessionNumber": "qa64",
      "AcquisitionMatrix": [80, 0, 0, 80],
      "AngioFlag": "N",
      "BitsAllocated": 16,
      "BitsStored": 12,
      "BodyPartExamined": "BRAIN",
      "Columns": 480,
      "EchoNumbers": 1,
      "EchoTime": 35.0,
      "EchoTrainLength": 39,
      "FlipAngle": 90.0,
      "HighBit": 11,
      "ImageOrientationPatient": [0.98883871549417, 0.14848455362821, 0.01226099807029, -0.1453136949234, 0.94300037976212, 0.29938973568946],
      "ImagePositionPatient": [-613.33266088334, -782.33979794558, -284.8228582936],
      "ImageType": [
        "ORIGINAL",
        "PRIMARY",
        "M",
        "ND",
        "NORM",
        "MOSAIC"
],
      "ImagedNucleus": "1H",
      "ImagingFrequency": 123.252365,
      "InPlanePhaseEncodingDirection": "COL",
      "MRAcquisitionType": "2D",
      "MagneticFieldStrength": 3.0,
      "Manufacturer": "SIEMENS",
      "ManufacturerModelName": "Prisma",
      "Modality": "MR",
      "NumberOfAverages": 1.0,
      "NumberOfPhaseEncodingSteps": 79,
      "PercentPhaseFieldOfView": 100.0,
      "PercentSampling": 100.0,
      "PerformedProcedureStepStartTime": "083356.227000",
      "PhotometricInterpretation": "MONOCHROME2",
      "PixelBandwidth": 2315.0,
      "PixelRepresentation": 0,
      "PixelSpacing": [3.0, 3.0],
      "ProtocolName": "func-bold_task-rest_acq-p2",
      "RepetitionTime": 2000.0,
      "Rows": 480,
      "SAR": 0.03660864870184,
      "SamplesPerPixel": 1,
      "ScanOptions": "FS",
      "ScanningSequence": "EP",
      "SequenceName": "*epfid2d1_80",
      "SequenceVariant": "SK",
      "SeriesDescription": "func-bold_task-rest_acq-p2",
      "SeriesNumber": 5,
      "SeriesTime": "083851.444000",
      "SliceLocation": -58.905827505476,
      "SliceThickness": 3.5,
      "SmallestImagePixelValue": 0,
      "SoftwareVersions": "syngo MR E11",
      "SpacingBetweenSlices": 3.9900000205759,
      "SpecificCharacterSet": "ISO_IR 100",
      "StudyID": "3",
      "StudyTime": "083356.079000",
      "TransmitCoilName": "Body",
      "VariableFlipAngleFlag": "N",
      "WindowCenterWidthExplanation": "Algo1"
    },
    "slices": {}
  },
  "time": {
    "samples": {
      "AcquisitionNumber": [1, 2, 3, 4, 5, 6, 7, 8, 9, 10, 11, 12, 13, 14, 15, 16, 17, 18, 19, 20, 21, 22, 23, 24, 25, 26, 27, 28, 29, 30, 31, 32, 33, 34, 35, 36, 37, 38, 39, 40, 41, 42, 43, 44, 45, 46, 47, 48, 49, 50, 51, 52, 53, 54, 55, 56, 57, 58, 59, 60, 61, 62, 63, 64, 65, 66, 67, 68, 69, 70, 71, 72, 73, 74, 75, 76, 77, 78, 79, 80, 81, 82, 83, 84, 85, 86, 87, 88, 89, 90, 91, 92, 93, 94, 95, 96, 97, 98, 99, 100, 101, 102, 103, 104, 105, 106, 107, 108, 109, 110, 111, 112, 113, 114, 115, 116, 117, 118, 119, 120, 121, 122, 123, 124, 125, 126, 127, 128, 129, 130, 131, 132, 133, 134, 135, 136, 137, 138, 139, 140, 141, 142, 143, 144, 145, 146, 147, 148, 149, 150, 151, 152, 153, 154, 155, 156, 157, 158, 159, 160, 161, 162, 163, 164, 165, 166, 167, 168, 169, 170, 171, 172, 173, 174, 175, 176, 177, 178, 179, 180, 181, 182, 183, 184, 185, 186, 187, 188, 189, 190, 191, 192, 193, 194, 195, 196, 197, 198, 199, 200],
      "AcquisitionTime": ["083759.725000", "083801.725000", "083803.725000", "083805.725000", "083807.725000", "083809.725000", "083811.725000", "083813.725000", "083815.725000", "083817.725000", "083819.725000", "083821.725000", "083823.725000", "083825.725000", "083827.725000", "083829.725000", "083831.725000", "083833.725000", "083835.725000", "083837.725000", "083839.725000", "083841.725000", "083843.725000", "083845.725000", "083847.725000", "083849.725000", "083851.725000", "083853.725000", "083855.725000", "083857.725000", "083859.725000", "083901.725000", "083903.725000", "083905.725000", "083907.725000", "083909.725000", "083911.725000", "083913.725000", "083915.725000", "083917.725000", "083919.725000", "083921.725000", "083923.725000", "083925.725000", "083927.725000", "083929.725000", "083931.725000", "083933.725000", "083935.725000", "083937.725000", "083939.725000", "083941.725000", "083943.725000", "083945.725000", "083947.725000", "083949.725000", "083951.725000", "083953.725000", "083955.725000", "083957.725000", "083959.725000", "084001.725000", "084003.725000", "084005.725000", "084007.725000", "084009.725000", "084011.725000", "084013.725000", "084015.725000", "084017.725000", "084019.725000", "084021.725000", "084023.725000", "084025.725000", "084027.725000", "084029.725000", "084031.725000", "084033.725000", "084035.725000", "084037.725000", "084039.725000", "084041.725000", "084043.725000", "084045.725000", "084047.725000", "084049.725000", "084051.725000", "084053.725000", "084055.725000", "084057.725000", "084059.725000", "084101.725000", "084103.725000", "084105.725000", "084107.725000", "084109.725000", "084111.725000", "084113.725000", "084115.725000", "084117.725000", "084119.725000", "084121.725000", "084123.725000", "084125.725000", "084127.725000", "084129.725000", "084131.725000", "084133.725000", "084135.725000", "084137.725000", "084139.725000", "084141.725000", "084143.725000", "084145.725000", "084147.725000", "084149.725000", "084151.725000", "084153.725000", "084155.725000", "084157.725000", "084159.725000", "084201.725000", "084203.725000", "084205.725000", "084207.725000", "084209.725000", "084211.725000", "084213.725000", "084215.725000", "084217.725000", "084219.725000", "084221.725000", "084223.725000", "084225.725000", "084227.725000", "084229.725000", "084231.725000", "084233.725000", "084235.725000", "084237.725000", "084239.725000", "084241.725000", "084243.725000", "084245.725000", "084247.725000", "084249.725000", "084251.725000", "084253.725000", "084255.725000", "084257.725000", "084259.725000", "084301.725000", "084303.725000", "084305.725000", "084307.725000", "084309.725000", "084311.725000", "084313.725000", "084315.725000", "084317.725000", "084319.725000", "084321.725000", "084323.725000", "084325.725000", "084327.725000", "084329.725000", "084331.725000", "084333.725000", "084335.725000", "084337.725000", "084339.725000", "084341.725000", "084343.725000", "084345.725000", "084347.725000", "084349.725000", "084351.725000", "084353.725000", "084355.725000", "084357.725000", "084359.725000", "084401.725000", "084403.725000", "084405.725000", "084407.725000", "084409.725000", "084411.725000", "084413.725000", "084415.725000", "084417.725000", "084419.725000", "084421.725000", "084423.725000", "084425.725000", "084427.725000", "084429.725000", "084431.725000", "084433.725000", "084435.725000", "084437.725000"],
      "ContentTime": ["083851.448000", "083851.451000", "083851.453000", "083851.455000", "083851.458000", "083851.460000", "083851.462000", "083851.465000", "083851.467000", "083851.469000", "083851.472000", "083851.474000", "083851.476000", "083851.487000", "083851.489000", "083851.492000", "083851.494000", "083851.496000", "083851.499000", "083851.501000", "083851.503000", "083851.506000", "083851.508000", "083851.511000", "083851.513000", "083851.515000", "083931.443000", "083931.446000", "083931.448000", "083931.450000", "083931.453000", "083931.456000", "083931.458000", "083931.461000", "083931.463000", "083931.465000", "083931.468000", "083931.470000", "083931.472000", "083931.475000", "083931.477000", "083931.479000", "083931.482000", "083931.484000", "083931.486000", "083931.489000", "084011.443000", "084011.446000", "084011.448000", "084011.451000", "084011.453000", "084011.455000", "084011.458000", "084011.460000", "084011.462000", "084011.465000", "084011.467000", "084011.470000", "084011.472000", "084011.474000", "084011.477000", "084011.479000", "084011.481000", "084011.484000", "084011.486000", "084011.489000", "084051.443000", "084051.446000", "084051.448000", "084051.450000", "084051.453000", "084051.455000", "084051.457000", "084051.460000", "084051.462000", "084051.464000", "084051.467000", "084051.469000", "084051.472000", "084051.474000", "084051.476000", "084051.479000", "084051.481000", "084051.483000", "084051.486000", "084051.488000", "084131.443000", "084131.446000", "084131.448000", "084131.451000", "084131.453000", "084131.455000", "084131.458000", "084131.460000", "084131.462000", "084131.465000", "084131.467000", "084131.469000", "084131.472000", "084131.474000", "084131.477000", "084131.479000", "084131.481000", "084131.484000", "084131.486000", "084131.488000", "084211.443000", "084211.446000", "084211.448000", "084211.450000", "084211.453000", "084211.455000", "084211.458000", "084211.460000", "084211.462000", "084211.465000", "084211.467000", "084211.469000", "084211.471000", "084211.474000", "084211.476000", "084211.478000", "084211.481000", "084211.483000", "084211.486000", "084211.488000", "084251.443000", "084251.446000", "084251.448000", "084251.450000", "084251.453000", "084251.455000", "084251.457000", "084251.460000", "084251.462000", "084251.464000", "084251.467000", "084251.469000", "084251.471000", "084251.474000", "084251.476000", "084251.478000", "084251.481000", "084251.483000", "084251.486000", "084251.488000", "084331.442000", "084331.445000", "084331.447000", "084331.449000", "084331.452000", "084331.454000", "084331.457000", "084331.459000", "084331.461000", "084331.464000", "084331.466000", "084331.468000", "084331.471000", "084331.473000", "084331.476000", "084331.478000", "084331.480000", "084331.483000", "084331.485000", "084331.487000", "084411.443000", "084411.446000", "084411.448000", "084411.450000", "084411.453000", "084411.455000", "084411.457000", "084411.460000", "084411.462000", "084411.465000", "084411.467000", "084411.469000", "084411.471000", "084411.474000", "084411.476000", "084411.479000", "084411.481000", "084411.483000", "084411.486000", "084411.488000", "084438.790000", "084438.795000", "084438.798000", "084438.801000", "084438.804000", "084438.811000", "084438.815000", "084438.818000", "084438.821000", "084438.824000", "084438.827000", "084438.830000", "084438.833000", "084438.839000"],
      "InstanceCreationTime": ["083851.448000", "083851.451000", "083851.453000", "083851.455000", "083851.458000", "083851.460000", "083851.462000", "083851.465000", "083851.467000", "083851.469000", "083851.472000", "083851.474000", "083851.476000", "083851.487000", "083851.489000", "083851.492000", "083851.494000", "083851.496000", "083851.499000", "083851.501000", "083851.503000", "083851.506000", "083851.508000", "083851.511000", "083851.513000", "083851.515000", "083931.443000", "083931.446000", "083931.448000", "083931.450000", "083931.453000", "083931.456000", "083931.458000", "083931.461000", "083931.463000", "083931.465000", "083931.468000", "083931.470000", "083931.472000", "083931.475000", "083931.477000", "083931.479000", "083931.482000", "083931.484000", "083931.486000", "083931.489000", "084011.443000", "084011.446000", "084011.448000", "084011.451000", "084011.453000", "084011.455000", "084011.458000", "084011.460000", "084011.462000", "084011.465000", "084011.467000", "084011.470000", "084011.472000", "084011.474000", "084011.477000", "084011.479000", "084011.481000", "084011.484000", "084011.486000", "084011.489000", "084051.443000", "084051.446000", "084051.448000", "084051.450000", "084051.453000", "084051.455000", "084051.457000", "084051.460000", "084051.462000", "084051.464000", "084051.467000", "084051.469000", "084051.472000", "084051.474000", "084051.476000", "084051.479000", "084051.481000", "084051.483000", "084051.486000", "084051.488000", "084131.443000", "084131.446000", "084131.448000", "084131.451000", "084131.453000", "084131.455000", "084131.458000", "084131.460000", "084131.462000", "084131.465000", "084131.467000", "084131.469000", "084131.472000", "084131.474000", "084131.477000", "084131.479000", "084131.481000", "084131.484000", "084131.486000", "084131.488000", "084211.443000", "084211.446000", "084211.448000", "084211.450000", "084211.453000", "084211.455000", "084211.458000", "084211.460000", "084211.462000", "084211.465000", "084211.467000", "084211.469000", "084211.471000", "084211.474000", "084211.476000", "084211.478000", "084211.481000", "084211.483000", "084211.486000", "084211.488000", "084251.443000", "084251.446000", "084251.448000", "084251.450000", "084251.453000", "084251.455000", "084251.457000", "084251.460000", "084251.462000", "084251.464000", "084251.467000", "084251.469000", "084251.471000", "084251.474000", "084251.476000", "084251.478000", "084251.481000", "084251.483000", "084251.486000", "084251.488000", "084331.442000", "084331.445000", "084331.447000", "084331.449000", "084331.452000", "084331.454000", "084331.457000", "084331.459000", "084331.461000", "084331.464000", "084331.466000", "084331.468000", "084331.471000", "084331.473000", "084331.476000", "084331.478000", "084331.480000", "084331.483000", "084331.485000", "084331.487000", "084411.443000", "084411.446000", "084411.448000", "084411.450000", "084411.453000", "084411.455000", "084411.457000", "084411.460000", "084411.462000", "084411.465000", "084411.467000", "084411.469000", "084411.471000", "084411.474000", "084411.476000", "084411.479000", "084411.481000", "084411.483000", "084411.486000", "084411.488000", "084438.790000", "084438.795000", "084438.798000", "084438.801000", "084438.804000", "084438.811000", "084438.815000", "084438.818000", "084438.821000", "084438.824000", "084438.827000", "084438.830000", "084438.833000", "084438.839000"],
      "InstanceNumber": [1, 2, 3, 4, 5, 6, 7, 8, 9, 10, 11, 12, 13, 14, 15, 16, 17, 18, 19, 20, 21, 22, 23, 24, 25, 26, 27, 28, 29, 30, 31, 32, 33, 34, 35, 36, 37, 38, 39, 40, 41, 42, 43, 44, 45, 46, 47, 48, 49, 50, 51, 52, 53, 54, 55, 56, 57, 58, 59, 60, 61, 62, 63, 64, 65, 66, 67, 68, 69, 70, 71, 72, 73, 74, 75, 76, 77, 78, 79, 80, 81, 82, 83, 84, 85, 86, 87, 88, 89, 90, 91, 92, 93, 94, 95, 96, 97, 98, 99, 100, 101, 102, 103, 104, 105, 106, 107, 108, 109, 110, 111, 112, 113, 114, 115, 116, 117, 118, 119, 120, 121, 122, 123, 124, 125, 126, 127, 128, 129, 130, 131, 132, 133, 134, 135, 136, 137, 138, 139, 140, 141, 142, 143, 144, 145, 146, 147, 148, 149, 150, 151, 152, 153, 154, 155, 156, 157, 158, 159, 160, 161, 162, 163, 164, 165, 166, 167, 168, 169, 170, 171, 172, 173, 174, 175, 176, 177, 178, 179, 180, 181, 182, 183, 184, 185, 186, 187, 188, 189, 190, 191, 192, 193, 194, 195, 196, 197, 198, 199, 200],
      "LargestImagePixelValue": [4043, 4046, 4047, 4063, 4049, 4062, 4072, 4075, 4057, 4064, 4069, 4072, 4051, 4070, 4056, 4064, 4067, 4072, 4069, 4072, 4061, 4056, 4055, 4053, 4059, 4054, 4061, 4062, 4062, 4078, 4070, 4069, 4061, 4065, 4069, 4075, 4056, 4083, 4067, 4079, 4065, 4061, 4060, 4048, 4055, 4047, 4058, 4065, 4064, 4080, 4079, 4078, 4087, 4076, 4062, 4071, 4062, 4059, 4062, 4054, 4050, 4051, 4073, 4069, 4069, 4090, 4070, 4074, 4067, 4077, 4083, 4073, 4088, 4082, 4079, 4074, 4091, 4095, 4075, 4074, 4095, 4081, 4081, 4085, 4095, 4094, 4091, 4084, 4070, 4068, 4073, 4088, 4067, 4081, 4079, 4082, 4084, 4095, 4072, 4065, 4074, 4060, 4062, 4066, 4091, 4095, 4074, 4075, 4075, 4080, 4088, 4080, 4081, 4083, 4074, 4076, 4074, 4067, 4067, 4077, 4063, 4081, 4088, 4083, 4082, 4072, 4067, 4073, 4080, 4077, 4082, 4087, 4075, 4090, 4066, 4073, 4062, 4072, 4069, 4078, 4080, 4085, 4064, 4086, 4070, 4077, 4081, 4070, 4071, 4071, 4069, 4072, 4069, 4072, 4078, 4076, 4085, 4083, 4074, 4090, 4084, 4054, 4072, 4085, 4076, 4069, 4081, 4089, 4089, 4095, 4088, 4085, 4081, 4078, 4075, 4074, 4075, 4059, 4082, 4083, 4078, 4069, 4069, 4079, 4083, 4091, 4066, 4071, 4083, 4075, 4065, 4077, 4083, 4095, 4088, 4092, 4089, 4086, 4076, 4091],
      "WindowCenter": [1532.0, 1531.0, 1532.0, 1532.0, 1531.0, 1531.0, 1531.0, 1531.0, 1532.0, 1531.0, 1531.0, 1531.0, 1531.0, 1532.0, 1531.0, 1531.0, 1531.0, 1531.0, 1531.0, 1531.0, 1530.0, 1532.0, 1532.0, 1531.0, 1531.0, 1531.0, 1531.0, 1531.0, 1531.0, 1531.0, 1531.0, 1532.0, 1532.0, 1531.0, 1531.0, 1532.0, 1532.0, 1530.0, 1531.0, 1531.0, 1530.0, 1532.0, 1531.0, 1531.0, 1531.0, 1531.0, 1532.0, 1531.0, 1531.0, 1531.0, 1532.0, 1531.0, 1531.0, 1531.0, 1531.0, 1532.0, 1531.0, 1530.0, 1531.0, 1532.0, 1531.0, 1531.0, 1531.0, 1531.0, 1531.0, 1530.0, 1531.0, 1531.0, 1531.0, 1531.0, 1531.0, 1530.0, 1531.0, 1531.0, 1531.0, 1531.0, 1531.0, 1531.0, 1531.0, 1531.0, 1531.0, 1531.0, 1530.0, 1531.0, 1530.0, 1530.0, 1531.0, 1531.0, 1530.0, 1530.0, 1530.0, 1531.0, 1530.0, 1530.0, 1530.0, 1531.0, 1531.0, 1531.0, 1530.0, 1530.0, 1530.0, 1530.0, 1531.0, 1530.0, 1530.0, 1531.0, 1530.0, 1530.0, 1530.0, 1531.0, 1530.0, 1530.0, 1530.0, 1530.0, 1530.0, 1530.0, 1530.0, 1529.0, 1530.0, 1530.0, 1530.0, 1530.0, 1530.0, 1530.0, 1530.0, 1530.0, 1531.0, 1530.0, 1531.0, 1531.0, 1530.0, 1530.0, 1530.0, 1530.0, 1531.0, 1531.0, 1530.0, 1531.0, 1531.0, 1530.0, 1530.0, 1530.0, 1530.0, 1531.0, 1530.0, 1530.0, 1530.0, 1530.0, 1530.0, 1530.0, 1530.0, 1531.0, 1531.0, 1531.0, 1529.0, 1530.0, 1530.0, 1530.0, 1530.0, 1530.0, 1530.0, 1530.0, 1530.0, 1530.0, 1530.0, 1531.0, 1530.0, 1530.0, 1529.0, 1529.0, 1529.0, 1530.0, 1531.0, 1530.0, 1529.0, 1530.0, 1530.0, 1529.0, 1530.0, 1530.0, 1530.0, 1529.0, 1529.0, 1529.0, 1530.0, 1530.0, 1529.0, 1529.0, 1530.0, 1530.0, 1528.0, 1529.0, 1530.0, 1529.0, 1529.0, 1529.0, 1529.0, 1530.0, 1529.0, 1530.0],
      "WindowWidth": [3422.0, 3421.0, 3421.0, 3421.0, 3421.0, 3421.0, 3421.0, 3421.0, 3421.0, 3421.0, 3421.0, 3420.0, 3421.0, 3421.0, 3420.0, 3420.0, 3421.0, 3420.0, 3420.0, 3420.0, 3421.0, 3421.0, 3421.0, 3420.0, 3420.0, 3421.0, 3420.0, 3420.0, 3421.0, 3421.0, 3421.0, 3421.0, 3421.0, 3421.0, 3421.0, 3421.0, 3421.0, 3421.0, 3421.0, 3421.0, 3421.0, 3421.0, 3421.0, 3421.0, 3421.0, 3421.0, 3421.0, 3421.0, 3421.0, 3420.0, 3421.0, 3421.0, 3421.0, 3421.0, 3421.0, 3421.0, 3420.0, 3421.0, 3421.0, 3421.0, 3420.0, 3421.0, 3421.0, 3421.0, 3421.0, 3421.0, 3421.0, 3420.0, 3420.0, 3420.0, 3420.0, 3421.0, 3420.0, 3420.0, 3420.0, 3420.0, 3420.0, 3420.0, 3420.0, 3420.0, 3420.0, 3420.0, 3420.0, 3420.0, 3420.0, 3420.0, 3420.0, 3420.0, 3420.0, 3420.0, 3420.0, 3420.0, 3420.0, 3420.0, 3420.0, 3420.0, 3420.0, 3420.0, 3420.0, 3420.0, 3420.0, 3420.0, 3420.0, 3420.0, 3420.0, 3420.0, 3420.0, 3420.0, 3420.0, 3420.0, 3420.0, 3420.0, 3420.0, 3420.0, 3420.0, 3420.0, 3420.0, 3420.0, 3420.0, 3420.0, 3420.0, 3420.0, 3420.0, 3420.0, 3420.0, 3420.0, 3419.0, 3420.0, 3420.0, 3420.0, 3420.0, 3420.0, 3420.0, 3420.0, 3419.0, 3420.0, 3420.0, 3420.0, 3420.0, 3420.0, 3420.0, 3420.0, 3420.0, 3419.0, 3420.0, 3420.0, 3420.0, 3420.0, 3420.0, 3420.0, 3420.0, 3419.0, 3419.0, 3419.0, 3420.0, 3420.0, 3420.0, 3420.0, 3420.0, 3420.0, 3420.0, 3420.0, 3420.0, 3420.0, 3420.0, 3419.0, 3419.0, 3420.0, 3420.0, 3420.0, 3420.0, 3419.0, 3419.0, 3419.0, 3420.0, 3419.0, 3419.0, 3420.0, 3419.0, 3419.0, 3419.0, 3420.0, 3420.0, 3420.0, 3419.0, 3419.0, 3420.0, 3420.0, 3419.0, 3419.0, 3419.0, 3419.0, 3419.0, 3419.0, 3419.0, 3419.0, 3419.0, 3419.0, 3419.0, 3419.0]
    },
    "slices": {}
  }
}