{
  "AcquisitionMatrixPE": 80,
  "AcquisitionNumber": 1,
  "AcquisitionTime": "10:37:23.832500",
  "BandwidthPerPixelPhaseEncode": 48.077,
  "BaseResolution": 80,
  "BodyPartExamined": "BRAIN",
  "CoilCombinationMethod": "Sum of Squares",
  "ConsistencyInfo": "N4_VE11C_LATEST_20160120",
  "ConversionSoftware": "dcm2niix",
  "ConversionSoftwareVersion": "v1.0.20220720",
  "DerivedVendorReportedEchoSpacing": 0.000519999,
  "DeviceSerialNumber": "66112",
  "DwellTime": 2.7e-06,
  "EchoTime": 0.035,
  "EchoTrainLength": 39,
  "EffectiveEchoSpacing": 0.00026,
  "FlipAngle": 90,
  "HeudiconvVersion": "0.13.1",
  "ImageOrientationPatientDICOM": [0.999974, 0.00584577, 0.0041027, -0.00680668, 0.954007, 0.299706],
  "ImageOrientationText": "Tra>Cor(17.4)>Sag(0.1)",
  "ImageType": [
    "ORIGINAL",
    "PRIMARY",
    "M",
    "ND",
    "NORM",
    "MOSAIC"
],
  "ImagingFrequency": 123.252,
  "InPlanePhaseEncodingDirectionDICOM": "COL",
  "InstitutionAddress": "Maynard 3,Hanover,NH,US,03755",
  "InstitutionName": "Dartmouth College - PBS",
  "InstitutionalDepartmentName": "Department",
  "MRAcquisitionType": "2D",
  "MagneticFieldStrength": 3,
  "Manufacturer": "Siemens",
  "ManufacturersModelName": "Prisma",
  "MatrixCoilMode": "GRAPPA",
  "Modality": "MR",
  "NonlinearGradientCorrection": false,
  "ParallelReductionFactorInPlane": 2,
  "PartialFourier": 1,
  "PatientPosition": "HFS",
  "PercentPhaseFOV": 100,
  "PercentSampling": 100,
  "PhaseEncodingDirection": "j-",
  "PhaseEncodingSteps": 79,
  "PhaseResolution": 1,
  "PixelBandwidth": 2315,
  "ProcedureStepDescription": "dbic^QA",
  "ProtocolName": "func-bold_task-rest_acq-p2",
  "PulseSequenceDetails": "%SiemensSeq%\\ep2d_bold",
  "ReceiveCoilActiveElements": "HEA;HEP",
  "ReceiveCoilName": "Head_32",
  "ReconMatrixPE": 80,
  "RefLinesPE": 24,
  "RepetitionTime": 2,
  "SAR": 0.0478645,
  "ScanOptions": "FS",
  "ScanningSequence": "EP",
  "SequenceName": "*epfid2d1_80",
  "SequenceVariant": "SK",
  "SeriesDescription": "func-bold_task-rest_acq-p2",
  "SeriesNumber": 5,
  "ShimSetting": [4151, -7703, -7524, 463, -139, -262, -81, 142],
  "SliceThickness": 3.5,
  "SliceTiming": [0.99, 0, 1.0575, 0.0675, 1.1225, 0.1325, 1.1875, 0.1975, 1.255, 0.265, 1.32, 0.33, 1.3875, 0.3975, 1.4525, 0.4625, 1.5175, 0.5275, 1.585, 0.595, 1.65, 0.66, 1.7175, 0.7275, 1.7825, 0.7925, 1.8475, 0.8575, 1.915, 0.925],
  "SoftwareVersions": "syngo MR E11",
  "SpacingBetweenSlices": 3.99,
  "StationName": "AWP66112",
  "TaskName": "rest",
  "TotalReadoutTime": 0.02054,
  "TxRefAmp": 227.509,
  "dcmmeta_affine": [
    [-2.9999234676361084, -0.020420044660568237, 0.008626356720924377, 122.60651397705078],
    [-0.017537301406264305, 2.8620219230651855, 1.1959075927734375, -118.59603881835938],
    [0.012308098375797272, -0.8991178274154663, 3.806550979614258, -43.76927947998047],
    [0.0, 0.0, 0.0, 1.0]
],
  "dcmmeta_reorient_transform": [
    [0.0, -1.0, 0.0, 79.0],
    [1.0, 0.0, 0.0, 0.0],
    [0.0, 0.0, 1.0, 0.0],
    [0.0, 0.0, 0.0, 1.0]
],
  "dcmmeta_shape": [80, 80, 30, 200],
  "dcmmeta_slice_dim": 2,
  "dcmmeta_version": 0.6,
  "global": {
    "const": {
      "AccessionNumber": "qa",
      "AcquisitionMatrix": [80, 0, 0, 80],
      "AngioFlag": "N",
      "BitsAllocated": 16,
      "BitsStored": 12,
      "BodyPartExamined": "BRAIN",
      "Columns": 480,
      "EchoNumbers": 1,
      "EchoTime": 35.0,
      "EchoTrainLength": 39,
      "FlipAngle": 90.0,
      "HighBit": 11,
      "ImageOrientationPatient": [0.99997449710714, 0.00584576711046, 0.00410269938077, -0.0068066817557, 0.95400734483849, 0.29970594768488],
      "ImagePositionPatient": [-716.89402252007, -683.41557162741, -297.08477807233],
      "ImageType": [
        "ORIGINAL",
        "PRIMARY",
        "M",
        "ND",
        "NORM",
        "MOSAIC"
],
      "ImagedNucleus": "1H",
      "ImagingFrequency": 123.252346,
      "InPlanePhaseEncodingDirection": "COL",
      "MRAcquisitionType": "2D",
      "MagneticFieldStrength": 3.0,
      "Manufacturer": "SIEMENS",
      "ManufacturerModelName": "Prisma",
      "Modality": "MR",
      "NumberOfAverages": 1.0,
      "NumberOfPhaseEncodingSteps": 79,
      "PercentPhaseFieldOfView": 100.0,
      "PercentSampling": 100.0,
      "PerformedProcedureStepStartTime": "103304.974000",
      "PhotometricInterpretation": "MONOCHROME2",
      "PixelBandwidth": 2315.0,
      "PixelRepresentation": 0,
      "PixelSpacing": [3.0, 3.0],
      "ProtocolName": "func-bold_task-rest_acq-p2",
      "RepetitionTime": 2000.0,
      "Rows": 480,
      "SAR": 0.04786451153922,
      "SamplesPerPixel": 1,
      "ScanOptions": "FS",
      "ScanningSequence": "EP",
      "SequenceName": "*epfid2d1_80",
      "SequenceVariant": "SK",
      "SeriesDescription": "func-bold_task-rest_acq-p2",
      "SeriesNumber": 5,
      "SeriesTime": "103818.035000",
      "SliceLocation": -77.038159785756,
      "SliceThickness": 3.5,
      "SmallestImagePixelValue": 0,
      "SoftwareVersions": "syngo MR E11",
      "SpacingBetweenSlices": 3.9899999249029,
      "SpecificCharacterSet": "ISO_IR 100",
      "StudyID": "10",
      "StudyTime": "103304.917000",
      "TransmitCoilName": "Body",
      "VariableFlipAngleFlag": "N",
      "WindowCenterWidthExplanation": "Algo1",
      "dBdt": 0.0},
    "slices": {}
  },
  "time": {
    "samples": {
      "AcquisitionNumber": [1, 2, 3, 4, 5, 6, 7, 8, 9, 10, 11, 12, 13, 14, 15, 16, 17, 18, 19, 20, 21, 22, 23, 24, 25, 26, 27, 28, 29, 30, 31, 32, 33, 34, 35, 36, 37, 38, 39, 40, 41, 42, 43, 44, 45, 46, 47, 48, 49, 50, 51, 52, 53, 54, 55, 56, 57, 58, 59, 60, 61, 62, 63, 64, 65, 66, 67, 68, 69, 70, 71, 72, 73, 74, 75, 76, 77, 78, 79, 80, 81, 82, 83, 84, 85, 86, 87, 88, 89, 90, 91, 92, 93, 94, 95, 96, 97, 98, 99, 100, 101, 102, 103, 104, 105, 106, 107, 108, 109, 110, 111, 112, 113, 114, 115, 116, 117, 118, 119, 120, 121, 122, 123, 124, 125, 126, 127, 128, 129, 130, 131, 132, 133, 134, 135, 136, 137, 138, 139, 140, 141, 142, 143, 144, 145, 146, 147, 148, 149, 150, 151, 152, 153, 154, 155, 156, 157, 158, 159, 160, 161, 162, 163, 164, 165, 166, 167, 168, 169, 170, 171, 172, 173, 174, 175, 176, 177, 178, 179, 180, 181, 182, 183, 184, 185, 186, 187, 188, 189, 190, 191, 192, 193, 194, 195, 196, 197, 198, 199, 200],
      "AcquisitionTime": ["103723.832500", "103725.832500", "103727.832500", "103729.832500", "103731.832500", "103733.832500", "103735.832500", "103737.832500", "103739.832500", "103741.832500", "103743.832500", "103745.832500", "103747.832500", "103749.832500", "103751.832500", "103753.832500", "103755.832500", "103757.832500", "103759.832500", "103801.832500", "103803.832500", "103805.832500", "103807.832500", "103809.832500", "103811.832500", "103813.832500", "103815.832500", "103817.832500", "103819.832500", "103821.832500", "103823.832500", "103825.832500", "103827.832500", "103829.832500", "103831.832500", "103833.832500", "103835.832500", "103837.832500", "103839.832500", "103841.832500", "103843.832500", "103845.832500", "103847.832500", "103849.832500", "103851.832500", "103853.832500", "103855.832500", "103857.832500", "103859.832500", "103901.832500", "103903.832500", "103905.832500", "103907.832500", "103909.832500", "103911.832500", "103913.832500", "103915.832500", "103917.832500", "103919.832500", "103921.832500", "103923.832500", "103925.832500", "103927.832500", "103929.832500", "103931.832500", "103933.832500", "103935.832500", "103937.832500", "103939.832500", "103941.832500", "103943.832500", "103945.832500", "103947.832500", "103949.832500", "103951.832500", "103953.832500", "103955.832500", "103957.832500", "103959.832500", "104001.832500", "104003.832500", "104005.832500", "104007.832500", "104009.832500", "104011.832500", "104013.832500", "104015.832500", "104017.832500", "104019.832500", "104021.832500", "104023.832500", "104025.832500", "104027.832500", "104029.832500", "104031.832500", "104033.832500", "104035.832500", "104037.832500", "104039.832500", "104041.832500", "104043.832500", "104045.832500", "104047.832500", "104049.832500", "104051.832500", "104053.832500", "104055.832500", "104057.832500", "104059.832500", "104101.832500", "104103.832500", "104105.832500", "104107.832500", "104109.832500", "104111.832500", "104113.832500", "104115.832500", "104117.832500", "104119.832500", "104121.832500", "104123.832500", "104125.832500", "104127.832500", "104129.832500", "104131.832500", "104133.832500", "104135.832500", "104137.832500", "104139.832500", "104141.832500", "104143.832500", "104145.832500", "104147.832500", "104149.832500", "104151.832500", "104153.832500", "104155.832500", "104157.832500", "104159.832500", "104201.832500", "104203.832500", "104205.832500", "104207.832500", "104209.832500", "104211.832500", "104213.832500", "104215.832500", "104217.832500", "104219.832500", "104221.832500", "104223.832500", "104225.832500", "104227.832500", "104229.832500", "104231.832500", "104233.832500", "104235.832500", "104237.832500", "104239.832500", "104241.832500", "104243.832500", "104245.832500", "104247.832500", "104249.832500", "104251.832500", "104253.832500", "104255.832500", "104257.832500", "104259.832500", "104301.832500", "104303.832500", "104305.832500", "104307.832500", "104309.832500", "104311.832500", "104313.832500", "104315.832500", "104317.832500", "104319.832500", "104321.832500", "104323.832500", "104325.832500", "104327.832500", "104329.832500", "104331.832500", "104333.832500", "104335.832500", "104337.832500", "104339.832500", "104341.832500", "104343.832500", "104345.832500", "104347.832500", "104349.832500", "104351.832500", "104353.832500", "104355.832500", "104357.832500", "104359.832500", "104401.832500"],
      "ContentTime": ["103818.038000", "103818.042000", "103818.044000", "103818.047000", "103818.049000", "103818.052000", "103818.054000", "103818.057000", "103818.059000", "103818.062000", "103818.064000", "103818.067000", "103818.069000", "103818.072000", "103818.074000", "103818.077000", "103818.080000", "103818.082000", "103818.085000", "103818.087000", "103818.090000", "103818.092000", "103818.095000", "103818.097000", "103818.100000", "103818.102000", "103818.105000", "103858.034000", "103858.037000", "103858.040000", "103858.042000", "103858.045000", "103858.047000", "103858.050000", "103858.052000", "103858.055000", "103858.057000", "103858.060000", "103858.063000", "103858.065000", "103858.067000", "103858.070000", "103858.072000", "103858.075000", "103858.078000", "103858.080000", "103858.083000", "103938.034000", "103938.037000", "103938.040000", "103938.042000", "103938.045000", "103938.047000", "103938.050000", "103938.052000", "103938.055000", "103938.057000", "103938.060000", "103938.063000", "103938.065000", "103938.068000", "103938.070000", "103938.073000", "103938.075000", "103938.078000", "103938.080000", "103938.083000", "104018.033000", "104018.036000", "104018.039000", "104018.041000", "104018.044000", "104018.046000", "104018.049000", "104018.051000", "104018.054000", "104018.056000", "104018.059000", "104018.061000", "104018.064000", "104018.066000", "104018.077000", "104018.080000", "104018.083000", "104018.085000", "104018.088000", "104018.090000", "104058.035000", "104058.037000", "104058.040000", "104058.042000", "104058.045000", "104058.047000", "104058.050000", "104058.053000", "104058.055000", "104058.058000", "104058.060000", "104058.063000", "104058.065000", "104058.068000", "104058.070000", "104058.073000", "104058.075000", "104058.078000", "104058.080000", "104058.083000", "104138.034000", "104138.037000", "104138.040000", "104138.042000", "104138.045000", "104138.047000", "104138.050000", "104138.052000", "104138.055000", "104138.058000", "104138.060000", "104138.063000", "104138.065000", "104138.068000", "104138.070000", "104138.073000", "104138.075000", "104138.078000", "104138.080000", "104138.083000", "104218.034000", "104218.036000", "104218.039000", "104218.041000", "104218.044000", "104218.046000", "104218.049000", "104218.051000", "104218.054000", "104218.057000", "104218.059000", "104218.062000", "104218.064000", "104218.067000", "104218.069000", "104218.072000", "104218.074000", "104218.077000", "104218.079000", "104218.082000", "104258.033000", "104258.036000", "104258.039000", "104258.041000", "104258.044000", "104258.046000", "104258.049000", "104258.051000", "104258.054000", "104258.056000", "104258.059000", "104258.061000", "104258.064000", "104258.066000", "104258.069000", "104258.071000", "104258.074000", "104258.076000", "104258.079000", "104258.081000", "104338.034000", "104338.037000", "104338.040000", "104338.042000", "104338.045000", "104338.047000", "104338.050000", "104338.052000", "104338.055000", "104338.057000", "104338.060000", "104338.063000", "104338.065000", "104338.068000", "104338.070000", "104338.073000", "104338.075000", "104338.078000", "104338.080000", "104338.083000", "104403.677000", "104403.680000", "104403.683000", "104403.685000", "104403.688000", "104403.691000", "104403.693000", "104403.696000", "104403.698000", "104403.701000", "104403.704000", "104403.713000", "104403.718000"],
      "InstanceCreationTime": ["103818.038000", "103818.042000", "103818.044000", "103818.047000", "103818.049000", "103818.052000", "103818.054000", "103818.057000", "103818.059000", "103818.062000", "103818.064000", "103818.067000", "103818.069000", "103818.072000", "103818.074000", "103818.077000", "103818.080000", "103818.082000", "103818.085000", "103818.087000", "103818.090000", "103818.092000", "103818.095000", "103818.097000", "103818.100000", "103818.102000", "103818.105000", "103858.034000", "103858.037000", "103858.040000", "103858.042000", "103858.045000", "103858.047000", "103858.050000", "103858.052000", "103858.055000", "103858.057000", "103858.060000", "103858.063000", "103858.065000", "103858.067000", "103858.070000", "103858.072000", "103858.075000", "103858.078000", "103858.080000", "103858.083000", "103938.034000", "103938.037000", "103938.040000", "103938.042000", "103938.045000", "103938.047000", "103938.050000", "103938.052000", "103938.055000", "103938.057000", "103938.060000", "103938.063000", "103938.065000", "103938.068000", "103938.070000", "103938.073000", "103938.075000", "103938.078000", "103938.080000", "103938.083000", "104018.033000", "104018.036000", "104018.039000", "104018.041000", "104018.044000", "104018.046000", "104018.049000", "104018.051000", "104018.054000", "104018.056000", "104018.059000", "104018.061000", "104018.064000", "104018.066000", "104018.077000", "104018.080000", "104018.083000", "104018.085000", "104018.088000", "104018.090000", "104058.035000", "104058.037000", "104058.040000", "104058.042000", "104058.045000", "104058.047000", "104058.050000", "104058.053000", "104058.055000", "104058.058000", "104058.060000", "104058.063000", "104058.065000", "104058.068000", "104058.070000", "104058.073000", "104058.075000", "104058.078000", "104058.080000", "104058.083000", "104138.034000", "104138.037000", "104138.040000", "104138.042000", "104138.045000", "104138.047000", "104138.050000", "104138.052000", "104138.055000", "104138.058000", "104138.060000", "104138.063000", "104138.065000", "104138.068000", "104138.070000", "104138.073000", "104138.075000", "104138.078000", "104138.080000", "104138.083000", "104218.034000", "104218.036000", "104218.039000", "104218.041000", "104218.044000", "104218.046000", "104218.049000", "104218.051000", "104218.054000", "104218.057000", "104218.059000", "104218.062000", "104218.064000", "104218.067000", "104218.069000", "104218.072000", "104218.074000", "104218.077000", "104218.079000", "104218.082000", "104258.033000", "104258.036000", "104258.039000", "104258.041000", "104258.044000", "104258.046000", "104258.049000", "104258.051000", "104258.054000", "104258.056000", "104258.059000", "104258.061000", "104258.064000", "104258.066000", "104258.069000", "104258.071000", "104258.074000", "104258.076000", "104258.079000", "104258.081000", "104338.034000", "104338.037000", "104338.040000", "104338.042000", "104338.045000", "104338.047000", "104338.050000", "104338.052000", "104338.055000", "104338.057000", "104338.060000", "104338.063000", "104338.065000", "104338.068000", "104338.070000", "104338.073000", "104338.075000", "104338.078000", "104338.080000", "104338.083000", "104403.677000", "104403.680000", "104403.683000", "104403.685000", "104403.688000", "104403.691000", "104403.693000", "104403.696000", "104403.698000", "104403.701000", "104403.704000", "104403.713000", "104403.718000"],
      "InstanceNumber": [1, 2, 3, 4, 5, 6, 7, 8, 9, 10, 11, 12, 13, 14, 15, 16, 17, 18, 19, 20, 21, 22, 23, 24, 25, 26, 27, 28, 29, 30, 31, 32, 33, 34, 35, 36, 37, 38, 39, 40, 41, 42, 43, 44, 45, 46, 47, 48, 49, 50, 51, 52, 53, 54, 55, 56, 57, 58, 59, 60, 61, 62, 63, 64, 65, 66, 67, 68, 69, 70, 71, 72, 73, 74, 75, 76, 77, 78, 79, 80, 81, 82, 83, 84, 85, 86, 87, 88, 89, 90, 91, 92, 93, 94, 95, 96, 97, 98, 99, 100, 101, 102, 103, 104, 105, 106, 107, 108, 109, 110, 111, 112, 113, 114, 115, 116, 117, 118, 119, 120, 121, 122, 123, 124, 125, 126, 127, 128, 129, 130, 131, 132, 133, 134, 135, 136, 137, 138, 139, 140, 141, 142, 143, 144, 145, 146, 147, 148, 149, 150, 151, 152, 153, 154, 155, 156, 157, 158, 159, 160, 161, 162, 163, 164, 165, 166, 167, 168, 169, 170, 171, 172, 173, 174, 175, 176, 177, 178, 179, 180, 181, 182, 183, 184, 185, 186, 187, 188, 189, 190, 191, 192, 193, 194, 195, 196, 197, 198, 199, 200],
      "LargestImagePixelValue": [1977, 1976, 1975, 1976, 1987, 1972, 1983, 1972, 1976, 1976, 1980, 1978, 1980, 1977, 1973, 1988, 1990, 1984, 1980, 1983, 1976, 1981, 1976, 1984, 1983, 1984, 1980, 1975, 1972, 1979, 1978, 1982, 1985, 1980, 1994, 1981, 1979, 1979, 1980, 1980, 1977, 1980, 1980, 1972, 1978, 1979, 1971, 1975, 1974, 1976, 1975, 1976, 1977, 1981, 1979, 1979, 1974, 1977, 1975, 1976, 1974, 1978, 1976, 1975, 1969, 1971, 1973, 1978, 1978, 1981, 1977, 1983, 1976, 1976, 1974, 1979, 1982, 1981, 1981, 1982, 1980, 1981, 1979, 1985, 1978, 1977, 1977, 1975, 1982, 1978, 1976, 1983, 1982, 1981, 1983, 1986, 1985, 1986, 1982, 1983, 1976, 1985, 1978, 1977, 1978, 1984, 1977, 1983, 1980, 1984, 1981, 1984, 1980, 1980, 1977, 1984, 1978, 1979, 1982, 1982, 1979, 1986, 1984, 1985, 1986, 1981, 1980, 1984, 1982, 1976, 1982, 1976, 1983, 1982, 1982, 1988, 1987, 1983, 1983, 1984, 1985, 1985, 1976, 1982, 1980, 1985, 1985, 1980, 1979, 1976, 1977, 1980, 1979, 1972, 1980, 1981, 1975, 1981, 1977, 1983, 1984, 1981, 1981, 1983, 1981, 1981, 1991, 1991, 1989, 1990, 1977, 1978, 1984, 1981, 1976, 1983, 1978, 1979, 1983, 1981, 1982, 1982, 1978, 1983, 1974, 1976, 1973, 1986, 1976, 1976, 1980, 1983, 1982, 1986, 1978, 1978, 1977, 1972, 1978, 1975],
      "WindowCenter": [985.0, 984.0, 985.0, 984.0, 984.0, 985.0, 985.0, 984.0, 984.0, 984.0, 984.0, 984.0, 985.0, 984.0, 984.0, 984.0, 985.0, 985.0, 985.0, 984.0, 985.0, 984.0, 985.0, 984.0, 985.0, 985.0, 984.0, 984.0, 985.0, 984.0, 984.0, 984.0, 984.0, 984.0, 985.0, 984.0, 985.0, 985.0, 984.0, 985.0, 984.0, 984.0, 985.0, 984.0, 984.0, 984.0, 984.0, 985.0, 984.0, 984.0, 984.0, 984.0, 984.0, 984.0, 984.0, 984.0, 985.0, 984.0, 984.0, 984.0, 984.0, 984.0, 984.0, 985.0, 984.0, 984.0, 984.0, 985.0, 984.0, 984.0, 984.0, 985.0, 985.0, 984.0, 984.0, 985.0, 984.0, 986.0, 985.0, 985.0, 985.0, 984.0, 984.0, 984.0, 984.0, 984.0, 985.0, 984.0, 984.0, 984.0, 984.0, 984.0, 984.0, 985.0, 984.0, 985.0, 985.0, 985.0, 984.0, 984.0, 984.0, 985.0, 984.0, 984.0, 984.0, 984.0, 985.0, 984.0, 984.0, 984.0, 985.0, 984.0, 985.0, 985.0, 984.0, 984.0, 984.0, 984.0, 984.0, 985.0, 985.0, 984.0, 984.0, 984.0, 985.0, 984.0, 984.0, 984.0, 984.0, 984.0, 984.0, 984.0, 984.0, 984.0, 984.0, 984.0, 984.0, 984.0, 984.0, 984.0, 984.0, 984.0, 984.0, 984.0, 984.0, 985.0, 984.0, 984.0, 984.0, 984.0, 984.0, 985.0, 984.0, 985.0, 984.0, 985.0, 985.0, 984.0, 985.0, 985.0, 984.0, 984.0, 984.0, 984.0, 984.0, 984.0, 984.0, 984.0, 984.0, 984.0, 984.0, 984.0, 984.0, 984.0, 984.0, 985.0, 984.0, 985.0, 985.0, 984.0, 984.0, 984.0, 984.0, 984.0, 984.0, 985.0, 984.0, 984.0, 984.0, 984.0, 985.0, 985.0, 984.0, 985.0, 984.0, 984.0, 985.0, 984.0, 984.0, 985.0],
      "WindowWidth": [2166.0, 2164.0, 2165.0, 2164.0, 2165.0, 2166.0, 2165.0, 2165.0, 2165.0, 2165.0, 2165.0, 2165.0, 2166.0, 2165.0, 2165.0, 2165.0, 2165.0, 2166.0, 2166.0, 2165.0, 2166.0, 2165.0, 2166.0, 2165.0, 2166.0, 2166.0, 2165.0, 2165.0, 2166.0, 2165.0, 2165.0, 2165.0, 2165.0, 2166.0, 2166.0, 2165.0, 2166.0, 2166.0, 2165.0, 2166.0, 2165.0, 2165.0, 2166.0, 2165.0, 2165.0, 2165.0, 2165.0, 2166.0, 2165.0, 2165.0, 2165.0, 2165.0, 2165.0, 2165.0, 2165.0, 2165.0, 2165.0, 2165.0, 2165.0, 2165.0, 2164.0, 2165.0, 2165.0, 2165.0, 2164.0, 2164.0, 2165.0, 2165.0, 2165.0, 2165.0, 2164.0, 2165.0, 2165.0, 2165.0, 2165.0, 2165.0, 2165.0, 2166.0, 2165.0, 2165.0, 2165.0, 2164.0, 2165.0, 2165.0, 2165.0, 2165.0, 2165.0, 2165.0, 2165.0, 2165.0, 2165.0, 2164.0, 2165.0, 2165.0, 2165.0, 2165.0, 2165.0, 2165.0, 2165.0, 2165.0, 2165.0, 2165.0, 2165.0, 2165.0, 2165.0, 2164.0, 2165.0, 2165.0, 2165.0, 2165.0, 2165.0, 2165.0, 2165.0, 2165.0, 2165.0, 2165.0, 2165.0, 2164.0, 2165.0, 2165.0, 2165.0, 2165.0, 2164.0, 2164.0, 2165.0, 2165.0, 2164.0, 2164.0, 2164.0, 2165.0, 2164.0, 2165.0, 2165.0, 2165.0, 2165.0, 2165.0, 2165.0, 2164.0, 2164.0, 2164.0, 2165.0, 2165.0, 2164.0, 2164.0, 2165.0, 2165.0, 2164.0, 2164.0, 2164.0, 2164.0, 2165.0, 2165.0, 2164.0, 2165.0, 2165.0, 2165.0, 2165.0, 2164.0, 2165.0, 2165.0, 2164.0, 2164.0, 2164.0, 2164.0, 2164.0, 2164.0, 2165.0, 2164.0, 2165.0, 2164.0, 2164.0, 2164.0, 2164.0, 2164.0, 2164.0, 2165.0, 2164.0, 2165.0, 2165.0, 2164.0, 2165.0, 2165.0, 2165.0, 2164.0, 2164.0, 2165.0, 2165.0, 2164.0, 2164.0, 2165.0, 2165.0, 2165.0, 2164.0, 2165.0, 2164.0, 2164.0, 2165.0, 2164.0, 2164.0, 2165.0]
    },
    "slices": {}
  }
}