{
  "AcquisitionMatrixPE": 80,
  "AcquisitionNumber": 1,
  "AcquisitionTime": "10:51:8.510000",
  "BandwidthPerPixelPhaseEncode": 25,
  "BaseResolution": 80,
  "BodyPartExamined": "BRAIN",
  "CoilCombinationMethod": "Sum of Squares",
  "ConsistencyInfo": "N4_VE11C_LATEST_20160120",
  "ConversionSoftware": "dcm2niix",
  "ConversionSoftwareVersion": "v1.0.20220720",
  "DerivedVendorReportedEchoSpacing": 0.0005,
  "DeviceSerialNumber": "66112",
  "DwellTime": 2.7e-06,
  "EchoTime": 0.03,
  "EchoTrainLength": 80,
  "EffectiveEchoSpacing": 0.0005,
  "FlipAngle": 77,
  "HeudiconvVersion": "0.13.1",
  "ImageOrientationPatientDICOM": [0.999974, 0.00584577, 0.0041027, -0.00680668, 0.954007, 0.299706],
  "ImageOrientationText": "Tra>Cor(17.4)>Sag(0.1)",
  "ImageType": [
    "ORIGINAL",
    "PRIMARY",
    "M",
    "ND",
    "NORM",
    "MOSAIC"
],
  "ImagingFrequency": 123.252,
  "InPlanePhaseEncodingDirectionDICOM": "COL",
  "InstitutionAddress": "Maynard 3,Hanover,NH,US,03755",
  "InstitutionName": "Dartmouth College - PBS",
  "InstitutionalDepartmentName": "Department",
  "MRAcquisitionType": "2D",
  "MagneticFieldStrength": 3,
  "Manufacturer": "Siemens",
  "ManufacturersModelName": "Prisma",
  "MatrixCoilMode": "SENSE",
  "Modality": "MR",
  "NonlinearGradientCorrection": false,
  "PartialFourier": 1,
  "PatientPosition": "HFS",
  "PercentPhaseFOV": 100,
  "PercentSampling": 100,
  "PhaseEncodingDirection": "j-",
  "PhaseEncodingSteps": 80,
  "PhaseResolution": 1,
  "PixelBandwidth": 2315,
  "ProcedureStepDescription": "dbic^QA",
  "ProtocolName": "func-bold_fa-77",
  "PulseSequenceDetails": "%SiemensSeq%\\ep2d_bold",
  "ReceiveCoilActiveElements": "HEA;HEP",
  "ReceiveCoilName": "Head_32",
  "ReconMatrixPE": 80,
  "RepetitionTime": 2,
  "SAR": 0.0376143,
  "ScanOptions": "FS",
  "ScanningSequence": "EP",
  "SequenceName": "*epfid2d1_80",
  "SequenceVariant": "SK",
  "SeriesDescription": "func-bold_fa-77",
  "SeriesNumber": 8,
  "ShimSetting": [4151, -7703, -7524, 463, -139, -263, -82, 143],
  "SliceThickness": 3.5,
  "SliceTiming": [0.99, 0, 1.0575, 0.0675, 1.1225, 0.1325, 1.19, 0.2, 1.255, 0.265, 1.32, 0.33, 1.3875, 0.3975, 1.4525, 0.4625, 1.52, 0.53, 1.585, 0.595, 1.65, 0.66, 1.7175, 0.7275, 1.7825, 0.7925, 1.8475, 0.86, 1.915, 0.925],
  "SoftwareVersions": "syngo MR E11",
  "SpacingBetweenSlices": 3.99,
  "StationName": "AWP66112",
  "TotalReadoutTime": 0.0395,
  "TxRefAmp": 227.509,
  "dcmmeta_affine": [
    [-2.9999234676361084, -0.020420044660568237, 0.008626356720924377, 122.59497833251953],
    [-0.017537301406264305, 2.8620219230651855, 1.1959075927734375, -117.75886535644531],
    [0.012308098375797272, -0.8991178274154663, 3.806550979614258, -45.371376037597656],
    [0.0, 0.0, 0.0, 1.0]
],
  "dcmmeta_reorient_transform": [
    [0.0, -1.0, 0.0, 79.0],
    [1.0, 0.0, 0.0, 0.0],
    [0.0, 0.0, 1.0, 0.0],
    [0.0, 0.0, 0.0, 1.0]
],
  "dcmmeta_shape": [80, 80, 30, 200],
  "dcmmeta_slice_dim": 2,
  "dcmmeta_version": 0.6,
  "global": {
    "const": {
      "AccessionNumber": "qa",
      "AcquisitionMatrix": [80, 0, 0, 80],
      "AngioFlag": "N",
      "BitsAllocated": 16,
      "BitsStored": 12,
      "BodyPartExamined": "BRAIN",
      "Columns": 480,
      "EchoNumbers": 1,
      "EchoTime": 30.0,
      "EchoTrainLength": 80,
      "FlipAngle": 77.0,
      "HighBit": 11,
      "ImageOrientationPatient": [0.99997449710714, 0.00584576711046, 0.00410269938077, -0.0068066817557, 0.95400734483849, 0.29970594768488],
      "ImagePositionPatient": [-716.88248294163, -684.25274508933, -298.68687462995],
      "ImageType": [
        "ORIGINAL",
        "PRIMARY",
        "M",
        "ND",
        "NORM",
        "MOSAIC"
],
      "ImagedNucleus": "1H",
      "ImagingFrequency": 123.252343,
      "InPlanePhaseEncodingDirection": "COL",
      "MRAcquisitionType": "2D",
      "MagneticFieldStrength": 3.0,
      "Manufacturer": "SIEMENS",
      "ManufacturerModelName": "Prisma",
      "Modality": "MR",
      "NumberOfAverages": 1.0,
      "NumberOfPhaseEncodingSteps": 80,
      "PercentPhaseFieldOfView": 100.0,
      "PercentSampling": 100.0,
      "PerformedProcedureStepStartTime": "103304.974000",
      "PhotometricInterpretation": "MONOCHROME2",
      "PixelBandwidth": 2315.0,
      "PixelRepresentation": 0,
      "PixelSpacing": [3.0, 3.0],
      "ProtocolName": "func-bold_fa-77",
      "RepetitionTime": 2000.0,
      "Rows": 480,
      "SAR": 0.03761431915828,
      "SamplesPerPixel": 1,
      "ScanOptions": "FS",
      "ScanningSequence": "EP",
      "SequenceName": "*epfid2d1_80",
      "SequenceVariant": "SK",
      "SeriesDescription": "func-bold_fa-77",
      "SeriesNumber": 8,
      "SeriesTime": "105157.964000",
      "SliceLocation": -78.315698540638,
      "SliceThickness": 3.5,
      "SmallestImagePixelValue": 0,
      "SoftwareVersions": "syngo MR E11",
      "SpacingBetweenSlices": 3.9899998621473,
      "SpecificCharacterSet": "ISO_IR 100",
      "StudyID": "10",
      "StudyTime": "103304.917000",
      "TransmitCoilName": "Body",
      "VariableFlipAngleFlag": "N",
      "WindowCenterWidthExplanation": "Algo1",
      "dBdt": 0.0},
    "slices": {}
  },
  "time": {
    "samples": {
      "AcquisitionNumber": [1, 2, 3, 4, 5, 6, 7, 8, 9, 10, 11, 12, 13, 14, 15, 16, 17, 18, 19, 20, 21, 22, 23, 24, 25, 26, 27, 28, 29, 30, 31, 32, 33, 34, 35, 36, 37, 38, 39, 40, 41, 42, 43, 44, 45, 46, 47, 48, 49, 50, 51, 52, 53, 54, 55, 56, 57, 58, 59, 60, 61, 62, 63, 64, 65, 66, 67, 68, 69, 70, 71, 72, 73, 74, 75, 76, 77, 78, 79, 80, 81, 82, 83, 84, 85, 86, 87, 88, 89, 90, 91, 92, 93, 94, 95, 96, 97, 98, 99, 100, 101, 102, 103, 104, 105, 106, 107, 108, 109, 110, 111, 112, 113, 114, 115, 116, 117, 118, 119, 120, 121, 122, 123, 124, 125, 126, 127, 128, 129, 130, 131, 132, 133, 134, 135, 136, 137, 138, 139, 140, 141, 142, 143, 144, 145, 146, 147, 148, 149, 150, 151, 152, 153, 154, 155, 156, 157, 158, 159, 160, 161, 162, 163, 164, 165, 166, 167, 168, 169, 170, 171, 172, 173, 174, 175, 176, 177, 178, 179, 180, 181, 182, 183, 184, 185, 186, 187, 188, 189, 190, 191, 192, 193, 194, 195, 196, 197, 198, 199, 200],
      "AcquisitionTime": ["105108.510000", "105110.510000", "105112.510000", "105114.510000", "105116.510000", "105118.510000", "105120.510000", "105122.510000", "105124.510000", "105126.510000", "105128.510000", "105130.510000", "105132.510000", "105134.510000", "105136.510000", "105138.510000", "105140.510000", "105142.510000", "105144.510000", "105146.510000", "105148.510000", "105150.510000", "105152.510000", "105154.510000", "105156.510000", "105158.510000", "105200.510000", "105202.510000", "105204.510000", "105206.510000", "105208.510000", "105210.510000", "105212.510000", "105214.510000", "105216.510000", "105218.510000", "105220.510000", "105222.510000", "105224.510000", "105226.510000", "105228.510000", "105230.510000", "105232.510000", "105234.510000", "105236.510000", "105238.510000", "105240.510000", "105242.510000", "105244.510000", "105246.510000", "105248.510000", "105250.510000", "105252.510000", "105254.510000", "105256.510000", "105258.510000", "105300.510000", "105302.510000", "105304.510000", "105306.510000", "105308.510000", "105310.510000", "105312.510000", "105314.510000", "105316.510000", "105318.510000", "105320.510000", "105322.510000", "105324.510000", "105326.510000", "105328.510000", "105330.510000", "105332.510000", "105334.510000", "105336.510000", "105338.510000", "105340.510000", "105342.510000", "105344.510000", "105346.510000", "105348.510000", "105350.510000", "105352.510000", "105354.510000", "105356.510000", "105358.510000", "105400.510000", "105402.510000", "105404.510000", "105406.510000", "105408.510000", "105410.510000", "105412.510000", "105414.510000", "105416.510000", "105418.510000", "105420.510000", "105422.510000", "105424.510000", "105426.510000", "105428.510000", "105430.510000", "105432.510000", "105434.510000", "105436.510000", "105438.510000", "105440.510000", "105442.510000", "105444.510000", "105446.510000", "105448.510000", "105450.510000", "105452.510000", "105454.510000", "105456.510000", "105458.510000", "105500.510000", "105502.510000", "105504.510000", "105506.510000", "105508.510000", "105510.510000", "105512.510000", "105514.510000", "105516.510000", "105518.510000", "105520.510000", "105522.510000", "105524.510000", "105526.510000", "105528.510000", "105530.510000", "105532.510000", "105534.510000", "105536.510000", "105538.510000", "105540.510000", "105542.510000", "105544.510000", "105546.510000", "105548.510000", "105550.510000", "105552.510000", "105554.510000", "105556.510000", "105558.510000", "105600.510000", "105602.510000", "105604.510000", "105606.510000", "105608.510000", "105610.510000", "105612.510000", "105614.510000", "105616.510000", "105618.510000", "105620.510000", "105622.510000", "105624.510000", "105626.510000", "105628.510000", "105630.510000", "105632.510000", "105634.510000", "105636.510000", "105638.510000", "105640.510000", "105642.510000", "105644.510000", "105646.510000", "105648.510000", "105650.510000", "105652.510000", "105654.510000", "105656.510000", "105658.510000", "105700.510000", "105702.510000", "105704.510000", "105706.510000", "105708.510000", "105710.510000", "105712.510000", "105714.510000", "105716.510000", "105718.510000", "105720.510000", "105722.510000", "105724.510000", "105726.510000", "105728.510000", "105730.510000", "105732.510000", "105734.510000", "105736.510000", "105738.510000", "105740.510000", "105742.510000", "105744.510000", "105746.510000"],
      "ContentTime": ["105157.968000", "105157.972000", "105157.975000", "105157.977000", "105157.980000", "105157.982000", "105157.988000", "105157.990000", "105157.993000", "105157.995000", "105157.998000", "105158.001000", "105158.004000", "105158.006000", "105158.009000", "105158.011000", "105158.014000", "105158.017000", "105158.019000", "105158.022000", "105158.024000", "105158.027000", "105158.029000", "105158.032000", "105158.034000", "105237.963000", "105237.966000", "105237.969000", "105237.971000", "105237.974000", "105237.976000", "105237.979000", "105237.981000", "105237.984000", "105237.986000", "105237.989000", "105237.991000", "105237.994000", "105237.996000", "105238.000000", "105238.002000", "105238.005000", "105238.008000", "105238.010000", "105238.019000", "105317.964000", "105317.966000", "105317.969000", "105317.971000", "105317.974000", "105317.976000", "105317.979000", "105317.981000", "105317.984000", "105317.986000", "105317.989000", "105317.991000", "105317.994000", "105317.996000", "105318.000000", "105318.002000", "105318.005000", "105318.007000", "105318.010000", "105318.012000", "105357.962000", "105357.965000", "105357.968000", "105357.970000", "105357.973000", "105357.975000", "105357.978000", "105357.980000", "105357.983000", "105357.985000", "105357.988000", "105357.990000", "105357.993000", "105357.995000", "105357.998000", "105358.001000", "105358.004000", "105358.006000", "105358.009000", "105358.011000", "105437.962000", "105437.965000", "105437.968000", "105437.970000", "105437.973000", "105437.975000", "105437.978000", "105437.980000", "105437.983000", "105437.985000", "105437.987000", "105437.990000", "105437.992000", "105437.995000", "105437.997000", "105438.001000", "105438.003000", "105438.006000", "105438.008000", "105438.011000", "105517.963000", "105517.966000", "105517.969000", "105517.971000", "105517.974000", "105517.976000", "105517.979000", "105517.981000", "105517.984000", "105517.986000", "105517.988000", "105517.991000", "105517.993000", "105517.996000", "105517.998000", "105518.002000", "105518.004000", "105518.007000", "105518.009000", "105518.012000", "105557.962000", "105557.965000", "105557.968000", "105557.970000", "105557.988000", "105557.991000", "105557.993000", "105557.996000", "105557.998000", "105558.002000", "105558.004000", "105558.007000", "105558.009000", "105558.012000", "105558.014000", "105558.017000", "105558.019000", "105558.022000", "105558.024000", "105558.027000", "105637.962000", "105637.965000", "105637.968000", "105637.970000", "105637.973000", "105637.975000", "105637.977000", "105637.980000", "105637.983000", "105637.985000", "105637.988000", "105637.990000", "105637.993000", "105637.995000", "105637.998000", "105638.001000", "105638.004000", "105638.006000", "105638.009000", "105638.011000", "105717.963000", "105717.966000", "105717.969000", "105717.971000", "105717.974000", "105717.976000", "105717.979000", "105717.982000", "105717.984000", "105717.986000", "105717.989000", "105717.991000", "105717.994000", "105717.996000", "105718.000000", "105718.002000", "105718.005000", "105718.007000", "105718.010000", "105718.012000", "105747.788000", "105747.791000", "105747.794000", "105747.796000", "105747.799000", "105747.801000", "105747.804000", "105747.806000", "105747.809000", "105747.811000", "105747.814000", "105747.816000", "105747.819000", "105747.825000", "105747.829000"],
      "InstanceCreationTime": ["105157.968000", "105157.972000", "105157.975000", "105157.977000", "105157.980000", "105157.982000", "105157.988000", "105157.990000", "105157.993000", "105157.995000", "105157.998000", "105158.001000", "105158.004000", "105158.006000", "105158.009000", "105158.011000", "105158.014000", "105158.017000", "105158.019000", "105158.022000", "105158.024000", "105158.027000", "105158.029000", "105158.032000", "105158.034000", "105237.963000", "105237.966000", "105237.969000", "105237.971000", "105237.974000", "105237.976000", "105237.979000", "105237.981000", "105237.984000", "105237.986000", "105237.989000", "105237.991000", "105237.994000", "105237.996000", "105238.000000", "105238.002000", "105238.005000", "105238.008000", "105238.010000", "105238.019000", "105317.964000", "105317.966000", "105317.969000", "105317.971000", "105317.974000", "105317.976000", "105317.979000", "105317.981000", "105317.984000", "105317.986000", "105317.989000", "105317.991000", "105317.994000", "105317.996000", "105318.000000", "105318.002000", "105318.005000", "105318.007000", "105318.010000", "105318.012000", "105357.962000", "105357.965000", "105357.968000", "105357.970000", "105357.973000", "105357.975000", "105357.978000", "105357.980000", "105357.983000", "105357.985000", "105357.988000", "105357.990000", "105357.993000", "105357.995000", "105357.998000", "105358.001000", "105358.004000", "105358.006000", "105358.009000", "105358.011000", "105437.962000", "105437.965000", "105437.968000", "105437.970000", "105437.973000", "105437.975000", "105437.978000", "105437.980000", "105437.983000", "105437.985000", "105437.987000", "105437.990000", "105437.992000", "105437.995000", "105437.997000", "105438.001000", "105438.003000", "105438.006000", "105438.008000", "105438.011000", "105517.963000", "105517.966000", "105517.969000", "105517.971000", "105517.974000", "105517.976000", "105517.979000", "105517.981000", "105517.984000", "105517.986000", "105517.988000", "105517.991000", "105517.993000", "105517.996000", "105517.998000", "105518.002000", "105518.004000", "105518.007000", "105518.009000", "105518.012000", "105557.962000", "105557.965000", "105557.968000", "105557.970000", "105557.988000", "105557.991000", "105557.993000", "105557.996000", "105557.998000", "105558.002000", "105558.004000", "105558.007000", "105558.009000", "105558.012000", "105558.014000", "105558.017000", "105558.019000", "105558.022000", "105558.024000", "105558.027000", "105637.962000", "105637.965000", "105637.968000", "105637.970000", "105637.973000", "105637.975000", "105637.977000", "105637.980000", "105637.983000", "105637.985000", "105637.988000", "105637.990000", "105637.993000", "105637.995000", "105637.998000", "105638.001000", "105638.004000", "105638.006000", "105638.009000", "105638.011000", "105717.963000", "105717.966000", "105717.969000", "105717.971000", "105717.974000", "105717.976000", "105717.979000", "105717.982000", "105717.984000", "105717.986000", "105717.989000", "105717.991000", "105717.994000", "105717.996000", "105718.000000", "105718.002000", "105718.005000", "105718.007000", "105718.010000", "105718.012000", "105747.788000", "105747.791000", "105747.794000", "105747.796000", "105747.799000", "105747.801000", "105747.804000", "105747.806000", "105747.809000", "105747.811000", "105747.814000", "105747.816000", "105747.819000", "105747.825000", "105747.829000"],
      "InstanceNumber": [1, 2, 3, 4, 5, 6, 7, 8, 9, 10, 11, 12, 13, 14, 15, 16, 17, 18, 19, 20, 21, 22, 23, 24, 25, 26, 27, 28, 29, 30, 31, 32, 33, 34, 35, 36, 37, 38, 39, 40, 41, 42, 43, 44, 45, 46, 47, 48, 49, 50, 51, 52, 53, 54, 55, 56, 57, 58, 59, 60, 61, 62, 63, 64, 65, 66, 67, 68, 69, 70, 71, 72, 73, 74, 75, 76, 77, 78, 79, 80, 81, 82, 83, 84, 85, 86, 87, 88, 89, 90, 91, 92, 93, 94, 95, 96, 97, 98, 99, 100, 101, 102, 103, 104, 105, 106, 107, 108, 109, 110, 111, 112, 113, 114, 115, 116, 117, 118, 119, 120, 121, 122, 123, 124, 125, 126, 127, 128, 129, 130, 131, 132, 133, 134, 135, 136, 137, 138, 139, 140, 141, 142, 143, 144, 145, 146, 147, 148, 149, 150, 151, 152, 153, 154, 155, 156, 157, 158, 159, 160, 161, 162, 163, 164, 165, 166, 167, 168, 169, 170, 171, 172, 173, 174, 175, 176, 177, 178, 179, 180, 181, 182, 183, 184, 185, 186, 187, 188, 189, 190, 191, 192, 193, 194, 195, 196, 197, 198, 199, 200],
      "LargestImagePixelValue": [1931, 1929, 1931, 1929, 1931, 1930, 1932, 1931, 1932, 1933, 1934, 1932, 1932, 1932, 1930, 1934, 1935, 1933, 1935, 1936, 1936, 1939, 1940, 1935, 1939, 1937, 1940, 1937, 1935, 1935, 1937, 1934, 1935, 1937, 1934, 1935, 1939, 1939, 1939, 1939, 1941, 1938, 1939, 1937, 1940, 1935, 1934, 1932, 1933, 1933, 1937, 1939, 1940, 1937, 1936, 1934, 1932, 1931, 1930, 1929, 1931, 1932, 1935, 1935, 1938, 1936, 1934, 1936, 1936, 1941, 1943, 1942, 1937, 1939, 1940, 1940, 1941, 1943, 1941, 1939, 1938, 1935, 1935, 1933, 1938, 1938, 1941, 1939, 1937, 1936, 1941, 1939, 1941, 1944, 1945, 1947, 1939, 1937, 1935, 1934, 1940, 1937, 1939, 1938, 1936, 1936, 1934, 1934, 1936, 1935, 1933, 1936, 1935, 1935, 1936, 1937, 1936, 1936, 1933, 1929, 1927, 1929, 1932, 1935, 1938, 1940, 1938, 1938, 1936, 1934, 1934, 1933, 1934, 1933, 1929, 1932, 1935, 1936, 1936, 1935, 1932, 1933, 1934, 1933, 1932, 1935, 1938, 1939, 1938, 1936, 1935, 1936, 1939, 1944, 1940, 1941, 1938, 1939, 1938, 1942, 1940, 1941, 1937, 1937, 1937, 1935, 1936, 1934, 1932, 1933, 1935, 1936, 1937, 1937, 1936, 1936, 1934, 1934, 1932, 1934, 1932, 1932, 1933, 1934, 1941, 1938, 1935, 1932, 1932, 1930, 1931, 1932, 1931, 1930, 1932, 1933, 1932, 1935, 1935, 1936],
      "WindowCenter": [972.0, 972.0, 971.0, 972.0, 971.0, 972.0, 972.0, 972.0, 972.0, 972.0, 972.0, 971.0, 972.0, 972.0, 972.0, 971.0, 972.0, 971.0, 972.0, 972.0, 971.0, 972.0, 971.0, 972.0, 972.0, 972.0, 971.0, 971.0, 971.0, 971.0, 971.0, 971.0, 971.0, 971.0, 971.0, 971.0, 971.0, 971.0, 970.0, 971.0, 970.0, 971.0, 970.0, 970.0, 971.0, 971.0, 971.0, 970.0, 971.0, 970.0, 970.0, 970.0, 971.0, 970.0, 971.0, 971.0, 970.0, 970.0, 971.0, 971.0, 971.0, 971.0, 971.0, 971.0, 971.0, 970.0, 971.0, 971.0, 970.0, 970.0, 971.0, 970.0, 971.0, 971.0, 971.0, 971.0, 971.0, 972.0, 971.0, 971.0, 971.0, 971.0, 971.0, 971.0, 970.0, 970.0, 971.0, 971.0, 971.0, 971.0, 970.0, 971.0, 971.0, 970.0, 971.0, 970.0, 971.0, 971.0, 971.0, 971.0, 971.0, 971.0, 971.0, 971.0, 970.0, 971.0, 971.0, 971.0, 971.0, 970.0, 971.0, 971.0, 971.0, 970.0, 971.0, 970.0, 970.0, 970.0, 970.0, 970.0, 970.0, 970.0, 970.0, 970.0, 970.0, 970.0, 970.0, 970.0, 970.0, 970.0, 970.0, 970.0, 969.0, 970.0, 970.0, 970.0, 970.0, 970.0, 969.0, 969.0, 970.0, 970.0, 970.0, 970.0, 970.0, 970.0, 969.0, 970.0, 969.0, 970.0, 970.0, 970.0, 970.0, 969.0, 971.0, 970.0, 970.0, 970.0, 970.0, 970.0, 970.0, 969.0, 969.0, 969.0, 970.0, 970.0, 970.0, 969.0, 969.0, 970.0, 970.0, 969.0, 970.0, 970.0, 970.0, 969.0, 970.0, 969.0, 969.0, 970.0, 969.0, 970.0, 970.0, 969.0, 969.0, 970.0, 970.0, 969.0, 970.0, 970.0, 970.0, 969.0, 970.0, 970.0, 970.0, 970.0, 970.0, 970.0, 970.0, 970.0],
      "WindowWidth": [2132.0, 2132.0, 2131.0, 2132.0, 2131.0, 2132.0, 2132.0, 2133.0, 2133.0, 2132.0, 2133.0, 2132.0, 2133.0, 2133.0, 2133.0, 2132.0, 2133.0, 2132.0, 2132.0, 2133.0, 2132.0, 2133.0, 2132.0, 2133.0, 2133.0, 2133.0, 2132.0, 2132.0, 2132.0, 2132.0, 2131.0, 2132.0, 2132.0, 2132.0, 2131.0, 2132.0, 2131.0, 2131.0, 2131.0, 2131.0, 2131.0, 2131.0, 2131.0, 2131.0, 2131.0, 2131.0, 2131.0, 2131.0, 2132.0, 2131.0, 2131.0, 2131.0, 2132.0, 2131.0, 2132.0, 2131.0, 2131.0, 2131.0, 2131.0, 2132.0, 2132.0, 2132.0, 2132.0, 2132.0, 2132.0, 2131.0, 2131.0, 2131.0, 2130.0, 2130.0, 2132.0, 2131.0, 2130.0, 2131.0, 2131.0, 2131.0, 2130.0, 2131.0, 2130.0, 2130.0, 2130.0, 2131.0, 2130.0, 2130.0, 2130.0, 2130.0, 2130.0, 2130.0, 2130.0, 2131.0, 2132.0, 2132.0, 2132.0, 2131.0, 2132.0, 2131.0, 2131.0, 2131.0, 2130.0, 2130.0, 2132.0, 2130.0, 2130.0, 2130.0, 2130.0, 2130.0, 2131.0, 2130.0, 2130.0, 2130.0, 2131.0, 2130.0, 2130.0, 2130.0, 2130.0, 2129.0, 2129.0, 2130.0, 2130.0, 2130.0, 2130.0, 2130.0, 2129.0, 2130.0, 2129.0, 2130.0, 2130.0, 2129.0, 2130.0, 2130.0, 2130.0, 2130.0, 2129.0, 2130.0, 2130.0, 2130.0, 2130.0, 2130.0, 2129.0, 2129.0, 2130.0, 2130.0, 2130.0, 2130.0, 2130.0, 2130.0, 2129.0, 2130.0, 2129.0, 2130.0, 2130.0, 2130.0, 2129.0, 2129.0, 2130.0, 2130.0, 2130.0, 2130.0, 2130.0, 2130.0, 2130.0, 2129.0, 2129.0, 2129.0, 2130.0, 2130.0, 2130.0, 2129.0, 2129.0, 2130.0, 2130.0, 2129.0, 2129.0, 2130.0, 2130.0, 2129.0, 2130.0, 2128.0, 2129.0, 2130.0, 2129.0, 2130.0, 2130.0, 2128.0, 2128.0, 2129.0, 2129.0, 2128.0, 2129.0, 2129.0, 2129.0, 2129.0, 2129.0, 2129.0, 2129.0, 2129.0, 2129.0, 2129.0, 2129.0, 2129.0]
    },
    "slices": {}
  }
}