{
  "AcquisitionMatrixPE": 80,
  "AcquisitionNumber": 1,
  "AcquisitionTime": "10:57:54.497500",
  "BandwidthPerPixelPhaseEncode": 25,
  "BaseResolution": 80,
  "BodyPartExamined": "BRAIN",
  "CoilCombinationMethod": "Sum of Squares",
  "ConsistencyInfo": "N4_VE11C_LATEST_20160120",
  "ConversionSoftware": "dcm2niix",
  "ConversionSoftwareVersion": "v1.0.20220720",
  "DerivedVendorReportedEchoSpacing": 0.0005,
  "DeviceSerialNumber": "66112",
  "DwellTime": 2.7e-06,
  "EchoTime": 0.03,
  "EchoTrainLength": 80,
  "EffectiveEchoSpacing": 0.0005,
  "FlipAngle": 10,
  "HeudiconvVersion": "0.13.1",
  "ImageOrientationPatientDICOM": [0.999974, 0.00584577, 0.0041027, -0.00680668, 0.954007, 0.299706],
  "ImageOrientationText": "Tra>Cor(17.4)>Sag(0.1)",
  "ImageType": [
    "ORIGINAL",
    "PRIMARY",
    "M",
    "ND",
    "NORM",
    "MOSAIC"
],
  "ImagingFrequency": 123.252,
  "InPlanePhaseEncodingDirectionDICOM": "COL",
  "InstitutionAddress": "Maynard 3,Hanover,NH,US,03755",
  "InstitutionName": "Dartmouth College - PBS",
  "InstitutionalDepartmentName": "Department",
  "MRAcquisitionType": "2D",
  "MagneticFieldStrength": 3,
  "Manufacturer": "Siemens",
  "ManufacturersModelName": "Prisma",
  "MatrixCoilMode": "SENSE",
  "Modality": "MR",
  "NonlinearGradientCorrection": false,
  "PartialFourier": 1,
  "PatientPosition": "HFS",
  "PercentPhaseFOV": 100,
  "PercentSampling": 100,
  "PhaseEncodingDirection": "j-",
  "PhaseEncodingSteps": 80,
  "PhaseResolution": 1,
  "PixelBandwidth": 2315,
  "ProcedureStepDescription": "dbic^QA",
  "ProtocolName": "func-bold_fa-10",
  "PulseSequenceDetails": "%SiemensSeq%\\ep2d_bold",
  "ReceiveCoilActiveElements": "HEA;HEP",
  "ReceiveCoilName": "Head_32",
  "ReconMatrixPE": 80,
  "RepetitionTime": 2,
  "SAR": 0.01009,
  "ScanOptions": "FS",
  "ScanningSequence": "EP",
  "SequenceName": "*epfid2d1_80",
  "SequenceVariant": "SK",
  "SeriesDescription": "func-bold_fa-10",
  "SeriesNumber": 10,
  "ShimSetting": [4151, -7703, -7524, 463, -139, -263, -82, 143],
  "SliceThickness": 3.5,
  "SliceTiming": [0.9875, 0, 1.055, 0.065, 1.12, 0.13, 1.1875, 0.1975, 1.2525, 0.2625, 1.3175, 0.33, 1.385, 0.395, 1.45, 0.46, 1.5175, 0.5275, 1.5825, 0.5925, 1.6475, 0.66, 1.715, 0.725, 1.78, 0.79, 1.8475, 0.8575, 1.9125, 0.9225],
  "SoftwareVersions": "syngo MR E11",
  "SpacingBetweenSlices": 3.99,
  "StationName": "AWP66112",
  "TotalReadoutTime": 0.0395,
  "TxRefAmp": 227.509,
  "dcmmeta_affine": [
    [-2.9999234676361084, -0.020420044660568237, 0.008626356720924377, 122.59497833251953],
    [-0.017537301406264305, 2.8620219230651855, 1.1959075927734375, -117.75886535644531],
    [0.012308098375797272, -0.8991178274154663, 3.806550979614258, -45.371376037597656],
    [0.0, 0.0, 0.0, 1.0]
],
  "dcmmeta_reorient_transform": [
    [0.0, -1.0, 0.0, 79.0],
    [1.0, 0.0, 0.0, 0.0],
    [0.0, 0.0, 1.0, 0.0],
    [0.0, 0.0, 0.0, 1.0]
],
  "dcmmeta_shape": [80, 80, 30, 200],
  "dcmmeta_slice_dim": 2,
  "dcmmeta_version": 0.6,
  "global": {
    "const": {
      "AccessionNumber": "qa",
      "AcquisitionMatrix": [80, 0, 0, 80],
      "AngioFlag": "N",
      "BitsAllocated": 16,
      "BitsStored": 12,
      "BodyPartExamined": "BRAIN",
      "Columns": 480,
      "EchoNumbers": 1,
      "EchoTime": 30.0,
      "EchoTrainLength": 80,
      "FlipAngle": 10.0,
      "HighBit": 11,
      "ImageOrientationPatient": [0.99997449710714, 0.00584576711046, 0.00410269938077, -0.0068066817557, 0.95400734483849, 0.29970594768488],
      "ImagePositionPatient": [-716.88248294163, -684.25274508933, -298.68687462995],
      "ImageType": [
        "ORIGINAL",
        "PRIMARY",
        "M",
        "ND",
        "NORM",
        "MOSAIC"
],
      "ImagedNucleus": "1H",
      "ImagingFrequency": 123.252349,
      "InPlanePhaseEncodingDirection": "COL",
      "MRAcquisitionType": "2D",
      "MagneticFieldStrength": 3.0,
      "Manufacturer": "SIEMENS",
      "ManufacturerModelName": "Prisma",
      "Modality": "MR",
      "NumberOfAverages": 1.0,
      "NumberOfPhaseEncodingSteps": 80,
      "PercentPhaseFieldOfView": 100.0,
      "PercentSampling": 100.0,
      "PerformedProcedureStepStartTime": "103304.974000",
      "PhotometricInterpretation": "MONOCHROME2",
      "PixelBandwidth": 2315.0,
      "PixelRepresentation": 0,
      "PixelSpacing": [3.0, 3.0],
      "ProtocolName": "func-bold_fa-10",
      "RepetitionTime": 2000.0,
      "Rows": 480,
      "SAR": 0.01009000744931,
      "SamplesPerPixel": 1,
      "ScanOptions": "FS",
      "ScanningSequence": "EP",
      "SequenceName": "*epfid2d1_80",
      "SequenceVariant": "SK",
      "SeriesDescription": "func-bold_fa-10",
      "SeriesNumber": 10,
      "SeriesTime": "105838.035000",
      "SliceLocation": -78.315698540638,
      "SliceThickness": 3.5,
      "SmallestImagePixelValue": 0,
      "SoftwareVersions": "syngo MR E11",
      "SpacingBetweenSlices": 3.9899998621473,
      "SpecificCharacterSet": "ISO_IR 100",
      "StudyID": "10",
      "StudyTime": "103304.917000",
      "TransmitCoilName": "Body",
      "VariableFlipAngleFlag": "N",
      "WindowCenterWidthExplanation": "Algo1",
      "dBdt": 0.0},
    "slices": {}
  },
  "time": {
    "samples": {
      "AcquisitionNumber": [1, 2, 3, 4, 5, 6, 7, 8, 9, 10, 11, 12, 13, 14, 15, 16, 17, 18, 19, 20, 21, 22, 23, 24, 25, 26, 27, 28, 29, 30, 31, 32, 33, 34, 35, 36, 37, 38, 39, 40, 41, 42, 43, 44, 45, 46, 47, 48, 49, 50, 51, 52, 53, 54, 55, 56, 57, 58, 59, 60, 61, 62, 63, 64, 65, 66, 67, 68, 69, 70, 71, 72, 73, 74, 75, 76, 77, 78, 79, 80, 81, 82, 83, 84, 85, 86, 87, 88, 89, 90, 91, 92, 93, 94, 95, 96, 97, 98, 99, 100, 101, 102, 103, 104, 105, 106, 107, 108, 109, 110, 111, 112, 113, 114, 115, 116, 117, 118, 119, 120, 121, 122, 123, 124, 125, 126, 127, 128, 129, 130, 131, 132, 133, 134, 135, 136, 137, 138, 139, 140, 141, 142, 143, 144, 145, 146, 147, 148, 149, 150, 151, 152, 153, 154, 155, 156, 157, 158, 159, 160, 161, 162, 163, 164, 165, 166, 167, 168, 169, 170, 171, 172, 173, 174, 175, 176, 177, 178, 179, 180, 181, 182, 183, 184, 185, 186, 187, 188, 189, 190, 191, 192, 193, 194, 195, 196, 197, 198, 199, 200],
      "AcquisitionTime": ["105754.497500", "105756.497500", "105758.497500", "105800.497500", "105802.497500", "105804.497500", "105806.497500", "105808.497500", "105810.497500", "105812.497500", "105814.497500", "105816.497500", "105818.497500", "105820.497500", "105822.497500", "105824.497500", "105826.497500", "105828.497500", "105830.497500", "105832.497500", "105834.497500", "105836.497500", "105838.497500", "105840.497500", "105842.497500", "105844.497500", "105846.497500", "105848.497500", "105850.497500", "105852.497500", "105854.497500", "105856.497500", "105858.497500", "105900.497500", "105902.497500", "105904.497500", "105906.497500", "105908.497500", "105910.497500", "105912.497500", "105914.497500", "105916.497500", "105918.497500", "105920.497500", "105922.497500", "105924.497500", "105926.497500", "105928.497500", "105930.497500", "105932.497500", "105934.497500", "105936.497500", "105938.497500", "105940.497500", "105942.497500", "105944.497500", "105946.497500", "105948.497500", "105950.497500", "105952.497500", "105954.497500", "105956.497500", "105958.497500", "110000.497500", "110002.497500", "110004.497500", "110006.497500", "110008.497500", "110010.497500", "110012.497500", "110014.497500", "110016.497500", "110018.497500", "110020.497500", "110022.497500", "110024.497500", "110026.497500", "110028.497500", "110030.497500", "110032.497500", "110034.497500", "110036.497500", "110038.497500", "110040.497500", "110042.497500", "110044.497500", "110046.497500", "110048.497500", "110050.497500", "110052.497500", "110054.497500", "110056.497500", "110058.497500", "110100.497500", "110102.497500", "110104.497500", "110106.497500", "110108.497500", "110110.497500", "110112.497500", "110114.497500", "110116.497500", "110118.497500", "110120.497500", "110122.497500", "110124.497500", "110126.497500", "110128.497500", "110130.497500", "110132.497500", "110134.497500", "110136.497500", "110138.497500", "110140.497500", "110142.497500", "110144.497500", "110146.497500", "110148.497500", "110150.497500", "110152.497500", "110154.497500", "110156.497500", "110158.497500", "110200.497500", "110202.497500", "110204.497500", "110206.497500", "110208.497500", "110210.497500", "110212.497500", "110214.497500", "110216.497500", "110218.497500", "110220.497500", "110222.497500", "110224.497500", "110226.497500", "110228.497500", "110230.497500", "110232.497500", "110234.497500", "110236.497500", "110238.497500", "110240.497500", "110242.497500", "110244.497500", "110246.497500", "110248.497500", "110250.497500", "110252.497500", "110254.497500", "110256.497500", "110258.497500", "110300.497500", "110302.497500", "110304.497500", "110306.497500", "110308.497500", "110310.497500", "110312.497500", "110314.497500", "110316.497500", "110318.497500", "110320.497500", "110322.497500", "110324.497500", "110326.497500", "110328.497500", "110330.497500", "110332.497500", "110334.497500", "110336.497500", "110338.497500", "110340.497500", "110342.497500", "110344.497500", "110346.497500", "110348.497500", "110350.497500", "110352.497500", "110354.497500", "110356.497500", "110358.497500", "110400.497500", "110402.497500", "110404.497500", "110406.497500", "110408.497500", "110410.497500", "110412.497500", "110414.497500", "110416.497500", "110418.497500", "110420.497500", "110422.497500", "110424.497500", "110426.497500", "110428.497500", "110430.497500", "110432.497500"],
      "ContentTime": ["105838.038000", "105838.041000", "105838.044000", "105838.046000", "105838.049000", "105838.051000", "105838.054000", "105838.056000", "105838.059000", "105838.061000", "105838.063000", "105838.066000", "105838.068000", "105838.071000", "105838.077000", "105838.080000", "105838.082000", "105838.085000", "105838.089000", "105838.092000", "105838.094000", "105918.033000", "105918.036000", "105918.056000", "105918.059000", "105918.061000", "105918.064000", "105918.066000", "105918.069000", "105918.071000", "105918.074000", "105918.076000", "105918.078000", "105918.081000", "105918.084000", "105918.087000", "105918.090000", "105918.093000", "105918.095000", "105918.098000", "105918.101000", "105958.034000", "105958.037000", "105958.040000", "105958.042000", "105958.044000", "105958.047000", "105958.049000", "105958.052000", "105958.054000", "105958.066000", "105958.069000", "105958.071000", "105958.074000", "105958.076000", "105958.078000", "105958.081000", "105958.083000", "105958.086000", "105958.089000", "105958.091000", "110018.035000", "110018.037000", "110018.040000", "110018.042000", "110018.045000", "110018.047000", "110018.050000", "110018.052000", "110018.055000", "110018.057000", "110058.034000", "110058.037000", "110058.039000", "110058.042000", "110058.044000", "110058.047000", "110058.049000", "110058.051000", "110058.054000", "110058.056000", "110058.059000", "110058.061000", "110058.069000", "110058.071000", "110058.074000", "110058.076000", "110058.079000", "110058.081000", "110058.085000", "110058.088000", "110138.033000", "110138.036000", "110138.039000", "110138.041000", "110138.044000", "110138.046000", "110138.048000", "110138.051000", "110138.053000", "110138.056000", "110138.058000", "110138.061000", "110138.063000", "110138.066000", "110138.068000", "110138.071000", "110138.073000", "110138.076000", "110138.078000", "110138.081000", "110218.034000", "110218.037000", "110218.040000", "110218.042000", "110218.045000", "110218.047000", "110218.050000", "110218.052000", "110218.055000", "110218.057000", "110218.060000", "110218.062000", "110218.064000", "110218.067000", "110218.069000", "110218.072000", "110218.074000", "110218.077000", "110218.079000", "110218.094000", "110258.033000", "110258.036000", "110258.039000", "110258.041000", "110258.044000", "110258.046000", "110258.049000", "110258.051000", "110258.053000", "110258.056000", "110258.058000", "110258.061000", "110258.063000", "110258.066000", "110258.068000", "110258.071000", "110258.073000", "110258.076000", "110258.078000", "110258.081000", "110338.033000", "110338.036000", "110338.039000", "110338.041000", "110338.044000", "110338.046000", "110338.049000", "110338.051000", "110338.054000", "110338.056000", "110338.058000", "110338.061000", "110338.063000", "110338.066000", "110338.068000", "110338.071000", "110338.073000", "110338.076000", "110338.078000", "110338.081000", "110418.034000", "110418.037000", "110418.040000", "110418.042000", "110418.045000", "110418.047000", "110418.050000", "110418.052000", "110418.055000", "110418.057000", "110418.060000", "110418.062000", "110418.077000", "110418.080000", "110418.082000", "110418.085000", "110418.087000", "110418.090000", "110418.093000", "110418.096000", "110434.148000", "110434.150000", "110434.153000", "110434.155000", "110434.158000", "110434.161000", "110434.163000", "110434.166000", "110434.168000"],
      "InstanceCreationTime": ["105838.038000", "105838.041000", "105838.044000", "105838.046000", "105838.049000", "105838.051000", "105838.054000", "105838.056000", "105838.059000", "105838.061000", "105838.063000", "105838.066000", "105838.068000", "105838.071000", "105838.077000", "105838.080000", "105838.082000", "105838.085000", "105838.089000", "105838.092000", "105838.094000", "105918.033000", "105918.036000", "105918.056000", "105918.059000", "105918.061000", "105918.064000", "105918.066000", "105918.069000", "105918.071000", "105918.074000", "105918.076000", "105918.078000", "105918.081000", "105918.084000", "105918.087000", "105918.090000", "105918.093000", "105918.095000", "105918.098000", "105918.101000", "105958.034000", "105958.037000", "105958.040000", "105958.042000", "105958.044000", "105958.047000", "105958.049000", "105958.052000", "105958.054000", "105958.066000", "105958.069000", "105958.071000", "105958.074000", "105958.076000", "105958.078000", "105958.081000", "105958.083000", "105958.086000", "105958.089000", "105958.091000", "110018.035000", "110018.037000", "110018.040000", "110018.042000", "110018.045000", "110018.047000", "110018.050000", "110018.052000", "110018.055000", "110018.057000", "110058.034000", "110058.037000", "110058.039000", "110058.042000", "110058.044000", "110058.047000", "110058.049000", "110058.051000", "110058.054000", "110058.056000", "110058.059000", "110058.061000", "110058.069000", "110058.071000", "110058.074000", "110058.076000", "110058.079000", "110058.081000", "110058.085000", "110058.088000", "110138.033000", "110138.036000", "110138.039000", "110138.041000", "110138.044000", "110138.046000", "110138.048000", "110138.051000", "110138.053000", "110138.056000", "110138.058000", "110138.061000", "110138.063000", "110138.066000", "110138.068000", "110138.071000", "110138.073000", "110138.076000", "110138.078000", "110138.081000", "110218.034000", "110218.037000", "110218.040000", "110218.042000", "110218.045000", "110218.047000", "110218.050000", "110218.052000", "110218.055000", "110218.057000", "110218.060000", "110218.062000", "110218.064000", "110218.067000", "110218.069000", "110218.072000", "110218.074000", "110218.077000", "110218.079000", "110218.094000", "110258.033000", "110258.036000", "110258.039000", "110258.041000", "110258.044000", "110258.046000", "110258.049000", "110258.051000", "110258.053000", "110258.056000", "110258.058000", "110258.061000", "110258.063000", "110258.066000", "110258.068000", "110258.071000", "110258.073000", "110258.076000", "110258.078000", "110258.081000", "110338.033000", "110338.036000", "110338.039000", "110338.041000", "110338.044000", "110338.046000", "110338.049000", "110338.051000", "110338.054000", "110338.056000", "110338.058000", "110338.061000", "110338.063000", "110338.066000", "110338.068000", "110338.071000", "110338.073000", "110338.076000", "110338.078000", "110338.081000", "110418.034000", "110418.037000", "110418.040000", "110418.042000", "110418.045000", "110418.047000", "110418.050000", "110418.052000", "110418.055000", "110418.057000", "110418.060000", "110418.062000", "110418.077000", "110418.080000", "110418.082000", "110418.085000", "110418.087000", "110418.090000", "110418.093000", "110418.096000", "110434.148000", "110434.150000", "110434.153000", "110434.155000", "110434.158000", "110434.161000", "110434.163000", "110434.166000", "110434.168000"],
      "InstanceNumber": [1, 2, 3, 4, 5, 6, 7, 8, 9, 10, 11, 12, 13, 14, 15, 16, 17, 18, 19, 20, 21, 22, 23, 24, 25, 26, 27, 28, 29, 30, 31, 32, 33, 34, 35, 36, 37, 38, 39, 40, 41, 42, 43, 44, 45, 46, 47, 48, 49, 50, 51, 52, 53, 54, 55, 56, 57, 58, 59, 60, 61, 62, 63, 64, 65, 66, 67, 68, 69, 70, 71, 72, 73, 74, 75, 76, 77, 78, 79, 80, 81, 82, 83, 84, 85, 86, 87, 88, 89, 90, 91, 92, 93, 94, 95, 96, 97, 98, 99, 100, 101, 102, 103, 104, 105, 106, 107, 108, 109, 110, 111, 112, 113, 114, 115, 116, 117, 118, 119, 120, 121, 122, 123, 124, 125, 126, 127, 128, 129, 130, 131, 132, 133, 134, 135, 136, 137, 138, 139, 140, 141, 142, 143, 144, 145, 146, 147, 148, 149, 150, 151, 152, 153, 154, 155, 156, 157, 158, 159, 160, 161, 162, 163, 164, 165, 166, 167, 168, 169, 170, 171, 172, 173, 174, 175, 176, 177, 178, 179, 180, 181, 182, 183, 184, 185, 186, 187, 188, 189, 190, 191, 192, 193, 194, 195, 196, 197, 198, 199, 200],
      "LargestImagePixelValue": [332, 328, 329, 331, 331, 330, 329, 331, 327, 327, 334, 327, 329, 329, 331, 330, 328, 333, 330, 331, 329, 329, 329, 328, 332, 327, 329, 329, 328, 329, 331, 328, 332, 328, 329, 330, 330, 327, 328, 328, 327, 329, 327, 332, 327, 330, 331, 331, 328, 328, 328, 328, 327, 328, 330, 329, 329, 329, 328, 328, 328, 330, 329, 330, 328, 329, 331, 331, 327, 330, 331, 327, 326, 327, 329, 329, 331, 330, 329, 328, 327, 330, 327, 327, 335, 335, 335, 333, 332, 334, 335, 333, 335, 332, 332, 334, 332, 331, 334, 333, 332, 333, 331, 333, 331, 333, 331, 331, 334, 333, 332, 334, 333, 330, 332, 334, 332, 331, 330, 334, 334, 334, 331, 332, 333, 333, 331, 330, 333, 330, 333, 336, 335, 336, 332, 334, 334, 332, 330, 338, 333, 336, 334, 331, 332, 334, 334, 333, 333, 333, 334, 333, 333, 334, 334, 332, 334, 331, 330, 332, 333, 335, 331, 334, 333, 332, 334, 330, 330, 334, 332, 332, 331, 334, 335, 330, 330, 330, 332, 333, 332, 329, 331, 332, 332, 331, 333, 332, 333, 331, 332, 337, 331, 332, 331, 331, 331, 330, 331, 331],
      "WindowCenter": [276.0, 276.0, 276.0, 276.0, 276.0, 276.0, 276.0, 276.0, 276.0, 275.0, 276.0, 276.0, 276.0, 276.0, 276.0, 276.0, 276.0, 276.0, 276.0, 276.0, 276.0, 276.0, 276.0, 276.0, 276.0, 275.0, 276.0, 275.0, 276.0, 276.0, 275.0, 275.0, 276.0, 275.0, 275.0, 275.0, 276.0, 275.0, 275.0, 275.0, 275.0, 275.0, 275.0, 276.0, 275.0, 276.0, 276.0, 276.0, 276.0, 275.0, 275.0, 275.0, 275.0, 275.0, 276.0, 275.0, 275.0, 275.0, 275.0, 275.0, 275.0, 275.0, 275.0, 276.0, 276.0, 275.0, 276.0, 275.0, 275.0, 275.0, 275.0, 275.0, 275.0, 275.0, 275.0, 276.0, 275.0, 276.0, 275.0, 275.0, 275.0, 277.0, 275.0, 275.0, 276.0, 278.0, 277.0, 278.0, 278.0, 278.0, 278.0, 278.0, 278.0, 278.0, 278.0, 278.0, 278.0, 279.0, 278.0, 278.0, 278.0, 278.0, 278.0, 278.0, 278.0, 278.0, 279.0, 278.0, 278.0, 278.0, 278.0, 278.0, 278.0, 278.0, 279.0, 278.0, 278.0, 278.0, 278.0, 278.0, 278.0, 278.0, 278.0, 278.0, 278.0, 278.0, 278.0, 278.0, 278.0, 278.0, 278.0, 278.0, 278.0, 278.0, 278.0, 279.0, 278.0, 278.0, 278.0, 278.0, 278.0, 278.0, 278.0, 278.0, 278.0, 278.0, 278.0, 278.0, 278.0, 278.0, 278.0, 278.0, 278.0, 278.0, 278.0, 278.0, 278.0, 278.0, 278.0, 278.0, 278.0, 278.0, 278.0, 278.0, 278.0, 278.0, 278.0, 278.0, 278.0, 278.0, 278.0, 278.0, 278.0, 278.0, 278.0, 278.0, 278.0, 278.0, 279.0, 278.0, 278.0, 277.0, 278.0, 278.0, 278.0, 278.0, 278.0, 278.0, 278.0, 278.0, 278.0, 278.0, 278.0, 278.0, 278.0, 278.0, 278.0, 278.0, 278.0, 278.0],
      "WindowWidth": [605.0, 604.0, 604.0, 605.0, 605.0, 605.0, 604.0, 605.0, 604.0, 604.0, 605.0, 604.0, 604.0, 604.0, 605.0, 604.0, 604.0, 605.0, 604.0, 604.0, 604.0, 604.0, 604.0, 604.0, 604.0, 602.0, 604.0, 603.0, 605.0, 604.0, 603.0, 602.0, 604.0, 602.0, 602.0, 603.0, 604.0, 603.0, 602.0, 603.0, 603.0, 603.0, 602.0, 604.0, 603.0, 605.0, 605.0, 603.0, 604.0, 602.0, 603.0, 603.0, 603.0, 603.0, 604.0, 603.0, 603.0, 603.0, 602.0, 602.0, 603.0, 603.0, 602.0, 603.0, 604.0, 602.0, 604.0, 603.0, 602.0, 603.0, 603.0, 602.0, 603.0, 603.0, 602.0, 605.0, 603.0, 603.0, 602.0, 602.0, 603.0, 607.0, 602.0, 602.0, 605.0, 609.0, 607.0, 609.0, 609.0, 609.0, 609.0, 609.0, 609.0, 609.0, 609.0, 609.0, 609.0, 609.0, 609.0, 609.0, 609.0, 609.0, 608.0, 609.0, 609.0, 609.0, 609.0, 609.0, 609.0, 609.0, 609.0, 609.0, 609.0, 609.0, 609.0, 609.0, 609.0, 609.0, 609.0, 609.0, 609.0, 609.0, 609.0, 609.0, 609.0, 609.0, 609.0, 609.0, 609.0, 609.0, 609.0, 609.0, 609.0, 609.0, 609.0, 609.0, 609.0, 609.0, 609.0, 609.0, 609.0, 609.0, 609.0, 609.0, 609.0, 609.0, 609.0, 609.0, 609.0, 609.0, 609.0, 609.0, 609.0, 609.0, 608.0, 608.0, 609.0, 609.0, 609.0, 609.0, 609.0, 609.0, 608.0, 609.0, 609.0, 609.0, 609.0, 609.0, 609.0, 609.0, 609.0, 609.0, 608.0, 609.0, 608.0, 609.0, 609.0, 609.0, 609.0, 609.0, 609.0, 607.0, 608.0, 608.0, 609.0, 609.0, 609.0, 609.0, 609.0, 608.0, 609.0, 609.0, 608.0, 608.0, 609.0, 609.0, 609.0, 608.0, 608.0, 608.0]
    },
    "slices": {}
  }
}