{
  "AcquisitionMatrixPE": 80,
  "AcquisitionNumber": 1,
  "AcquisitionTime": "10:32:21.160000",
  "BandwidthPerPixelPhaseEncode": 44.643,
  "BaseResolution": 80,
  "BodyPartExamined": "BRAIN",
  "CoilCombinationMethod": "Sum of Squares",
  "ConsistencyInfo": "N4_VE11C_LATEST_20160120",
  "ConversionSoftware": "dcm2niix",
  "ConversionSoftwareVersion": "v1.0.20220720",
  "DerivedVendorReportedEchoSpacing": 0.000559998,
  "DeviceSerialNumber": "66112",
  "DwellTime": 2.7e-06,
  "EchoTime": 0.035,
  "EchoTrainLength": 39,
  "EffectiveEchoSpacing": 0.000279999,
  "FlipAngle": 90,
  "HeudiconvVersion": "0.13.1",
  "ImageOrientationPatientDICOM": [0.991114, -0.132904, 0.00533694, 0.125031, 0.94459, 0.303508],
  "ImageOrientationText": "Tra>Cor(17.5)>Sag(2.6)",
  "ImageType": [
    "ORIGINAL",
    "PRIMARY",
    "M",
    "ND",
    "NORM",
    "MOSAIC"
],
  "ImagingFrequency": 123.252,
  "InPlanePhaseEncodingDirectionDICOM": "COL",
  "InstitutionAddress": "Maynard 3,Hanover,NH,US,03755",
  "InstitutionName": "Dartmouth College - PBS",
  "InstitutionalDepartmentName": "Department",
  "MRAcquisitionType": "2D",
  "MagneticFieldStrength": 3,
  "Manufacturer": "Siemens",
  "ManufacturersModelName": "Prisma",
  "Modality": "MR",
  "MultibandAccelerationFactor": 4,
  "NonlinearGradientCorrection": false,
  "ParallelReductionFactorInPlane": 2,
  "PartialFourier": 1,
  "PatientPosition": "HFS",
  "PercentPhaseFOV": 100,
  "PercentSampling": 100,
  "PhaseEncodingDirection": "j-",
  "PhaseEncodingSteps": 79,
  "PhaseResolution": 1,
  "PixelBandwidth": 2315,
  "ProcedureStepDescription": "dbic^QA",
  "ProtocolName": "func-bold_task-rest_acq-p2-s4-3.5mm",
  "PulseSequenceDetails": "%SiemensSeq%\\ep2d_bold",
  "ReceiveCoilActiveElements": "HEA;HEP",
  "ReceiveCoilName": "Head_32",
  "ReconMatrixPE": 80,
  "RefLinesPE": 24,
  "RepetitionTime": 2,
  "SAR": 0.0209508,
  "ScanOptions": "FS",
  "ScanningSequence": "EP",
  "SequenceName": "*epfid2d1_80",
  "SequenceVariant": "SK",
  "SeriesDescription": "func-bold_task-rest_acq-p2-s4-3.5mm",
  "SeriesNumber": 7,
  "ShimSetting": [4143, -7695, -7514, 266, -78, -88, -11, 62],
  "SliceThickness": 3.5,
  "SliceTiming": [1.485, 0, 0.99, 0.2475, 1.2375, 0.7425, 1.7325, 0.495, 1.485, 0, 0.99, 0.2475, 1.2375, 0.7425, 1.7325, 0.495, 1.485, 0, 0.99, 0.2475, 1.2375, 0.7425, 1.7325, 0.495, 1.485, 0, 0.99, 0.2475, 1.2375, 0.7425, 1.7325, 0.495],
  "SoftwareVersions": "syngo MR E11",
  "SpacingBetweenSlices": 3.99,
  "StationName": "AWP66112",
  "TaskName": "rest",
  "TotalReadoutTime": 0.0221199,
  "TxRefAmp": 224.773,
  "dcmmeta_affine": [
    [-2.97334361076355, 0.3750934600830078, 0.1810608208179474, 103.01331329345703],
    [0.3987126350402832, 2.833770275115967, 1.1975723505020142, -134.98489379882812],
    [0.016010817140340805, -0.9105226993560791, 3.8017282485961914, -22.737009048461914],
    [0.0, 0.0, 0.0, 1.0]
],
  "dcmmeta_reorient_transform": [
    [0.0, -1.0, 0.0, 79.0],
    [1.0, 0.0, 0.0, 0.0],
    [0.0, 0.0, 1.0, 0.0],
    [0.0, 0.0, 0.0, 1.0]
],
  "dcmmeta_shape": [80, 80, 32, 200],
  "dcmmeta_slice_dim": 2,
  "dcmmeta_version": 0.6,
  "global": {
    "const": {
      "AccessionNumber": "qa",
      "AcquisitionMatrix": [80, 0, 0, 80],
      "AngioFlag": "N",
      "BitsAllocated": 16,
      "BitsStored": 12,
      "BodyPartExamined": "BRAIN",
      "Columns": 480,
      "EchoNumbers": 1,
      "EchoTime": 35.0,
      "EchoTrainLength": 39,
      "FlipAngle": 90.0,
      "HighBit": 11,
      "ImageOrientationPatient": [0.99111451799245, -0.1329042110189, 0.00533693901479, 0.12503115682937, 0.94459005544799, 0.30350755669452],
      "ImagePositionPatient": [-802.33310361177, -575.89445889076, -279.97499720733],
      "ImageType": [
        "ORIGINAL",
        "PRIMARY",
        "M",
        "ND",
        "NORM",
        "MOSAIC"
],
      "ImagedNucleus": "1H",
      "ImagingFrequency": 123.252355,
      "InPlanePhaseEncodingDirection": "COL",
      "MRAcquisitionType": "2D",
      "MagneticFieldStrength": 3.0,
      "Manufacturer": "SIEMENS",
      "ManufacturerModelName": "Prisma",
      "Modality": "MR",
      "NumberOfAverages": 1.0,
      "NumberOfPhaseEncodingSteps": 79,
      "PercentPhaseFieldOfView": 100.0,
      "PercentSampling": 100.0,
      "PerformedProcedureStepStartTime": "102348.914000",
      "PhotometricInterpretation": "MONOCHROME2",
      "PixelBandwidth": 2315.0,
      "PixelRepresentation": 0,
      "PixelSpacing": [3.0, 3.0],
      "ProtocolName": "func-bold_task-rest_acq-p2-s4-3.5mm",
      "RepetitionTime": 2000.0,
      "Rows": 480,
      "SAR": 0.02095082977811,
      "SamplesPerPixel": 1,
      "ScanOptions": "FS",
      "ScanningSequence": "EP",
      "SequenceName": "*epfid2d1_80",
      "SequenceVariant": "SK",
      "SeriesDescription": "func-bold_task-rest_acq-p2-s4-3.5mm",
      "SeriesNumber": 7,
      "SeriesTime": "103307.482000",
      "SliceLocation": -57.504369421331,
      "SliceThickness": 3.5,
      "SmallestImagePixelValue": 0,
      "SoftwareVersions": "syngo MR E11",
      "SpacingBetweenSlices": 3.9899999652055,
      "SpecificCharacterSet": "ISO_IR 100",
      "StudyID": "21",
      "StudyTime": "102348.871000",
      "TransmitCoilName": "Body",
      "VariableFlipAngleFlag": "N",
      "WindowCenter": 918.0,
      "WindowCenterWidthExplanation": "Algo1",
      "dBdt": 0.0},
    "slices": {}
  },
  "time": {
    "samples": {
      "AcquisitionNumber": [1, 2, 3, 4, 5, 6, 7, 8, 9, 10, 11, 12, 13, 14, 15, 16, 17, 18, 19, 20, 21, 22, 23, 24, 25, 26, 27, 28, 29, 30, 31, 32, 33, 34, 35, 36, 37, 38, 39, 40, 41, 42, 43, 44, 45, 46, 47, 48, 49, 50, 51, 52, 53, 54, 55, 56, 57, 58, 59, 60, 61, 62, 63, 64, 65, 66, 67, 68, 69, 70, 71, 72, 73, 74, 75, 76, 77, 78, 79, 80, 81, 82, 83, 84, 85, 86, 87, 88, 89, 90, 91, 92, 93, 94, 95, 96, 97, 98, 99, 100, 101, 102, 103, 104, 105, 106, 107, 108, 109, 110, 111, 112, 113, 114, 115, 116, 117, 118, 119, 120, 121, 122, 123, 124, 125, 126, 127, 128, 129, 130, 131, 132, 133, 134, 135, 136, 137, 138, 139, 140, 141, 142, 143, 144, 145, 146, 147, 148, 149, 150, 151, 152, 153, 154, 155, 156, 157, 158, 159, 160, 161, 162, 163, 164, 165, 166, 167, 168, 169, 170, 171, 172, 173, 174, 175, 176, 177, 178, 179, 180, 181, 182, 183, 184, 185, 186, 187, 188, 189, 190, 191, 192, 193, 194, 195, 196, 197, 198, 199, 200],
      "AcquisitionTime": ["103221.160000", "103223.160000", "103225.160000", "103227.160000", "103229.160000", "103231.160000", "103233.160000", "103235.160000", "103237.160000", "103239.160000", "103241.160000", "103243.160000", "103245.160000", "103247.160000", "103249.160000", "103251.160000", "103253.160000", "103255.160000", "103257.160000", "103259.160000", "103301.160000", "103303.160000", "103305.160000", "103307.160000", "103309.160000", "103311.160000", "103313.160000", "103315.160000", "103317.160000", "103319.160000", "103321.160000", "103323.160000", "103325.160000", "103327.160000", "103329.160000", "103331.160000", "103333.160000", "103335.160000", "103337.160000", "103339.160000", "103341.160000", "103343.160000", "103345.160000", "103347.160000", "103349.160000", "103351.160000", "103353.160000", "103355.160000", "103357.160000", "103359.160000", "103401.160000", "103403.160000", "103405.160000", "103407.160000", "103409.160000", "103411.160000", "103413.160000", "103415.160000", "103417.160000", "103419.160000", "103421.160000", "103423.160000", "103425.160000", "103427.160000", "103429.160000", "103431.160000", "103433.160000", "103435.160000", "103437.160000", "103439.160000", "103441.160000", "103443.160000", "103445.160000", "103447.160000", "103449.160000", "103451.160000", "103453.160000", "103455.160000", "103457.160000", "103459.160000", "103501.160000", "103503.160000", "103505.160000", "103507.160000", "103509.160000", "103511.160000", "103513.160000", "103515.160000", "103517.160000", "103519.160000", "103521.160000", "103523.160000", "103525.160000", "103527.160000", "103529.160000", "103531.160000", "103533.160000", "103535.160000", "103537.160000", "103539.160000", "103541.160000", "103543.160000", "103545.160000", "103547.160000", "103549.160000", "103551.160000", "103553.160000", "103555.160000", "103557.160000", "103559.160000", "103601.160000", "103603.160000", "103605.160000", "103607.160000", "103609.160000", "103611.160000", "103613.160000", "103615.160000", "103617.160000", "103619.160000", "103621.160000", "103623.160000", "103625.160000", "103627.160000", "103629.160000", "103631.160000", "103633.160000", "103635.160000", "103637.160000", "103639.160000", "103641.160000", "103643.160000", "103645.160000", "103647.160000", "103649.160000", "103651.160000", "103653.160000", "103655.160000", "103657.160000", "103659.160000", "103701.160000", "103703.160000", "103705.160000", "103707.160000", "103709.160000", "103711.160000", "103713.160000", "103715.160000", "103717.160000", "103719.160000", "103721.160000", "103723.160000", "103725.160000", "103727.160000", "103729.160000", "103731.160000", "103733.160000", "103735.160000", "103737.160000", "103739.160000", "103741.160000", "103743.160000", "103745.160000", "103747.160000", "103749.160000", "103751.160000", "103753.160000", "103755.160000", "103757.160000", "103759.160000", "103801.160000", "103803.160000", "103805.160000", "103807.160000", "103809.160000", "103811.160000", "103813.160000", "103815.160000", "103817.160000", "103819.160000", "103821.160000", "103823.160000", "103825.160000", "103827.160000", "103829.160000", "103831.160000", "103833.160000", "103835.160000", "103837.160000", "103839.160000", "103841.160000", "103843.160000", "103845.160000", "103847.160000", "103849.160000", "103851.160000", "103853.160000", "103855.160000", "103857.160000", "103859.160000"],
      "ContentTime": ["103307.485000", "103307.489000", "103307.491000", "103307.501000", "103307.504000", "103307.506000", "103307.509000", "103307.511000", "103307.514000", "103307.517000", "103307.519000", "103307.522000", "103307.524000", "103307.527000", "103307.530000", "103307.534000", "103307.543000", "103307.545000", "103307.548000", "103307.550000", "103307.553000", "103307.569000", "103307.572000", "103347.481000", "103347.483000", "103347.486000", "103347.489000", "103347.491000", "103347.494000", "103347.496000", "103347.499000", "103347.501000", "103347.504000", "103347.507000", "103347.509000", "103347.512000", "103347.514000", "103347.517000", "103347.520000", "103347.522000", "103347.525000", "103347.527000", "103347.530000", "103427.480000", "103427.483000", "103427.486000", "103427.489000", "103427.491000", "103427.494000", "103427.496000", "103427.499000", "103427.501000", "103427.504000", "103427.506000", "103427.509000", "103427.512000", "103427.514000", "103427.517000", "103427.520000", "103427.522000", "103427.525000", "103427.527000", "103427.530000", "103507.481000", "103507.484000", "103507.486000", "103507.489000", "103507.491000", "103507.494000", "103507.497000", "103507.499000", "103507.502000", "103507.504000", "103507.507000", "103507.509000", "103507.512000", "103507.515000", "103507.517000", "103507.520000", "103507.522000", "103507.525000", "103507.528000", "103507.530000", "103547.481000", "103547.484000", "103547.486000", "103547.489000", "103547.491000", "103547.494000", "103547.497000", "103547.499000", "103547.502000", "103547.505000", "103547.507000", "103547.510000", "103547.512000", "103547.515000", "103547.517000", "103547.520000", "103547.523000", "103547.525000", "103547.528000", "103547.530000", "103627.480000", "103627.483000", "103627.486000", "103627.489000", "103627.491000", "103627.494000", "103627.496000", "103627.499000", "103627.502000", "103627.504000", "103627.507000", "103627.509000", "103627.512000", "103627.515000", "103627.517000", "103627.520000", "103627.522000", "103627.525000", "103627.528000", "103627.530000", "103707.480000", "103707.482000", "103707.485000", "103707.488000", "103707.490000", "103707.493000", "103707.496000", "103707.498000", "103707.501000", "103707.503000", "103707.506000", "103707.508000", "103707.511000", "103707.513000", "103707.516000", "103707.519000", "103707.521000", "103707.524000", "103707.526000", "103707.529000", "103747.481000", "103747.483000", "103747.486000", "103747.489000", "103747.491000", "103747.494000", "103747.497000", "103747.499000", "103747.502000", "103747.504000", "103747.507000", "103747.510000", "103747.512000", "103747.515000", "103747.517000", "103747.520000", "103747.522000", "103747.525000", "103747.528000", "103747.530000", "103827.480000", "103827.483000", "103827.486000", "103827.489000", "103827.491000", "103827.494000", "103827.496000", "103827.499000", "103827.502000", "103827.504000", "103827.507000", "103827.509000", "103827.512000", "103827.515000", "103827.517000", "103827.520000", "103827.522000", "103827.525000", "103827.528000", "103827.530000", "103900.140000", "103900.143000", "103900.146000", "103900.148000", "103900.151000", "103900.154000", "103900.156000", "103900.159000", "103900.162000", "103900.165000", "103900.167000", "103900.170000", "103900.175000", "103900.181000", "103900.184000", "103900.186000", "103900.190000"],
      "InstanceCreationTime": ["103307.485000", "103307.489000", "103307.491000", "103307.501000", "103307.504000", "103307.506000", "103307.509000", "103307.511000", "103307.514000", "103307.517000", "103307.519000", "103307.522000", "103307.524000", "103307.527000", "103307.530000", "103307.534000", "103307.543000", "103307.545000", "103307.548000", "103307.550000", "103307.553000", "103307.569000", "103307.572000", "103347.481000", "103347.483000", "103347.486000", "103347.489000", "103347.491000", "103347.494000", "103347.496000", "103347.499000", "103347.501000", "103347.504000", "103347.507000", "103347.509000", "103347.512000", "103347.514000", "103347.517000", "103347.520000", "103347.522000", "103347.525000", "103347.527000", "103347.530000", "103427.480000", "103427.483000", "103427.486000", "103427.489000", "103427.491000", "103427.494000", "103427.496000", "103427.499000", "103427.501000", "103427.504000", "103427.506000", "103427.509000", "103427.512000", "103427.514000", "103427.517000", "103427.520000", "103427.522000", "103427.525000", "103427.527000", "103427.530000", "103507.481000", "103507.484000", "103507.486000", "103507.489000", "103507.491000", "103507.494000", "103507.497000", "103507.499000", "103507.502000", "103507.504000", "103507.507000", "103507.509000", "103507.512000", "103507.515000", "103507.517000", "103507.520000", "103507.522000", "103507.525000", "103507.528000", "103507.530000", "103547.481000", "103547.484000", "103547.486000", "103547.489000", "103547.491000", "103547.494000", "103547.497000", "103547.499000", "103547.502000", "103547.505000", "103547.507000", "103547.510000", "103547.512000", "103547.515000", "103547.517000", "103547.520000", "103547.523000", "103547.525000", "103547.528000", "103547.530000", "103627.480000", "103627.483000", "103627.486000", "103627.489000", "103627.491000", "103627.494000", "103627.496000", "103627.499000", "103627.502000", "103627.504000", "103627.507000", "103627.509000", "103627.512000", "103627.515000", "103627.517000", "103627.520000", "103627.522000", "103627.525000", "103627.528000", "103627.530000", "103707.480000", "103707.482000", "103707.485000", "103707.488000", "103707.490000", "103707.493000", "103707.496000", "103707.498000", "103707.501000", "103707.503000", "103707.506000", "103707.508000", "103707.511000", "103707.513000", "103707.516000", "103707.519000", "103707.521000", "103707.524000", "103707.526000", "103707.529000", "103747.481000", "103747.483000", "103747.486000", "103747.489000", "103747.491000", "103747.494000", "103747.497000", "103747.499000", "103747.502000", "103747.504000", "103747.507000", "103747.510000", "103747.512000", "103747.515000", "103747.517000", "103747.520000", "103747.522000", "103747.525000", "103747.528000", "103747.530000", "103827.480000", "103827.483000", "103827.486000", "103827.489000", "103827.491000", "103827.494000", "103827.496000", "103827.499000", "103827.502000", "103827.504000", "103827.507000", "103827.509000", "103827.512000", "103827.515000", "103827.517000", "103827.520000", "103827.522000", "103827.525000", "103827.528000", "103827.530000", "103900.140000", "103900.143000", "103900.146000", "103900.148000", "103900.151000", "103900.154000", "103900.156000", "103900.159000", "103900.162000", "103900.165000", "103900.167000", "103900.170000", "103900.175000", "103900.181000", "103900.184000", "103900.186000", "103900.190000"],
      "InstanceNumber": [1, 2, 3, 4, 5, 6, 7, 8, 9, 10, 11, 12, 13, 14, 15, 16, 17, 18, 19, 20, 21, 22, 23, 24, 25, 26, 27, 28, 29, 30, 31, 32, 33, 34, 35, 36, 37, 38, 39, 40, 41, 42, 43, 44, 45, 46, 47, 48, 49, 50, 51, 52, 53, 54, 55, 56, 57, 58, 59, 60, 61, 62, 63, 64, 65, 66, 67, 68, 69, 70, 71, 72, 73, 74, 75, 76, 77, 78, 79, 80, 81, 82, 83, 84, 85, 86, 87, 88, 89, 90, 91, 92, 93, 94, 95, 96, 97, 98, 99, 100, 101, 102, 103, 104, 105, 106, 107, 108, 109, 110, 111, 112, 113, 114, 115, 116, 117, 118, 119, 120, 121, 122, 123, 124, 125, 126, 127, 128, 129, 130, 131, 132, 133, 134, 135, 136, 137, 138, 139, 140, 141, 142, 143, 144, 145, 146, 147, 148, 149, 150, 151, 152, 153, 154, 155, 156, 157, 158, 159, 160, 161, 162, 163, 164, 165, 166, 167, 168, 169, 170, 171, 172, 173, 174, 175, 176, 177, 178, 179, 180, 181, 182, 183, 184, 185, 186, 187, 188, 189, 190, 191, 192, 193, 194, 195, 196, 197, 198, 199, 200],
      "LargestImagePixelValue": [1969, 1966, 1968, 1962, 1966, 1965, 1966, 1966, 1963, 1969, 1968, 1963, 1964, 1966, 1970, 1966, 1967, 1968, 1969, 1969, 1966, 1965, 1967, 1964, 1974, 1967, 1969, 1969, 1967, 1967, 1968, 1962, 1966, 1968, 1966, 1965, 1964, 1971, 1969, 1970, 1968, 1971, 1965, 1969, 1969, 1970, 1966, 1968, 1967, 1972, 1967, 1971, 1967, 1970, 1965, 1967, 1968, 1971, 1968, 1966, 1966, 1970, 1970, 1972, 1968, 1970, 1966, 1970, 1967, 1967, 1968, 1970, 1968, 1969, 1969, 1967, 1970, 1968, 1965, 1969, 1967, 1972, 1969, 1966, 1971, 1966, 1966, 1971, 1971, 1969, 1971, 1970, 1969, 1971, 1969, 1970, 1967, 1972, 1967, 1969, 1968, 1971, 1972, 1971, 1968, 1969, 1967, 1972, 1972, 1970, 1969, 1973, 1972, 1964, 1973, 1968, 1967, 1973, 1968, 1969, 1972, 1972, 1974, 1971, 1970, 1969, 1964, 1973, 1969, 1970, 1972, 1976, 1975, 1972, 1976, 1975, 1974, 1971, 1965, 1966, 1973, 1973, 1967, 1970, 1969, 1974, 1969, 1968, 1973, 1969, 1972, 1970, 1970, 1966, 1969, 1968, 1970, 1969, 1972, 1969, 1972, 1973, 1970, 1972, 1971, 1972, 1969, 1973, 1970, 1967, 1964, 1973, 1972, 1969, 1966, 1971, 1968, 1973, 1975, 1973, 1970, 1971, 1969, 1974, 1967, 1971, 1971, 1973, 1974, 1971, 1973, 1968, 1973, 1973, 1968, 1974, 1973, 1973, 1970, 1971],
      "WindowWidth": [2089.0, 2089.0, 2089.0, 2089.0, 2089.0, 2089.0, 2089.0, 2089.0, 2089.0, 2089.0, 2089.0, 2089.0, 2089.0, 2089.0, 2089.0, 2089.0, 2089.0, 2089.0, 2089.0, 2089.0, 2089.0, 2089.0, 2089.0, 2089.0, 2089.0, 2089.0, 2089.0, 2089.0, 2089.0, 2089.0, 2089.0, 2089.0, 2089.0, 2089.0, 2089.0, 2089.0, 2089.0, 2089.0, 2089.0, 2089.0, 2089.0, 2089.0, 2090.0, 2089.0, 2089.0, 2089.0, 2089.0, 2089.0, 2089.0, 2089.0, 2089.0, 2089.0, 2089.0, 2089.0, 2089.0, 2089.0, 2089.0, 2089.0, 2089.0, 2089.0, 2089.0, 2089.0, 2090.0, 2089.0, 2089.0, 2089.0, 2089.0, 2089.0, 2089.0, 2089.0, 2089.0, 2089.0, 2089.0, 2089.0, 2089.0, 2089.0, 2089.0, 2089.0, 2089.0, 2089.0, 2089.0, 2089.0, 2089.0, 2089.0, 2089.0, 2089.0, 2089.0, 2090.0, 2089.0, 2089.0, 2089.0, 2089.0, 2089.0, 2089.0, 2089.0, 2089.0, 2089.0, 2089.0, 2089.0, 2089.0, 2089.0, 2089.0, 2089.0, 2089.0, 2089.0, 2089.0, 2089.0, 2089.0, 2089.0, 2089.0, 2089.0, 2089.0, 2089.0, 2089.0, 2089.0, 2089.0, 2089.0, 2089.0, 2089.0, 2089.0, 2089.0, 2089.0, 2089.0, 2089.0, 2089.0, 2089.0, 2089.0, 2089.0, 2089.0, 2089.0, 2089.0, 2089.0, 2089.0, 2089.0, 2089.0, 2089.0, 2089.0, 2089.0, 2089.0, 2089.0, 2089.0, 2089.0, 2089.0, 2089.0, 2089.0, 2089.0, 2089.0, 2089.0, 2089.0, 2089.0, 2089.0, 2089.0, 2089.0, 2089.0, 2089.0, 2089.0, 2089.0, 2089.0, 2089.0, 2089.0, 2089.0, 2089.0, 2089.0, 2089.0, 2089.0, 2089.0, 2089.0, 2089.0, 2089.0, 2089.0, 2089.0, 2089.0, 2089.0, 2089.0, 2089.0, 2089.0, 2089.0, 2089.0, 2089.0, 2089.0, 2089.0, 2089.0, 2089.0, 2089.0, 2089.0, 2089.0, 2089.0, 2089.0, 2089.0, 2089.0, 2089.0, 2089.0, 2089.0, 2089.0, 2089.0, 2089.0, 2089.0, 2089.0, 2089.0, 2089.0]
    },
    "slices": {}
  }
}