{
  "AcquisitionMatrixPE": 122,
  "AcquisitionNumber": 1,
  "AcquisitionTime": "09:12:4.462500",
  "BandwidthPerPixelPhaseEncode": 27.785,
  "BaseResolution": 122,
  "BodyPartExamined": "BRAIN",
  "CoilCombinationMethod": "Adaptive Combine",
  "ConsistencyInfo": "N4_VE11C_LATEST_20160120",
  "ConversionSoftware": "dcm2niix",
  "ConversionSoftwareVersion": "v1.0.20220720",
  "DerivedVendorReportedEchoSpacing": 0.000590011,
  "DeviceSerialNumber": "66112",
  "DiffusionScheme": "Monopolar",
  "DwellTime": 2e-06,
  "EchoTime": 0.068,
  "EchoTrainLength": 61,
  "EffectiveEchoSpacing": 0.000295005,
  "FlipAngle": 90,
  "HeudiconvVersion": "0.13.1",
  "ImageOrientationPatientDICOM": [0.981153, 0.192804, 0.012843, -0.187343, 0.932869, 0.307667],
  "ImageOrientationText": "Tra>Cor(17.7)>Sag(-2.7)",
  "ImageType": [
    "ORIGINAL",
    "PRIMARY",
    "DIFFUSION",
    "NONE",
    "ND",
    "NORM"
],
  "ImagingFrequency": 123.252,
  "InPlanePhaseEncodingDirectionDICOM": "COL",
  "InstitutionAddress": "Maynard 3,Hanover,NH,US,03755",
  "InstitutionName": "Dartmouth College - PBS",
  "InstitutionalDepartmentName": "Department",
  "MRAcquisitionType": "2D",
  "MagneticFieldStrength": 3,
  "Manufacturer": "Siemens",
  "ManufacturersModelName": "Prisma",
  "Modality": "MR",
  "MultibandAccelerationFactor": 4,
  "NonlinearGradientCorrection": false,
  "ParallelReductionFactorInPlane": 2,
  "PartialFourier": 1,
  "PatientPosition": "HFS",
  "PercentPhaseFOV": 100,
  "PercentSampling": 100,
  "PhaseEncodingDirection": "j-",
  "PhaseEncodingSteps": 122,
  "PhaseResolution": 1,
  "PixelBandwidth": 2050,
  "ProcedureStepDescription": "dbic^QA",
  "ProtocolName": "dwi_acq-DTI-30-p2-s4",
  "PulseSequenceDetails": "%SiemensSeq%\\ep2d_diff",
  "ReceiveCoilActiveElements": "HEA;HEP",
  "ReceiveCoilName": "Head_32",
  "ReconMatrixPE": 122,
  "RefLinesPE": 38,
  "RepetitionTime": 3.6,
  "SAR": 0.16172,
  "ScanOptions": "FS",
  "ScanningSequence": "EP",
  "SequenceName": "*ep_b0",
  "SequenceVariant": "SK\\SP",
  "SeriesDescription": "dwi_acq-DTI-30-p2-s4",
  "SeriesNumber": 13,
  "ShimSetting": [4147, -7697, -7505, 310, -29, -158, -40, 57],
  "SliceThickness": 2,
  "SliceTiming": [2.58594, 0, 1.78906, 0.20312, 1.99219, 0.39844, 2.1875, 0.59375, 2.39062, 0.99219, 2.78125, 1.19531, 2.98438, 1.39844, 3.17969, 1.59375, 3.38281, 0.79688, 2.58594, 0, 1.78906, 0.20312, 1.99219, 0.39844, 2.1875, 0.59375, 2.39062, 0.99219, 2.78125, 1.19531, 2.98438, 1.39844, 3.17969, 1.59375, 3.38281, 0.79688, 2.58594, 0, 1.78906, 0.20312, 1.99219, 0.39844, 2.1875, 0.59375, 2.39062, 0.99219, 2.78125, 1.19531, 2.98438, 1.39844, 3.17969, 1.59375, 3.38281, 0.79688, 2.58594, 0, 1.78906, 0.20312, 1.99219, 0.39844, 2.1875, 0.59375, 2.39062, 0.99219, 2.78125, 1.19531, 2.98438, 1.39844, 3.17969, 1.59375, 3.38281, 0.79688],
  "SoftwareVersions": "syngo MR E11",
  "SpacingBetweenSlices": 2,
  "SpoilingState": true,
  "StationName": "AWP66112",
  "TotalReadoutTime": 0.0356956,
  "TxRefAmp": 226.985,
  "dcmmeta_affine": [
    [-1.9301377534866333, -0.3685426414012909, -0.0946769118309021, 147.35719299316406],
    [-0.37928563356399536, 1.8351513147354126, 0.6085491180419922, -99.24520111083984],
    [0.025264941155910492, -0.6052467226982117, 1.9028129577636719, -40.7514762878418],
    [0.0, 0.0, 0.0, 1.0]
],
  "dcmmeta_reorient_transform": [
    [0.0, -1.0, 0.0, 121.0],
    [1.0, 0.0, 0.0, 0.0],
    [0.0, 0.0, -1.0, 71.0],
    [0.0, 0.0, 0.0, 1.0]
],
  "dcmmeta_shape": [122, 122, 72, 31],
  "dcmmeta_slice_dim": 2,
  "dcmmeta_version": 0.6,
  "global": {
    "const": {
      "AccessionNumber": "qa",
      "AcquisitionMatrix": [122, 0, 0, 122],
      "AngioFlag": "N",
      "BitsAllocated": 16,
      "BitsStored": 12,
      "BodyPartExamined": "BRAIN",
      "Columns": 122,
      "EchoNumbers": 1,
      "EchoTime": 68.0,
      "EchoTrainLength": 61,
      "FlipAngle": 90.0,
      "HighBit": 11,
      "ImageOrientationPatient": [0.98115332924387, 0.1928035310375, 0.01284301106247, -0.1873425068314, 0.9328685610046, 0.307667081475],
      "ImageType": [
        "ORIGINAL",
        "PRIMARY",
        "DIFFUSION",
        "NONE",
        "ND",
        "NORM"
],
      "ImagedNucleus": "1H",
      "ImagingFrequency": 123.252409,
      "InPlanePhaseEncodingDirection": "COL",
      "MRAcquisitionType": "2D",
      "MagneticFieldStrength": 3.0,
      "Manufacturer": "SIEMENS",
      "ManufacturerModelName": "Prisma",
      "Modality": "MR",
      "NumberOfAverages": 1.0,
      "NumberOfPhaseEncodingSteps": 122,
      "PercentPhaseFieldOfView": 100.0,
      "PercentSampling": 100.0,
      "PerformedProcedureStepStartTime": "083457.956000",
      "PhotometricInterpretation": "MONOCHROME2",
      "PixelBandwidth": 2050.0,
      "PixelRepresentation": 0,
      "PixelSpacing": [1.9672131538391, 1.9672131538391],
      "ProtocolName": "dwi_acq-DTI-30-p2-s4",
      "RepetitionTime": 3600.0,
      "Rows": 122,
      "SAR": 0.16171970140875,
      "SamplesPerPixel": 1,
      "ScanOptions": "FS",
      "ScanningSequence": "EP",
      "SequenceVariant": [
        "SK",
        "SP"
],
      "SeriesDescription": "dwi_acq-DTI-30-p2-s4",
      "SeriesNumber": 13,
      "SeriesTime": "091209.360000",
      "SliceThickness": 2.0,
      "SmallestImagePixelValue": 0,
      "SoftwareVersions": "syngo MR E11",
      "SpacingBetweenSlices": 2.0,
      "SpecificCharacterSet": "ISO_IR 100",
      "StudyID": "25",
      "StudyTime": "083457.887000",
      "TransmitCoilName": "Body",
      "VariableFlipAngleFlag": "N",
      "WindowCenterWidthExplanation": "Algo1",
      "dBdt": 0.0},
    "slices": {
      "AcquisitionTime": ["091204.462500", "091201.877500", "091203.667500", "091202.075000", "091203.865000", "091202.275000", "091204.065000", "091202.472500", "091204.262500", "091202.870000", "091204.660000", "091203.070000", "091204.860000", "091203.270000", "091205.057500", "091203.467500", "091205.257500", "091202.672500", "091204.462500", "091201.877500", "091203.667500", "091202.075000", "091203.865000", "091202.275000", "091204.065000", "091202.472500", "091204.262500", "091202.870000", "091204.660000", "091203.070000", "091204.860000", "091203.270000", "091205.057500", "091203.467500", "091205.257500", "091202.672500", "091204.462500", "091201.877500", "091203.667500", "091202.075000", "091203.865000", "091202.275000", "091204.065000", "091202.472500", "091204.262500", "091202.870000", "091204.660000", "091203.070000", "091204.860000", "091203.270000", "091205.057500", "091203.467500", "091205.257500", "091202.672500", "091204.462500", "091201.877500", "091203.667500", "091202.075000", "091203.865000", "091202.275000", "091204.065000", "091202.472500", "091204.262500", "091202.870000", "091204.660000", "091203.070000", "091204.860000", "091203.270000", "091205.057500", "091203.467500", "091205.257500", "091202.672500", "091208.062500", "091205.477500", "091207.267500", "091205.675000", "091207.465000", "091205.875000", "091207.665000", "091206.072500", "091207.862500", "091206.470000", "091208.260000", "091206.670000", "091208.460000", "091206.870000", "091208.657500", "091207.067500", "091208.857500", "091206.272500", "091208.062500", "091205.477500", "091207.267500", "091205.675000", "091207.465000", "091205.875000", "091207.665000", "091206.072500", "091207.862500", "091206.470000", "091208.260000", "091206.670000", "091208.460000", "091206.870000", "091208.657500", "091207.067500", "091208.857500", "091206.272500", "091208.062500", "091205.477500", "091207.267500", "091205.675000", "091207.465000", "091205.875000", "091207.665000", "091206.072500", "091207.862500", "091206.470000", "091208.260000", "091206.670000", "091208.460000", "091206.870000", "091208.657500", "091207.067500", "091208.857500", "091206.272500", "091208.062500", "091205.477500", "091207.267500", "091205.675000", "091207.465000", "091205.875000", "091207.665000", "091206.072500", "091207.862500", "091206.470000", "091208.260000", "091206.670000", "091208.460000", "091206.870000", "091208.657500", "091207.067500", "091208.857500", "091206.272500", "091211.662500", "091209.077500", "091210.867500", "091209.275000", "091211.065000", "091209.475000", "091211.265000", "091209.672500", "091211.462500", "091210.070000", "091211.860000", "091210.270000", "091212.060000", "091210.470000", "091212.257500", "091210.667500", "091212.457500", "091209.872500", "091211.662500", "091209.077500", "091210.867500", "091209.275000", "091211.065000", "091209.475000", "091211.265000", "091209.672500", "091211.462500", "091210.070000", "091211.860000", "091210.270000", "091212.060000", "091210.470000", "091212.257500", "091210.667500", "091212.457500", "091209.872500", "091211.662500", "091209.077500", "091210.867500", "091209.275000", "091211.065000", "091209.475000", "091211.265000", "091209.672500", "091211.462500", "091210.070000", "091211.860000", "091210.270000", "091212.060000", "091210.470000", "091212.257500", "091210.667500", "091212.457500", "091209.872500", "091211.662500", "091209.077500", "091210.867500", "091209.275000", "091211.065000", "091209.475000", "091211.265000", "091209.672500", "091211.462500", "091210.070000", "091211.860000", "091210.270000", "091212.060000", "091210.470000", "091212.257500", "091210.667500", "091212.457500", "091209.872500", "091215.262500", "091212.677500", "091214.467500", "091212.875000", "091214.665000", "091213.075000", "091214.865000", "091213.272500", "091215.062500", "091213.670000", "091215.460000", "091213.870000", "091215.660000", "091214.070000", "091215.857500", "091214.267500", "091216.057500", "091213.472500", "091215.262500", "091212.677500", "091214.467500", "091212.875000", "091214.665000", "091213.075000", "091214.865000", "091213.272500", "091215.062500", "091213.670000", "091215.460000", "091213.870000", "091215.660000", "091214.070000", "091215.857500", "091214.267500", "091216.057500", "091213.472500", "091215.262500", "091212.677500", "091214.467500", "091212.875000", "091214.665000", "091213.075000", "091214.865000", "091213.272500", "091215.062500", "091213.670000", "091215.460000", "091213.870000", "091215.660000", "091214.070000", "091215.857500", "091214.267500", "091216.057500", "091213.472500", "091215.262500", "091212.677500", "091214.467500", "091212.875000", "091214.665000", "091213.075000", "091214.865000", "091213.272500", "091215.062500", "091213.670000", "091215.460000", "091213.870000", "091215.660000", "091214.070000", "091215.857500", "091214.267500", "091216.057500", "091213.472500", "091218.862500", "091216.277500", "091218.067500", "091216.475000", "091218.265000", "091216.675000", "091218.465000", "091216.872500", "091218.662500", "091217.270000", "091219.060000", "091217.470000", "091219.260000", "091217.670000", "091219.457500", "091217.867500", "091219.657500", "091217.072500", "091218.862500", "091216.277500", "091218.067500", "091216.475000", "091218.265000", "091216.675000", "091218.465000", "091216.872500", "091218.662500", "091217.270000", "091219.060000", "091217.470000", "091219.260000", "091217.670000", "091219.457500", "091217.867500", "091219.657500", "091217.072500", "091218.862500", "091216.277500", "091218.067500", "091216.475000", "091218.265000", "091216.675000", "091218.465000", "091216.872500", "091218.662500", "091217.270000", "091219.060000", "091217.470000", "091219.260000", "091217.670000", "091219.457500", "091217.867500", "091219.657500", "091217.072500", "091218.862500", "091216.277500", "091218.067500", "091216.475000", "091218.265000", "091216.675000", "091218.465000", "091216.872500", "091218.662500", "091217.270000", "091219.060000", "091217.470000", "091219.260000", "091217.670000", "091219.457500", "091217.867500", "091219.657500", "091217.072500", "091222.462500", "091219.877500", "091221.667500", "091220.075000", "091221.865000", "091220.275000", "091222.065000", "091220.472500", "091222.262500", "091220.870000", "091222.660000", "091221.070000", "091222.860000", "091221.270000", "091223.057500", "091221.467500", "091223.257500", "091220.672500", "091222.462500", "091219.877500", "091221.667500", "091220.075000", "091221.865000", "091220.275000", "091222.065000", "091220.472500", "091222.262500", "091220.870000", "091222.660000", "091221.070000", "091222.860000", "091221.270000", "091223.057500", "091221.467500", "091223.257500", "091220.672500", "091222.462500", "091219.877500", "091221.667500", "091220.075000", "091221.865000", "091220.275000", "091222.065000", "091220.472500", "091222.262500", "091220.870000", "091222.660000", "091221.070000", "091222.860000", "091221.270000", "091223.057500", "091221.467500", "091223.257500", "091220.672500", "091222.462500", "091219.877500", "091221.667500", "091220.075000", "091221.865000", "091220.275000", "091222.065000", "091220.472500", "091222.262500", "091220.870000", "091222.660000", "091221.070000", "091222.860000", "091221.270000", "091223.057500", "091221.467500", "091223.257500", "091220.672500", "091226.062500", "091223.477500", "091225.267500", "091223.675000", "091225.465000", "091223.875000", "091225.665000", "091224.072500", "091225.862500", "091224.470000", "091226.260000", "091224.670000", "091226.460000", "091224.870000", "091226.657500", "091225.067500", "091226.857500", "091224.272500", "091226.062500", "091223.477500", "091225.267500", "091223.675000", "091225.465000", "091223.875000", "091225.665000", "091224.072500", "091225.862500", "091224.470000", "091226.260000", "091224.670000", "091226.460000", "091224.870000", "091226.657500", "091225.067500", "091226.857500", "091224.272500", "091226.062500", "091223.477500", "091225.267500", "091223.675000", "091225.465000", "091223.875000", "091225.665000", "091224.072500", "091225.862500", "091224.470000", "091226.260000", "091224.670000", "091226.460000", "091224.870000", "091226.657500", "091225.067500", "091226.857500", "091224.272500", "091226.062500", "091223.477500", "091225.267500", "091223.675000", "091225.465000", "091223.875000", "091225.665000", "091224.072500", "091225.862500", "091224.470000", "091226.260000", "091224.670000", "091226.460000", "091224.870000", "091226.657500", "091225.067500", "091226.857500", "091224.272500", "091229.662500", "091227.077500", "091228.867500", "091227.275000", "091229.065000", "091227.475000", "091229.265000", "091227.672500", "091229.462500", "091228.070000", "091229.860000", "091228.270000", "091230.060000", "091228.470000", "091230.257500", "091228.667500", "091230.457500", "091227.872500", "091229.662500", "091227.077500", "091228.867500", "091227.275000", "091229.065000", "091227.475000", "091229.265000", "091227.672500", "091229.462500", "091228.070000", "091229.860000", "091228.270000", "091230.060000", "091228.470000", "091230.257500", "091228.667500", "091230.457500", "091227.872500", "091229.662500", "091227.077500", "091228.867500", "091227.275000", "091229.065000", "091227.475000", "091229.265000", "091227.672500", "091229.462500", "091228.070000", "091229.860000", "091228.270000", "091230.060000", "091228.470000", "091230.257500", "091228.667500", "091230.457500", "091227.872500", "091229.662500", "091227.077500", "091228.867500", "091227.275000", "091229.065000", "091227.475000", "091229.265000", "091227.672500", "091229.462500", "091228.070000", "091229.860000", "091228.270000", "091230.060000", "091228.470000", "091230.257500", "091228.667500", "091230.457500", "091227.872500", "091233.262500", "091230.677500", "091232.467500", "091230.875000", "091232.665000", "091231.075000", "091232.865000", "091231.272500", "091233.062500", "091231.670000", "091233.460000", "091231.870000", "091233.660000", "091232.070000", "091233.857500", "091232.267500", "091234.057500", "091231.472500", "091233.262500", "091230.677500", "091232.467500", "091230.875000", "091232.665000", "091231.075000", "091232.865000", "091231.272500", "091233.062500", "091231.670000", "091233.460000", "091231.870000", "091233.660000", "091232.070000", "091233.857500", "091232.267500", "091234.057500", "091231.472500", "091233.262500", "091230.677500", "091232.467500", "091230.875000", "091232.665000", "091231.075000", "091232.865000", "091231.272500", "091233.062500", "091231.670000", "091233.460000", "091231.870000", "091233.660000", "091232.070000", "091233.857500", "091232.267500", "091234.057500", "091231.472500", "091233.262500", "091230.677500", "091232.467500", "091230.875000", "091232.665000", "091231.075000", "091232.865000", "091231.272500", "091233.062500", "091231.670000", "091233.460000", "091231.870000", "091233.660000", "091232.070000", "091233.857500", "091232.267500", "091234.057500", "091231.472500", "091236.862500", "091234.277500", "091236.067500", "091234.475000", "091236.265000", "091234.675000", "091236.465000", "091234.872500", "091236.662500", "091235.270000", "091237.060000", "091235.470000", "091237.260000", "091235.670000", "091237.457500", "091235.867500", "091237.657500", "091235.072500", "091236.862500", "091234.277500", "091236.067500", "091234.475000", "091236.265000", "091234.675000", "091236.465000", "091234.872500", "091236.662500", "091235.270000", "091237.060000", "091235.470000", "091237.260000", "091235.670000", "091237.457500", "091235.867500", "091237.657500", "091235.072500", "091236.862500", "091234.277500", "091236.067500", "091234.475000", "091236.265000", "091234.675000", "091236.465000", "091234.872500", "091236.662500", "091235.270000", "091237.060000", "091235.470000", "091237.260000", "091235.670000", "091237.457500", "091235.867500", "091237.657500", "091235.072500", "091236.862500", "091234.277500", "091236.067500", "091234.475000", "091236.265000", "091234.675000", "091236.465000", "091234.872500", "091236.662500", "091235.270000", "091237.060000", "091235.470000", "091237.260000", "091235.670000", "091237.457500", "091235.867500", "091237.657500", "091235.072500", "091240.462500", "091237.877500", "091239.667500", "091238.075000", "091239.865000", "091238.275000", "091240.065000", "091238.472500", "091240.262500", "091238.870000", "091240.660000", "091239.070000", "091240.860000", "091239.270000", "091241.057500", "091239.467500", "091241.257500", "091238.672500", "091240.462500", "091237.877500", "091239.667500", "091238.075000", "091239.865000", "091238.275000", "091240.065000", "091238.472500", "091240.262500", "091238.870000", "091240.660000", "091239.070000", "091240.860000", "091239.270000", "091241.057500", "091239.467500", "091241.257500", "091238.672500", "091240.462500", "091237.877500", "091239.667500", "091238.075000", "091239.865000", "091238.275000", "091240.065000", "091238.472500", "091240.262500", "091238.870000", "091240.660000", "091239.070000", "091240.860000", "091239.270000", "091241.057500", "091239.467500", "091241.257500", "091238.672500", "091240.462500", "091237.877500", "091239.667500", "091238.075000", "091239.865000", "091238.275000", "091240.065000", "091238.472500", "091240.262500", "091238.870000", "091240.660000", "091239.070000", "091240.860000", "091239.270000", "091241.057500", "091239.467500", "091241.257500", "091238.672500", "091244.062500", "091241.477500", "091243.267500", "091241.675000", "091243.465000", "091241.875000", "091243.665000", "091242.072500", "091243.862500", "091242.470000", "091244.260000", "091242.670000", "091244.460000", "091242.870000", "091244.657500", "091243.067500", "091244.857500", "091242.272500", "091244.062500", "091241.477500", "091243.267500", "091241.675000", "091243.465000", "091241.875000", "091243.665000", "091242.072500", "091243.862500", "091242.470000", "091244.260000", "091242.670000", "091244.460000", "091242.870000", "091244.657500", "091243.067500", "091244.857500", "091242.272500", "091244.062500", "091241.477500", "091243.267500", "091241.675000", "091243.465000", "091241.875000", "091243.665000", "091242.072500", "091243.862500", "091242.470000", "091244.260000", "091242.670000", "091244.460000", "091242.870000", "091244.657500", "091243.067500", "091244.857500", "091242.272500", "091244.062500", "091241.477500", "091243.267500", "091241.675000", "091243.465000", "091241.875000", "091243.665000", "091242.072500", "091243.862500", "091242.470000", "091244.260000", "091242.670000", "091244.460000", "091242.870000", "091244.657500", "091243.067500", "091244.857500", "091242.272500", "091247.662500", "091245.077500", "091246.867500", "091245.275000", "091247.065000", "091245.475000", "091247.265000", "091245.672500", "091247.462500", "091246.070000", "091247.860000", "091246.270000", "091248.060000", "091246.470000", "091248.257500", "091246.667500", "091248.457500", "091245.872500", "091247.662500", "091245.077500", "091246.867500", "091245.275000", "091247.065000", "091245.475000", "091247.265000", "091245.672500", "091247.462500", "091246.070000", "091247.860000", "091246.270000", "091248.060000", "091246.470000", "091248.257500", "091246.667500", "091248.457500", "091245.872500", "091247.662500", "091245.077500", "091246.867500", "091245.275000", "091247.065000", "091245.475000", "091247.265000", "091245.672500", "091247.462500", "091246.070000", "091247.860000", "091246.270000", "091248.060000", "091246.470000", "091248.257500", "091246.667500", "091248.457500", "091245.872500", "091247.662500", "091245.077500", "091246.867500", "091245.275000", "091247.065000", "091245.475000", "091247.265000", "091245.672500", "091247.462500", "091246.070000", "091247.860000", "091246.270000", "091248.060000", "091246.470000", "091248.257500", "091246.667500", "091248.457500", "091245.872500", "091251.262500", "091248.677500", "091250.467500", "091248.875000", "091250.665000", "091249.075000", "091250.865000", "091249.272500", "091251.062500", "091249.670000", "091251.460000", "091249.870000", "091251.660000", "091250.070000", "091251.857500", "091250.267500", "091252.057500", "091249.472500", "091251.262500", "091248.677500", "091250.467500", "091248.875000", "091250.665000", "091249.075000", "091250.865000", "091249.272500", "091251.062500", "091249.670000", "091251.460000", "091249.870000", "091251.660000", "091250.070000", "091251.857500", "091250.267500", "091252.057500", "091249.472500", "091251.262500", "091248.677500", "091250.467500", "091248.875000", "091250.665000", "091249.075000", "091250.865000", "091249.272500", "091251.062500", "091249.670000", "091251.460000", "091249.870000", "091251.660000", "091250.070000", "091251.857500", "091250.267500", "091252.057500", "091249.472500", "091251.262500", "091248.677500", "091250.467500", "091248.875000", "091250.665000", "091249.075000", "091250.865000", "091249.272500", "091251.062500", "091249.670000", "091251.460000", "091249.870000", "091251.660000", "091250.070000", "091251.857500", "091250.267500", "091252.057500", "091249.472500", "091254.862500", "091252.277500", "091254.067500", "091252.475000", "091254.265000", "091252.675000", "091254.465000", "091252.872500", "091254.662500", "091253.270000", "091255.060000", "091253.470000", "091255.260000", "091253.670000", "091255.457500", "091253.867500", "091255.657500", "091253.072500", "091254.862500", "091252.277500", "091254.067500", "091252.475000", "091254.265000", "091252.675000", "091254.465000", "091252.872500", "091254.662500", "091253.270000", "091255.060000", "091253.470000", "091255.260000", "091253.670000", "091255.457500", "091253.867500", "091255.657500", "091253.072500", "091254.862500", "091252.277500", "091254.067500", "091252.475000", "091254.265000", "091252.675000", "091254.465000", "091252.872500", "091254.662500", "091253.270000", "091255.060000", "091253.470000", "091255.260000", "091253.670000", "091255.457500", "091253.867500", "091255.657500", "091253.072500", "091254.862500", "091252.277500", "091254.067500", "091252.475000", "091254.265000", "091252.675000", "091254.465000", "091252.872500", "091254.662500", "091253.270000", "091255.060000", "091253.470000", "091255.260000", "091253.670000", "091255.457500", "091253.867500", "091255.657500", "091253.072500", "091258.462500", "091255.877500", "091257.667500", "091256.075000", "091257.865000", "091256.275000", "091258.065000", "091256.472500", "091258.262500", "091256.870000", "091258.660000", "091257.070000", "091258.860000", "091257.270000", "091259.057500", "091257.467500", "091259.257500", "091256.672500", "091258.462500", "091255.877500", "091257.667500", "091256.075000", "091257.865000", "091256.275000", "091258.065000", "091256.472500", "091258.262500", "091256.870000", "091258.660000", "091257.070000", "091258.860000", "091257.270000", "091259.057500", "091257.467500", "091259.257500", "091256.672500", "091258.462500", "091255.877500", "091257.667500", "091256.075000", "091257.865000", "091256.275000", "091258.065000", "091256.472500", "091258.262500", "091256.870000", "091258.660000", "091257.070000", "091258.860000", "091257.270000", "091259.057500", "091257.467500", "091259.257500", "091256.672500", "091258.462500", "091255.877500", "091257.667500", "091256.075000", "091257.865000", "091256.275000", "091258.065000", "091256.472500", "091258.262500", "091256.870000", "091258.660000", "091257.070000", "091258.860000", "091257.270000", "091259.057500", "091257.467500", "091259.257500", "091256.672500", "091302.062500", "091259.477500", "091301.267500", "091259.675000", "091301.465000", "091259.875000", "091301.665000", "091300.072500", "091301.862500", "091300.470000", "091302.260000", "091300.670000", "091302.460000", "091300.870000", "091302.657500", "091301.067500", "091302.857500", "091300.272500", "091302.062500", "091259.477500", "091301.267500", "091259.675000", "091301.465000", "091259.875000", "091301.665000", "091300.072500", "091301.862500", "091300.470000", "091302.260000", "091300.670000", "091302.460000", "091300.870000", "091302.657500", "091301.067500", "091302.857500", "091300.272500", "091302.062500", "091259.477500", "091301.267500", "091259.675000", "091301.465000", "091259.875000", "091301.665000", "091300.072500", "091301.862500", "091300.470000", "091302.260000", "091300.670000", "091302.460000", "091300.870000", "091302.657500", "091301.067500", "091302.857500", "091300.272500", "091302.062500", "091259.477500", "091301.267500", "091259.675000", "091301.465000", "091259.875000", "091301.665000", "091300.072500", "091301.862500", "091300.470000", "091302.260000", "091300.670000", "091302.460000", "091300.870000", "091302.657500", "091301.067500", "091302.857500", "091300.272500", "091305.662500", "091303.077500", "091304.867500", "091303.275000", "091305.065000", "091303.475000", "091305.265000", "091303.672500", "091305.462500", "091304.070000", "091305.860000", "091304.270000", "091306.060000", "091304.470000", "091306.257500", "091304.667500", "091306.457500", "091303.872500", "091305.662500", "091303.077500", "091304.867500", "091303.275000", "091305.065000", "091303.475000", "091305.265000", "091303.672500", "091305.462500", "091304.070000", "091305.860000", "091304.270000", "091306.060000", "091304.470000", "091306.257500", "091304.667500", "091306.457500", "091303.872500", "091305.662500", "091303.077500", "091304.867500", "091303.275000", "091305.065000", "091303.475000", "091305.265000", "091303.672500", "091305.462500", "091304.070000", "091305.860000", "091304.270000", "091306.060000", "091304.470000", "091306.257500", "091304.667500", "091306.457500", "091303.872500", "091305.662500", "091303.077500", "091304.867500", "091303.275000", "091305.065000", "091303.475000", "091305.265000", "091303.672500", "091305.462500", "091304.070000", "091305.860000", "091304.270000", "091306.060000", "091304.470000", "091306.257500", "091304.667500", "091306.457500", "091303.872500", "091309.262500", "091306.677500", "091308.467500", "091306.875000", "091308.665000", "091307.075000", "091308.865000", "091307.272500", "091309.062500", "091307.670000", "091309.460000", "091307.870000", "091309.660000", "091308.070000", "091309.857500", "091308.267500", "091310.057500", "091307.472500", "091309.262500", "091306.677500", "091308.467500", "091306.875000", "091308.665000", "091307.075000", "091308.865000", "091307.272500", "091309.062500", "091307.670000", "091309.460000", "091307.870000", "091309.660000", "091308.070000", "091309.857500", "091308.267500", "091310.057500", "091307.472500", "091309.262500", "091306.677500", "091308.467500", "091306.875000", "091308.665000", "091307.075000", "091308.865000", "091307.272500", "091309.062500", "091307.670000", "091309.460000", "091307.870000", "091309.660000", "091308.070000", "091309.857500", "091308.267500", "091310.057500", "091307.472500", "091309.262500", "091306.677500", "091308.467500", "091306.875000", "091308.665000", "091307.075000", "091308.865000", "091307.272500", "091309.062500", "091307.670000", "091309.460000", "091307.870000", "091309.660000", "091308.070000", "091309.857500", "091308.267500", "091310.057500", "091307.472500", "091312.862500", "091310.277500", "091312.067500", "091310.475000", "091312.265000", "091310.675000", "091312.465000", "091310.872500", "091312.662500", "091311.270000", "091313.060000", "091311.470000", "091313.260000", "091311.670000", "091313.457500", "091311.867500", "091313.657500", "091311.072500", "091312.862500", "091310.277500", "091312.067500", "091310.475000", "091312.265000", "091310.675000", "091312.465000", "091310.872500", "091312.662500", "091311.270000", "091313.060000", "091311.470000", "091313.260000", "091311.670000", "091313.457500", "091311.867500", "091313.657500", "091311.072500", "091312.862500", "091310.277500", "091312.067500", "091310.475000", "091312.265000", "091310.675000", "091312.465000", "091310.872500", "091312.662500", "091311.270000", "091313.060000", "091311.470000", "091313.260000", "091311.670000", "091313.457500", "091311.867500", "091313.657500", "091311.072500", "091312.862500", "091310.277500", "091312.067500", "091310.475000", "091312.265000", "091310.675000", "091312.465000", "091310.872500", "091312.662500", "091311.270000", "091313.060000", "091311.