{
  "AcquisitionMatrixPE": 80,
  "AcquisitionNumber": 1,
  "AcquisitionTime": "09:58:6.817500",
  "BandwidthPerPixelPhaseEncode": 48.077,
  "BaseResolution": 80,
  "BodyPartExamined": "BRAIN",
  "ConsistencyInfo": "N4_VE11C_LATEST_20160120",
  "ConversionSoftware": "dcm2niix",
  "ConversionSoftwareVersion": "v1.0.20170923 (OpenJPEG build) GCC6.3.0",
  "DerivedVendorReportedEchoSpacing": 0.000519999,
  "DeviceSerialNumber": "66112",
  "DwellTime": 2.7e-06,
  "EchoTime": 0.035,
  "EchoTrainLength": 39,
  "EffectiveEchoSpacing": 0.00026,
  "FlipAngle": 90,
  "ImageType": [
    "ORIGINAL",
    "PRIMARY",
    "M",
    "ND",
    "NORM",
    "MOSAIC"
],
  "InstitutionAddress": "Maynard_3_Hanover_NH_US_03755",
  "InstitutionName": "Dartmouth_College_-_PBS",
  "MagneticFieldStrength": 3,
  "Manufacturer": "Siemens",
  "ManufacturersModelName": "Prisma",
  "Modality": "MR",
  "ParallelReductionFactorInPlane": 2,
  "PartialFourier": 1,
  "PercentPhaseFOV": 100,
  "PhaseEncodingDirection": "j-",
  "PhaseEncodingSteps": 79,
  "PhaseResolution": 1,
  "ProcedureStepDescription": "dbic_QA",
  "ProtocolName": "func-bold_task-rest_acq-p2",
  "PulseSequenceDetails": "%SiemensSeq%_ep2d_bold",
  "ReceiveCoilActiveElements": "HEA;HEP",
  "ReceiveCoilName": "Head_32",
  "ReconMatrixPE": 80,
  "RepetitionTime": 2,
  "ScanOptions": "FS",
  "ScanningSequence": "EP",
  "SequenceName": "_epfid2d1_80",
  "SequenceVariant": "SK",
  "SeriesDescription": "func-bold_task-rest_acq-p2",
  "SliceTiming": [0.99, 0, 1.0575, 0.0675, 1.1225, 0.1325, 1.1875, 0.2, 1.255, 0.265, 1.32, 0.33, 1.3875, 0.3975, 1.4525, 0.4625, 1.5175, 0.5275, 1.585, 0.595, 1.65, 0.66, 1.7175, 0.7275, 1.7825, 0.7925, 1.8475, 0.8575, 1.915, 0.925],
  "SoftwareVersions": "syngo_MR_E11",
  "StationName": "AWP66112",
  "TaskName": "rest",
  "TotalReadoutTime": 0.02054,
  "dcmmeta_affine": [
    [-2.9999167919158936, -0.021990938112139702, 0.005265697371214628, 123.28494262695312],
    [-0.01974029652774334, 2.8573968410491943, 1.2152539491653442, -119.62081146240234],
    [0.010468862019479275, -0.9136733412742615, 3.8004250526428223, -9.832428932189941],
    [0.0, 0.0, 0.0, 1.0]
],
  "dcmmeta_reorient_transform": [
    [0.0, -1.0, 0.0, 79.0],
    [1.0, 0.0, 0.0, 0.0],
    [0.0, 0.0, 1.0, 0.0],
    [0.0, 0.0, 0.0, 1.0]
],
  "dcmmeta_shape": [80, 80, 30, 200],
  "dcmmeta_slice_dim": 2,
  "dcmmeta_version": 0.6,
  "global": {
    "const": {
      "AccessionNumber": "qa",
      "AcquisitionMatrix": [80, 0, 0, 80],
      "AngioFlag": "N",
      "BitsAllocated": 16,
      "BitsStored": 12,
      "BodyPartExamined": "BRAIN",
      "Columns": 480,
      "EchoNumbers": 1,
      "EchoTime": 35.0,
      "EchoTrainLength": 39,
      "FlipAngle": 90.0,
      "HighBit": 11,
      "ImageOrientationPatient": [0.99997226204013, 0.00658009860568, 0.00348962070726, -0.0073303124078, 0.95246565294751, 0.30455778840029],
      "ImagePositionPatient": [-717.13282869714, -681.54100012403, -266.84107059259],
      "ImageType": [
        "ORIGINAL",
        "PRIMARY",
        "M",
        "ND",
        "NORM",
        "MOSAIC"
],
      "ImagedNucleus": "1H",
      "ImagingFrequency": 123.252466,
      "InPlanePhaseEncodingDirection": "COL",
      "MRAcquisitionType": "2D",
      "MagneticFieldStrength": 3.0,
      "Manufacturer": "SIEMENS",
      "ManufacturerModelName": "Prisma",
      "Modality": "MR",
      "NumberOfAverages": 1.0,
      "NumberOfPhaseEncodingSteps": 79,
      "PercentPhaseFieldOfView": 100.0,
      "PercentSampling": 100.0,
      "PerformedProcedureStepStartTime": "095354.504000",
      "PhotometricInterpretation": "MONOCHROME2",
      "PixelBandwidth": 2315.0,
      "PixelRepresentation": 0,
      "PixelSpacing": [3.0, 3.0],
      "PositionReferenceIndicator": "",
      "ProtocolName": "func-bold_task-rest_acq-p2",
      "RepetitionTime": 2000.0,
      "Rows": 480,
      "SAR": 0.05558688739323,
      "SamplesPerPixel": 1,
      "ScanOptions": "FS",
      "ScanningSequence": "EP",
      "SequenceName": "*epfid2d1_80",
      "SequenceVariant": "SK",
      "SeriesDescription": "func-bold_task-rest_acq-p2",
      "SeriesNumber": 5,
      "SeriesTime": "095853.955000",
      "SliceLocation": -45.636062493354,
      "SliceThickness": 3.5,
      "SmallestImagePixelValue": 0,
      "SoftwareVersions": "syngo MR E11",
      "SpacingBetweenSlices": 3.9900000269014,
      "SpecificCharacterSet": "ISO_IR 100",
      "StudyID": "103",
      "StudyTime": "095354.349000",
      "TransmitCoilName": "Body",
      "VariableFlipAngleFlag": "N",
      "WindowCenterWidthExplanation": "Algo1",
      "dBdt": 0.0},
    "slices": {}
  },
  "time": {
    "samples": {
      "AcquisitionNumber": [1, 2, 3, 4, 5, 6, 7, 8, 9, 10, 11, 12, 13, 14, 15, 16, 17, 18, 19, 20, 21, 22, 23, 24, 25, 26, 27, 28, 29, 30, 31, 32, 33, 34, 35, 36, 37, 38, 39, 40, 41, 42, 43, 44, 45, 46, 47, 48, 49, 50, 51, 52, 53, 54, 55, 56, 57, 58, 59, 60, 61, 62, 63, 64, 65, 66, 67, 68, 69, 70, 71, 72, 73, 74, 75, 76, 77, 78, 79, 80, 81, 82, 83, 84, 85, 86, 87, 88, 89, 90, 91, 92, 93, 94, 95, 96, 97, 98, 99, 100, 101, 102, 103, 104, 105, 106, 107, 108, 109, 110, 111, 112, 113, 114, 115, 116, 117, 118, 119, 120, 121, 122, 123, 124, 125, 126, 127, 128, 129, 130, 131, 132, 133, 134, 135, 136, 137, 138, 139, 140, 141, 142, 143, 144, 145, 146, 147, 148, 149, 150, 151, 152, 153, 154, 155, 156, 157, 158, 159, 160, 161, 162, 163, 164, 165, 166, 167, 168, 169, 170, 171, 172, 173, 174, 175, 176, 177, 178, 179, 180, 181, 182, 183, 184, 185, 186, 187, 188, 189, 190, 191, 192, 193, 194, 195, 196, 197, 198, 199, 200],
      "AcquisitionTime": ["095806.817500", "095808.817500", "095810.817500", "095812.817500", "095814.817500", "095816.817500", "095818.817500", "095820.817500", "095822.817500", "095824.817500", "095826.817500", "095828.817500", "095830.817500", "095832.817500", "095834.817500", "095836.817500", "095838.817500", "095840.817500", "095842.817500", "095844.817500", "095846.817500", "095848.817500", "095850.817500", "095852.817500", "095854.817500", "095856.817500", "095858.817500", "095900.817500", "095902.817500", "095904.817500", "095906.817500", "095908.817500", "095910.817500", "095912.817500", "095914.817500", "095916.817500", "095918.817500", "095920.817500", "095922.817500", "095924.817500", "095926.817500", "095928.817500", "095930.817500", "095932.817500", "095934.817500", "095936.817500", "095938.817500", "095940.817500", "095942.817500", "095944.817500", "095946.817500", "095948.817500", "095950.817500", "095952.817500", "095954.817500", "095956.817500", "095958.817500", "100000.817500", "100002.817500", "100004.817500", "100006.817500", "100008.817500", "100010.817500", "100012.817500", "100014.817500", "100016.817500", "100018.817500", "100020.817500", "100022.817500", "100024.817500", "100026.817500", "100028.817500", "100030.817500", "100032.817500", "100034.817500", "100036.817500", "100038.817500", "100040.817500", "100042.817500", "100044.817500", "100046.817500", "100048.817500", "100050.817500", "100052.817500", "100054.817500", "100056.817500", "100058.817500", "100100.817500", "100102.817500", "100104.817500", "100106.817500", "100108.817500", "100110.817500", "100112.817500", "100114.817500", "100116.817500", "100118.817500", "100120.817500", "100122.817500", "100124.817500", "100126.817500", "100128.817500", "100130.817500", "100132.817500", "100134.817500", "100136.817500", "100138.817500", "100140.817500", "100142.817500", "100144.817500", "100146.817500", "100148.817500", "100150.817500", "100152.817500", "100154.817500", "100156.817500", "100158.817500", "100200.817500", "100202.817500", "100204.817500", "100206.817500", "100208.817500", "100210.817500", "100212.817500", "100214.817500", "100216.817500", "100218.817500", "100220.817500", "100222.817500", "100224.817500", "100226.817500", "100228.817500", "100230.817500", "100232.817500", "100234.817500", "100236.817500", "100238.817500", "100240.817500", "100242.817500", "100244.817500", "100246.817500", "100248.817500", "100250.817500", "100252.817500", "100254.817500", "100256.817500", "100258.817500", "100300.817500", "100302.817500", "100304.817500", "100306.817500", "100308.817500", "100310.817500", "100312.817500", "100314.817500", "100316.817500", "100318.817500", "100320.817500", "100322.817500", "100324.817500", "100326.817500", "100328.817500", "100330.817500", "100332.817500", "100334.817500", "100336.817500", "100338.817500", "100340.817500", "100342.817500", "100344.817500", "100346.817500", "100348.817500", "100350.817500", "100352.817500", "100354.817500", "100356.817500", "100358.817500", "100400.817500", "100402.817500", "100404.817500", "100406.817500", "100408.817500", "100410.817500", "100412.817500", "100414.817500", "100416.817500", "100418.817500", "100420.817500", "100422.817500", "100424.817500", "100426.817500", "100428.817500", "100430.817500", "100432.817500", "100434.817500", "100436.817500", "100438.817500", "100440.817500", "100442.817500", "100444.817500"],
      "ContentTime": ["095853.959000", "095853.963000", "095853.965000", "095853.968000", "095853.971000", "095853.973000", "095853.976000", "095853.979000", "095853.981000", "095853.984000", "095853.987000", "095853.989000", "095853.992000", "095853.995000", "095853.997000", "095854.009000", "095854.011000", "095854.014000", "095854.017000", "095854.019000", "095854.022000", "095854.025000", "095854.027000", "095933.952000", "095933.955000", "095933.967000", "095933.970000", "095933.972000", "095933.975000", "095933.978000", "095933.980000", "095933.983000", "095933.985000", "095933.988000", "095933.991000", "095933.993000", "095933.996000", "095933.998000", "095934.002000", "095934.005000", "095934.007000", "095934.010000", "095934.013000", "100013.952000", "100013.955000", "100013.958000", "100013.961000", "100013.963000", "100013.966000", "100013.968000", "100013.971000", "100013.974000", "100013.976000", "100013.979000", "100013.982000", "100013.984000", "100013.987000", "100013.990000", "100013.992000", "100013.995000", "100013.997000", "100014.001000", "100014.004000", "100053.953000", "100053.956000", "100053.959000", "100053.961000", "100053.964000", "100053.967000", "100053.969000", "100053.972000", "100053.975000", "100053.977000", "100053.980000", "100053.982000", "100053.985000", "100053.988000", "100053.990000", "100053.993000", "100053.995000", "100053.998000", "100054.002000", "100054.004000", "100133.952000", "100133.955000", "100133.958000", "100133.961000", "100133.963000", "100133.966000", "100133.968000", "100133.971000", "100133.974000", "100133.976000", "100133.979000", "100133.982000", "100133.984000", "100133.992000", "100133.995000", "100133.997000", "100134.001000", "100134.004000", "100134.006000", "100134.009000", "100213.952000", "100213.955000", "100213.958000", "100213.960000", "100213.963000", "100213.966000", "100213.968000", "100213.971000", "100213.974000", "100213.976000", "100213.979000", "100213.981000", "100213.984000", "100213.987000", "100213.989000", "100213.992000", "100213.994000", "100213.997000", "100214.001000", "100214.004000", "100253.954000", "100253.956000", "100253.959000", "100253.962000", "100253.964000", "100253.967000", "100253.969000", "100253.972000", "100253.975000", "100253.977000", "100253.980000", "100253.983000", "100253.985000", "100253.988000", "100253.990000", "100253.993000", "100253.996000", "100253.998000", "100254.002000", "100254.005000", "100333.953000", "100333.955000", "100333.958000", "100333.961000", "100333.963000", "100333.966000", "100333.968000", "100333.971000", "100333.974000", "100333.976000", "100333.979000", "100333.982000", "100333.984000", "100333.987000", "100333.990000", "100333.992000", "100333.995000", "100333.998000", "100334.001000", "100334.004000", "100413.952000", "100413.955000", "100413.958000", "100413.961000", "100413.963000", "100413.966000", "100413.969000", "100413.971000", "100413.974000", "100413.977000", "100413.979000", "100413.982000", "100413.985000", "100413.987000", "100413.990000", "100413.993000", "100413.995000", "100413.998000", "100414.001000", "100414.004000", "100446.703000", "100446.706000", "100446.708000", "100446.711000", "100446.714000", "100446.716000", "100446.719000", "100446.722000", "100446.724000", "100446.727000", "100446.730000", "100446.735000", "100446.739000", "100446.748000", "100446.751000", "100446.754000", "100446.762000"],
      "InstanceCreationTime": ["095853.959000", "095853.963000", "095853.965000", "095853.968000", "095853.971000", "095853.973000", "095853.976000", "095853.979000", "095853.981000", "095853.984000", "095853.987000", "095853.989000", "095853.992000", "095853.995000", "095853.997000", "095854.009000", "095854.011000", "095854.014000", "095854.017000", "095854.019000", "095854.022000", "095854.025000", "095854.027000", "095933.952000", "095933.955000", "095933.967000", "095933.970000", "095933.972000", "095933.975000", "095933.978000", "095933.980000", "095933.983000", "095933.985000", "095933.988000", "095933.991000", "095933.993000", "095933.996000", "095933.998000", "095934.002000", "095934.005000", "095934.007000", "095934.010000", "095934.013000", "100013.952000", "100013.955000", "100013.958000", "100013.961000", "100013.963000", "100013.966000", "100013.968000", "100013.971000", "100013.974000", "100013.976000", "100013.979000", "100013.982000", "100013.984000", "100013.987000", "100013.990000", "100013.992000", "100013.995000", "100013.997000", "100014.001000", "100014.004000", "100053.953000", "100053.956000", "100053.959000", "100053.961000", "100053.964000", "100053.967000", "100053.969000", "100053.972000", "100053.975000", "100053.977000", "100053.980000", "100053.982000", "100053.985000", "100053.988000", "100053.990000", "100053.993000", "100053.995000", "100053.998000", "100054.002000", "100054.004000", "100133.952000", "100133.955000", "100133.958000", "100133.961000", "100133.963000", "100133.966000", "100133.968000", "100133.971000", "100133.974000", "100133.976000", "100133.979000", "100133.982000", "100133.984000", "100133.992000", "100133.995000", "100133.997000", "100134.001000", "100134.004000", "100134.006000", "100134.009000", "100213.952000", "100213.955000", "100213.958000", "100213.960000", "100213.963000", "100213.966000", "100213.968000", "100213.971000", "100213.974000", "100213.976000", "100213.979000", "100213.981000", "100213.984000", "100213.987000", "100213.989000", "100213.992000", "100213.994000", "100213.997000", "100214.001000", "100214.004000", "100253.954000", "100253.956000", "100253.959000", "100253.962000", "100253.964000", "100253.967000", "100253.969000", "100253.972000", "100253.975000", "100253.977000", "100253.980000", "100253.983000", "100253.985000", "100253.988000", "100253.990000", "100253.993000", "100253.996000", "100253.998000", "100254.002000", "100254.005000", "100333.953000", "100333.955000", "100333.958000", "100333.961000", "100333.963000", "100333.966000", "100333.968000", "100333.971000", "100333.974000", "100333.976000", "100333.979000", "100333.982000", "100333.984000", "100333.987000", "100333.990000", "100333.992000", "100333.995000", "100333.998000", "100334.001000", "100334.004000", "100413.952000", "100413.955000", "100413.958000", "100413.961000", "100413.963000", "100413.966000", "100413.969000", "100413.971000", "100413.974000", "100413.977000", "100413.979000", "100413.982000", "100413.985000", "100413.987000", "100413.990000", "100413.993000", "100413.995000", "100413.998000", "100414.001000", "100414.004000", "100446.703000", "100446.706000", "100446.708000", "100446.711000", "100446.714000", "100446.716000", "100446.719000", "100446.722000", "100446.724000", "100446.727000", "100446.730000", "100446.735000", "100446.739000", "100446.748000", "100446.751000", "100446.754000", "100446.762000"],
      "InstanceNumber": [1, 2, 3, 4, 5, 6, 7, 8, 9, 10, 11, 12, 13, 14, 15, 16, 17, 18, 19, 20, 21, 22, 23, 24, 25, 26, 27, 28, 29, 30, 31, 32, 33, 34, 35, 36, 37, 38, 39, 40, 41, 42, 43, 44, 45, 46, 47, 48, 49, 50, 51, 52, 53, 54, 55, 56, 57, 58, 59, 60, 61, 62, 63, 64, 65, 66, 67, 68, 69, 70, 71, 72, 73, 74, 75, 76, 77, 78, 79, 80, 81, 82, 83, 84, 85, 86, 87, 88, 89, 90, 91, 92, 93, 94, 95, 96, 97, 98, 99, 100, 101, 102, 103, 104, 105, 106, 107, 108, 109, 110, 111, 112, 113, 114, 115, 116, 117, 118, 119, 120, 121, 122, 123, 124, 125, 126, 127, 128, 129, 130, 131, 132, 133, 134, 135, 136, 137, 138, 139, 140, 141, 142, 143, 144, 145, 146, 147, 148, 149, 150, 151, 152, 153, 154, 155, 156, 157, 158, 159, 160, 161, 162, 163, 164, 165, 166, 167, 168, 169, 170, 171, 172, 173, 174, 175, 176, 177, 178, 179, 180, 181, 182, 183, 184, 185, 186, 187, 188, 189, 190, 191, 192, 193, 194, 195, 196, 197, 198, 199, 200],
      "LargestImagePixelValue": [2148, 2143, 2155, 2151, 2152, 2149, 2149, 2155, 2154, 2149, 2151, 2151, 2148, 2156, 2148, 2153, 2151, 2149, 2147, 2146, 2143, 2149, 2152, 2148, 2148, 2149, 2152, 2147, 2149, 2153, 2146, 2151, 2142, 2148, 2151, 2151, 2149, 2155, 2146, 2159, 2148, 2147, 2146, 2146, 2145, 2148, 2146, 2147, 2149, 2145, 2148, 2148, 2148, 2146, 2150, 2147, 2148, 2147, 2146, 2151, 2147, 2147, 2154, 2148, 2148, 2151, 2148, 2146, 2149, 2148, 2148, 2148, 2146, 2150, 2148, 2150, 2150, 2147, 2148, 2148, 2155, 2147, 2146, 2143, 2149, 2149, 2153, 2149, 2147, 2150, 2150, 2149, 2147, 2149, 2152, 2146, 2150, 2148, 2142, 2148, 2151, 2150, 2147, 2147, 2150, 2144, 2151, 2142, 2149, 2148, 2148, 2149, 2147, 2146, 2150, 2152, 2150, 2151, 2151, 2148, 2149, 2144, 2149, 2150, 2144, 2150, 2149, 2143, 2149, 2148, 2148, 2152, 2151, 2147, 2148, 2150, 2152, 2144, 2148, 2151, 2153, 2148, 2145, 2155, 2147, 2150, 2148, 2142, 2149, 2147, 2145, 2149, 2148, 2144, 2144, 2148, 2154, 2145, 2142, 2141, 2149, 2153, 2149, 2143, 2149, 2148, 2153, 2150, 2151, 2149, 2146, 2147, 2144, 2142, 2149, 2146, 2146, 2147, 2142, 2145, 2143, 2146, 2144, 2144, 2149, 2150, 2146, 2148, 2143, 2144, 2148, 2147, 2149, 2149, 2145, 2148, 2150, 2148, 2149, 2154],
      "WindowCenter": [1024.0, 1024.0, 1024.0, 1024.0, 1025.0, 1024.0, 1024.0, 1024.0, 1023.0, 1024.0, 1024.0, 1024.0, 1024.0, 1024.0, 1024.0, 1025.0, 1024.0, 1023.0, 1023.0, 1024.0, 1024.0, 1024.0, 1024.0, 1024.0, 1024.0, 1024.0, 1024.0, 1024.0, 1024.0, 1024.0, 1023.0, 1024.0, 1024.0, 1025.0, 1024.0, 1024.0, 1023.0, 1024.0, 1024.0, 1024.0, 1024.0, 1024.0, 1024.0, 1024.0, 1024.0, 1024.0, 1024.0, 1023.0, 1023.0, 1024.0, 1023.0, 1023.0, 1023.0, 1023.0, 1024.0, 1023.0, 1023.0, 1023.0, 1023.0, 1024.0, 1024.0, 1023.0, 1023.0, 1023.0, 1023.0, 1023.0, 1024.0, 1023.0, 1024.0, 1023.0, 1023.0, 1024.0, 1024.0, 1023.0, 1023.0, 1023.0, 1024.0, 1022.0, 1023.0, 1023.0, 1023.0, 1023.0, 1023.0, 1024.0, 1022.0, 1023.0, 1023.0, 1024.0, 1024.0, 1023.0, 1023.0, 1024.0, 1023.0, 1022.0, 1023.0, 1023.0, 1024.0, 1023.0, 1023.0, 1022.0, 1022.0, 1023.0, 1023.0, 1023.0, 1024.0, 1023.0, 1023.0, 1023.0, 1023.0, 1023.0, 1022.0, 1023.0, 1023.0, 1024.0, 1023.0, 1024.0, 1022.0, 1023.0, 1024.0, 1024.0, 1023.0, 1023.0, 1023.0, 1023.0, 1023.0, 1022.0, 1023.0, 1023.0, 1024.0, 1023.0, 1023.0, 1023.0, 1022.0, 1023.0, 1023.0, 1023.0, 1023.0, 1023.0, 1023.0, 1023.0, 1023.0, 1023.0, 1023.0, 1023.0, 1022.0, 1023.0, 1023.0, 1023.0, 1023.0, 1023.0, 1022.0, 1023.0, 1023.0, 1024.0, 1023.0, 1023.0, 1023.0, 1024.0, 1022.0, 1023.0, 1022.0, 1023.0, 1023.0, 1023.0, 1023.0, 1023.0, 1023.0, 1023.0, 1022.0, 1023.0, 1023.0, 1023.0, 1023.0, 1023.0, 1023.0, 1023.0, 1023.0, 1023.0, 1023.0, 1022.0, 1022.0, 1023.0, 1023.0, 1023.0, 1024.0, 1023.0, 1023.0, 1023.0, 1023.0, 1022.0, 1023.0, 1022.0, 1022.0, 1022.0, 1023.0, 1023.0, 1023.0, 1023.0, 1022.0, 1023.0],
      "WindowWidth": [2262.0, 2261.0, 2261.0, 2261.0, 2261.0, 2261.0, 2261.0, 2261.0, 2260.0, 2261.0, 2261.0, 2261.0, 2261.0, 2261.0, 2261.0, 2261.0, 2261.0, 2260.0, 2260.0, 2260.0, 2261.0, 2261.0, 2261.0, 2261.0, 2261.0, 2261.0, 2261.0, 2261.0, 2261.0, 2261.0, 2260.0, 2261.0, 2261.0, 2261.0, 2261.0, 2261.0, 2260.0, 2261.0, 2261.0, 2261.0, 2261.0, 2261.0, 2261.0, 2261.0, 2261.0, 2261.0, 2261.0, 2260.0, 2260.0, 2260.0, 2260.0, 2261.0, 2260.0, 2260.0, 2261.0, 2260.0, 2261.0, 2260.0, 2260.0, 2261.0, 2261.0, 2260.0, 2260.0, 2260.0, 2260.0, 2260.0, 2261.0, 2260.0, 2260.0, 2260.0, 2260.0, 2260.0, 2261.0, 2260.0, 2260.0, 2260.0, 2261.0, 2260.0, 2260.0, 2260.0, 2260.0, 2260.0, 2260.0, 2260.0, 2260.0, 2260.0, 2260.0, 2260.0, 2260.0, 2260.0, 2260.0, 2260.0, 2260.0, 2260.0, 2260.0, 2259.0, 2261.0, 2261.0, 2260.0, 2260.0, 2260.0, 2260.0, 2260.0, 2260.0, 2261.0, 2260.0, 2260.0, 2261.0, 2260.0, 2260.0, 2260.0, 2260.0, 2260.0, 2261.0, 2260.0, 2261.0, 2260.0, 2260.0, 2261.0, 2261.0, 2260.0, 2260.0, 2259.0, 2260.0, 2260.0, 2260.0, 2260.0, 2260.0, 2261.0, 2260.0, 2260.0, 2260.0, 2260.0, 2260.0, 2260.0, 2260.0, 2260.0, 2260.0, 2260.0, 2260.0, 2260.0, 2260.0, 2260.0, 2260.0, 2260.0, 2260.0, 2260.0, 2260.0, 2260.0, 2260.0, 2259.0, 2260.0, 2260.0, 2261.0, 2260.0, 2260.0, 2260.0, 2261.0, 2259.0, 2260.0, 2260.0, 2260.0, 2260.0, 2260.0, 2260.0, 2260.0, 2260.0, 2260.0, 2260.0, 2260.0, 2260.0, 2260.0, 2260.0, 2260.0, 2260.0, 2260.0, 2260.0, 2260.0, 2260.0, 2259.0, 2260.0, 2260.0, 2260.0, 2260.0, 2261.0, 2260.0, 2260.0, 2260.0, 2260.0, 2259.0, 2260.0, 2259.0, 2259.0, 2259.0, 2260.0, 2260.0, 2260.0, 2260.0, 2259.0, 2260.0]
    },
    "slices": {}
  }
}