{
  "AcquisitionMatrixPE": 80,
  "AcquisitionNumber": 1,
  "AcquisitionTime": "10:05:2.137500",
  "BandwidthPerPixelPhaseEncode": 44.643,
  "BaseResolution": 80,
  "BodyPartExamined": "BRAIN",
  "ConsistencyInfo": "N4_VE11C_LATEST_20160120",
  "ConversionSoftware": "dcm2niix",
  "ConversionSoftwareVersion": "v1.0.20170923 (OpenJPEG build) GCC6.3.0",
  "DerivedVendorReportedEchoSpacing": 0.000559998,
  "DeviceSerialNumber": "66112",
  "DwellTime": 2.7e-06,
  "EchoTime": 0.035,
  "EchoTrainLength": 39,
  "EffectiveEchoSpacing": 0.000279999,
  "FlipAngle": 90,
  "ImageType": [
    "ORIGINAL",
    "PRIMARY",
    "M",
    "ND",
    "NORM",
    "MOSAIC"
],
  "InstitutionAddress": "Maynard_3_Hanover_NH_US_03755",
  "InstitutionName": "Dartmouth_College_-_PBS",
  "MagneticFieldStrength": 3,
  "Manufacturer": "Siemens",
  "ManufacturersModelName": "Prisma",
  "Modality": "MR",
  "MultibandAccelerationFactor": 4,
  "ParallelReductionFactorInPlane": 2,
  "PartialFourier": 1,
  "PercentPhaseFOV": 100,
  "PhaseEncodingDirection": "j-",
  "PhaseEncodingSteps": 79,
  "PhaseResolution": 1,
  "ProcedureStepDescription": "dbic_QA",
  "ProtocolName": "func-bold_task-rest_acq-p2-s4-3.5mm",
  "PulseSequenceDetails": "%SiemensSeq%_ep2d_bold",
  "ReceiveCoilActiveElements": "HEA;HEP",
  "ReceiveCoilName": "Head_32",
  "ReconMatrixPE": 80,
  "RepetitionTime": 2,
  "ScanOptions": "FS",
  "ScanningSequence": "EP",
  "SequenceName": "_epfid2d1_80",
  "SequenceVariant": "SK",
  "SeriesDescription": "func-bold_task-rest_acq-p2-s4-3.5mm",
  "SliceTiming": [1.485, 0, 0.99, 0.2475, 1.2375, 0.7425, 1.7325, 0.495, 1.485, 0, 0.99, 0.2475, 1.2375, 0.7425, 1.7325, 0.495, 1.485, 0, 0.99, 0.2475, 1.2375, 0.7425, 1.7325, 0.495, 1.485, 0, 0.99, 0.2475, 1.2375, 0.7425, 1.7325, 0.495],
  "SoftwareVersions": "syngo_MR_E11",
  "StationName": "AWP66112",
  "TaskName": "rest",
  "TotalReadoutTime": 0.0221199,
  "dcmmeta_affine": [
    [-2.9999167919158936, -0.021990938112139702, 0.005265696905553341, 123.27967834472656],
    [-0.01974029652774334, 2.8573968410491943, 1.2152539491653442, -120.83606719970703],
    [0.010468862019479275, -0.9136733412742615, 3.8004250526428223, -13.632855415344238],
    [0.0, 0.0, 0.0, 1.0]
],
  "dcmmeta_reorient_transform": [
    [0.0, -1.0, 0.0, 79.0],
    [1.0, 0.0, 0.0, 0.0],
    [0.0, 0.0, 1.0, 0.0],
    [0.0, 0.0, 0.0, 1.0]
],
  "dcmmeta_shape": [80, 80, 32, 200],
  "dcmmeta_slice_dim": 2,
  "dcmmeta_version": 0.6,
  "global": {
    "const": {
      "AccessionNumber": "qa",
      "AcquisitionMatrix": [80, 0, 0, 80],
      "AngioFlag": "N",
      "BitsAllocated": 16,
      "BitsStored": 12,
      "BodyPartExamined": "BRAIN",
      "Columns": 480,
      "EchoNumbers": 1,
      "EchoTime": 35.0,
      "EchoTrainLength": 39,
      "FlipAngle": 90.0,
      "HighBit": 11,
      "ImageOrientationPatient": [0.99997226204013, 0.00658009860568, 0.00348962070726, -0.0073303124078, 0.95246565294751, 0.30455778840029],
      "ImagePositionPatient": [-717.1275629844, -680.32574629408, -270.64149707574],
      "ImageType": [
        "ORIGINAL",
        "PRIMARY",
        "M",
        "ND",
        "NORM",
        "MOSAIC"
],
      "ImagedNucleus": "1H",
      "ImagingFrequency": 123.252466,
      "InPlanePhaseEncodingDirection": "COL",
      "MRAcquisitionType": "2D",
      "MagneticFieldStrength": 3.0,
      "Manufacturer": "SIEMENS",
      "ManufacturerModelName": "Prisma",
      "Modality": "MR",
      "NumberOfAverages": 1.0,
      "NumberOfPhaseEncodingSteps": 79,
      "PercentPhaseFieldOfView": 100.0,
      "PercentSampling": 100.0,
      "PerformedProcedureStepStartTime": "095354.504000",
      "PhotometricInterpretation": "MONOCHROME2",
      "PixelBandwidth": 2315.0,
      "PixelRepresentation": 0,
      "PixelSpacing": [3.0, 3.0],
      "PositionReferenceIndicator": "",
      "ProtocolName": "func-bold_task-rest_acq-p2-s4-3.5mm",
      "RepetitionTime": 2000.0,
      "Rows": 480,
      "SAR": 0.02090228923688,
      "SamplesPerPixel": 1,
      "ScanOptions": "FS",
      "ScanningSequence": "EP",
      "SequenceName": "*epfid2d1_80",
      "SequenceVariant": "SK",
      "SeriesDescription": "func-bold_task-rest_acq-p2-s4-3.5mm",
      "SeriesNumber": 7,
      "SeriesTime": "100554.024000",
      "SliceLocation": -49.626063878418,
      "SliceThickness": 3.5,
      "SmallestImagePixelValue": 0,
      "SoftwareVersions": "syngo MR E11",
      "SpacingBetweenSlices": 3.9899999973167,
      "SpecificCharacterSet": "ISO_IR 100",
      "StudyID": "103",
      "StudyTime": "095354.349000",
      "TransmitCoilName": "Body",
      "VariableFlipAngleFlag": "N",
      "WindowCenter": 950.0,
      "WindowCenterWidthExplanation": "Algo1",
      "dBdt": 0.0},
    "slices": {}
  },
  "time": {
    "samples": {
      "AcquisitionNumber": [1, 2, 3, 4, 5, 6, 7, 8, 9, 10, 11, 12, 13, 14, 15, 16, 17, 18, 19, 20, 21, 22, 23, 24, 25, 26, 27, 28, 29, 30, 31, 32, 33, 34, 35, 36, 37, 38, 39, 40, 41, 42, 43, 44, 45, 46, 47, 48, 49, 50, 51, 52, 53, 54, 55, 56, 57, 58, 59, 60, 61, 62, 63, 64, 65, 66, 67, 68, 69, 70, 71, 72, 73, 74, 75, 76, 77, 78, 79, 80, 81, 82, 83, 84, 85, 86, 87, 88, 89, 90, 91, 92, 93, 94, 95, 96, 97, 98, 99, 100, 101, 102, 103, 104, 105, 106, 107, 108, 109, 110, 111, 112, 113, 114, 115, 116, 117, 118, 119, 120, 121, 122, 123, 124, 125, 126, 127, 128, 129, 130, 131, 132, 133, 134, 135, 136, 137, 138, 139, 140, 141, 142, 143, 144, 145, 146, 147, 148, 149, 150, 151, 152, 153, 154, 155, 156, 157, 158, 159, 160, 161, 162, 163, 164, 165, 166, 167, 168, 169, 170, 171, 172, 173, 174, 175, 176, 177, 178, 179, 180, 181, 182, 183, 184, 185, 186, 187, 188, 189, 190, 191, 192, 193, 194, 195, 196, 197, 198, 199, 200],
      "AcquisitionTime": ["100502.137500", "100504.137500", "100506.137500", "100508.137500", "100510.137500", "100512.137500", "100514.137500", "100516.137500", "100518.137500", "100520.137500", "100522.137500", "100524.137500", "100526.137500", "100528.137500", "100530.137500", "100532.137500", "100534.137500", "100536.137500", "100538.137500", "100540.137500", "100542.137500", "100544.137500", "100546.137500", "100548.137500", "100550.137500", "100552.137500", "100554.137500", "100556.137500", "100558.137500", "100600.137500", "100602.137500", "100604.137500", "100606.137500", "100608.137500", "100610.137500", "100612.137500", "100614.137500", "100616.137500", "100618.137500", "100620.137500", "100622.137500", "100624.137500", "100626.137500", "100628.137500", "100630.137500", "100632.137500", "100634.137500", "100636.137500", "100638.137500", "100640.137500", "100642.137500", "100644.137500", "100646.137500", "100648.137500", "100650.137500", "100652.137500", "100654.137500", "100656.137500", "100658.137500", "100700.137500", "100702.137500", "100704.137500", "100706.137500", "100708.137500", "100710.137500", "100712.137500", "100714.137500", "100716.137500", "100718.137500", "100720.137500", "100722.137500", "100724.137500", "100726.137500", "100728.137500", "100730.137500", "100732.137500", "100734.137500", "100736.137500", "100738.137500", "100740.137500", "100742.137500", "100744.137500", "100746.137500", "100748.137500", "100750.137500", "100752.137500", "100754.137500", "100756.137500", "100758.137500", "100800.137500", "100802.137500", "100804.137500", "100806.137500", "100808.137500", "100810.137500", "100812.137500", "100814.137500", "100816.137500", "100818.137500", "100820.137500", "100822.137500", "100824.137500", "100826.137500", "100828.137500", "100830.137500", "100832.137500", "100834.137500", "100836.137500", "100838.137500", "100840.137500", "100842.137500", "100844.137500", "100846.137500", "100848.137500", "100850.137500", "100852.137500", "100854.137500", "100856.137500", "100858.137500", "100900.137500", "100902.137500", "100904.137500", "100906.137500", "100908.137500", "100910.137500", "100912.137500", "100914.137500", "100916.137500", "100918.137500", "100920.137500", "100922.137500", "100924.137500", "100926.137500", "100928.137500", "100930.137500", "100932.137500", "100934.137500", "100936.137500", "100938.137500", "100940.137500", "100942.137500", "100944.137500", "100946.137500", "100948.137500", "100950.137500", "100952.137500", "100954.137500", "100956.137500", "100958.137500", "101000.137500", "101002.137500", "101004.137500", "101006.137500", "101008.137500", "101010.137500", "101012.137500", "101014.137500", "101016.137500", "101018.137500", "101020.137500", "101022.137500", "101024.137500", "101026.137500", "101028.137500", "101030.137500", "101032.137500", "101034.137500", "101036.137500", "101038.137500", "101040.137500", "101042.137500", "101044.137500", "101046.137500", "101048.137500", "101050.137500", "101052.137500", "101054.137500", "101056.137500", "101058.137500", "101100.137500", "101102.137500", "101104.137500", "101106.137500", "101108.137500", "101110.137500", "101112.137500", "101114.137500", "101116.137500", "101118.137500", "101120.137500", "101122.137500", "101124.137500", "101126.137500", "101128.137500", "101130.137500", "101132.137500", "101134.137500", "101136.137500", "101138.137500", "101140.137500"],
      "ContentTime": ["100554.027000", "100554.043000", "100554.045000", "100554.048000", "100554.051000", "100554.053000", "100554.056000", "100554.061000", "100554.063000", "100554.066000", "100554.068000", "100554.071000", "100554.074000", "100554.076000", "100554.088000", "100554.091000", "100554.093000", "100554.096000", "100554.098000", "100554.101000", "100554.104000", "100554.106000", "100554.109000", "100554.111000", "100554.114000", "100554.117000", "100634.022000", "100634.025000", "100634.028000", "100634.031000", "100634.033000", "100634.036000", "100634.039000", "100634.041000", "100634.044000", "100634.046000", "100634.049000", "100634.052000", "100634.054000", "100634.057000", "100634.059000", "100634.062000", "100634.065000", "100634.067000", "100634.070000", "100634.072000", "100714.022000", "100714.025000", "100714.028000", "100714.030000", "100714.033000", "100714.036000", "100714.038000", "100714.041000", "100714.043000", "100714.046000", "100714.049000", "100714.060000", "100714.063000", "100714.066000", "100714.068000", "100714.071000", "100714.074000", "100714.076000", "100714.079000", "100714.082000", "100754.023000", "100754.026000", "100754.029000", "100754.031000", "100754.034000", "100754.037000", "100754.039000", "100754.042000", "100754.044000", "100754.047000", "100754.050000", "100754.060000", "100754.062000", "100754.065000", "100754.067000", "100754.070000", "100754.073000", "100754.076000", "100754.078000", "100754.092000", "100834.023000", "100834.025000", "100834.028000", "100834.031000", "100834.034000", "100834.036000", "100834.039000", "100834.042000", "100834.044000", "100834.047000", "100834.049000", "100834.052000", "100834.055000", "100834.057000", "100834.060000", "100834.063000", "100834.065000", "100834.068000", "100834.070000", "100834.073000", "100914.023000", "100914.025000", "100914.028000", "100914.031000", "100914.035000", "100914.045000", "100914.048000", "100914.050000", "100914.053000", "100914.056000", "100914.058000", "100914.061000", "100914.064000", "100914.066000", "100914.069000", "100914.071000", "100914.074000", "100914.077000", "100914.079000", "100914.082000", "100954.024000", "100954.026000", "100954.029000", "100954.032000", "100954.034000", "100954.037000", "100954.040000", "100954.042000", "100954.045000", "100954.048000", "100954.050000", "100954.053000", "100954.056000", "100954.058000", "100954.061000", "100954.064000", "100954.066000", "100954.069000", "100954.072000", "100954.074000", "101034.022000", "101034.025000", "101034.028000", "101034.031000", "101034.034000", "101034.036000", "101034.039000", "101034.042000", "101034.044000", "101034.047000", "101034.050000", "101034.052000", "101034.055000", "101034.057000", "101034.060000", "101034.063000", "101034.065000", "101034.068000", "101034.071000", "101034.073000", "101114.023000", "101114.025000", "101114.028000", "101114.031000", "101114.033000", "101114.036000", "101114.039000", "101114.041000", "101114.044000", "101114.047000", "101114.049000", "101114.052000", "101114.055000", "101114.057000", "101114.060000", "101114.063000", "101114.065000", "101114.068000", "101114.071000", "101114.073000", "101140.657000", "101140.660000", "101140.662000", "101140.665000", "101140.669000", "101140.672000", "101140.674000", "101140.677000", "101140.680000", "101140.682000", "101140.685000", "101140.688000", "101140.691000", "101140.695000"],
      "InstanceCreationTime": ["100554.027000", "100554.043000", "100554.045000", "100554.048000", "100554.051000", "100554.053000", "100554.056000", "100554.061000", "100554.063000", "100554.066000", "100554.068000", "100554.071000", "100554.074000", "100554.076000", "100554.088000", "100554.091000", "100554.093000", "100554.096000", "100554.098000", "100554.101000", "100554.104000", "100554.106000", "100554.109000", "100554.111000", "100554.114000", "100554.117000", "100634.022000", "100634.025000", "100634.028000", "100634.031000", "100634.033000", "100634.036000", "100634.039000", "100634.041000", "100634.044000", "100634.046000", "100634.049000", "100634.052000", "100634.054000", "100634.057000", "100634.059000", "100634.062000", "100634.065000", "100634.067000", "100634.070000", "100634.072000", "100714.022000", "100714.025000", "100714.028000", "100714.030000", "100714.033000", "100714.036000", "100714.038000", "100714.041000", "100714.043000", "100714.046000", "100714.049000", "100714.060000", "100714.063000", "100714.066000", "100714.068000", "100714.071000", "100714.074000", "100714.076000", "100714.079000", "100714.082000", "100754.023000", "100754.026000", "100754.029000", "100754.031000", "100754.034000", "100754.037000", "100754.039000", "100754.042000", "100754.044000", "100754.047000", "100754.050000", "100754.060000", "100754.062000", "100754.065000", "100754.067000", "100754.070000", "100754.073000", "100754.076000", "100754.078000", "100754.092000", "100834.023000", "100834.025000", "100834.028000", "100834.031000", "100834.034000", "100834.036000", "100834.039000", "100834.042000", "100834.044000", "100834.047000", "100834.049000", "100834.052000", "100834.055000", "100834.057000", "100834.060000", "100834.063000", "100834.065000", "100834.068000", "100834.070000", "100834.073000", "100914.023000", "100914.025000", "100914.028000", "100914.031000", "100914.035000", "100914.045000", "100914.048000", "100914.050000", "100914.053000", "100914.056000", "100914.058000", "100914.061000", "100914.064000", "100914.066000", "100914.069000", "100914.071000", "100914.074000", "100914.077000", "100914.079000", "100914.082000", "100954.024000", "100954.026000", "100954.029000", "100954.032000", "100954.034000", "100954.037000", "100954.040000", "100954.042000", "100954.045000", "100954.048000", "100954.050000", "100954.053000", "100954.056000", "100954.058000", "100954.061000", "100954.064000", "100954.066000", "100954.069000", "100954.072000", "100954.074000", "101034.022000", "101034.025000", "101034.028000", "101034.031000", "101034.034000", "101034.036000", "101034.039000", "101034.042000", "101034.044000", "101034.047000", "101034.050000", "101034.052000", "101034.055000", "101034.057000", "101034.060000", "101034.063000", "101034.065000", "101034.068000", "101034.071000", "101034.073000", "101114.023000", "101114.025000", "101114.028000", "101114.031000", "101114.033000", "101114.036000", "101114.039000", "101114.041000", "101114.044000", "101114.047000", "101114.049000", "101114.052000", "101114.055000", "101114.057000", "101114.060000", "101114.063000", "101114.065000", "101114.068000", "101114.071000", "101114.073000", "101140.657000", "101140.660000", "101140.662000", "101140.665000", "101140.669000", "101140.672000", "101140.674000", "101140.677000", "101140.680000", "101140.682000", "101140.685000", "101140.688000", "101140.691000", "101140.695000"],
      "InstanceNumber": [1, 2, 3, 4, 5, 6, 7, 8, 9, 10, 11, 12, 13, 14, 15, 16, 17, 18, 19, 20, 21, 22, 23, 24, 25, 26, 27, 28, 29, 30, 31, 32, 33, 34, 35, 36, 37, 38, 39, 40, 41, 42, 43, 44, 45, 46, 47, 48, 49, 50, 51, 52, 53, 54, 55, 56, 57, 58, 59, 60, 61, 62, 63, 64, 65, 66, 67, 68, 69, 70, 71, 72, 73, 74, 75, 76, 77, 78, 79, 80, 81, 82, 83, 84, 85, 86, 87, 88, 89, 90, 91, 92, 93, 94, 95, 96, 97, 98, 99, 100, 101, 102, 103, 104, 105, 106, 107, 108, 109, 110, 111, 112, 113, 114, 115, 116, 117, 118, 119, 120, 121, 122, 123, 124, 125, 126, 127, 128, 129, 130, 131, 132, 133, 134, 135, 136, 137, 138, 139, 140, 141, 142, 143, 144, 145, 146, 147, 148, 149, 150, 151, 152, 153, 154, 155, 156, 157, 158, 159, 160, 161, 162, 163, 164, 165, 166, 167, 168, 169, 170, 171, 172, 173, 174, 175, 176, 177, 178, 179, 180, 181, 182, 183, 184, 185, 186, 187, 188, 189, 190, 191, 192, 193, 194, 195, 196, 197, 198, 199, 200],
      "LargestImagePixelValue": [2148, 2148, 2153, 2150, 2148, 2145, 2151, 2145, 2146, 2152, 2149, 2147, 2151, 2147, 2147, 2147, 2150, 2145, 2148, 2148, 2154, 2146, 2150, 2149, 2151, 2148, 2150, 2146, 2149, 2154, 2144, 2148, 2146, 2150, 2145, 2149, 2153, 2150, 2148, 2145, 2151, 2152, 2147, 2148, 2151, 2149, 2153, 2147, 2148, 2152, 2152, 2146, 2145, 2146, 2146, 2143, 2148, 2152, 2153, 2145, 2143, 2149, 2149, 2147, 2147, 2153, 2151, 2147, 2150, 2153, 2149, 2149, 2151, 2148, 2148, 2150, 2153, 2147, 2156, 2145, 2148, 2144, 2149, 2148, 2153, 2151, 2147, 2143, 2147, 2151, 2150, 2152, 2148, 2149, 2154, 2146, 2145, 2150, 2148, 2148, 2150, 2148, 2145, 2146, 2149, 2146, 2150, 2150, 2151, 2153, 2151, 2150, 2148, 2145, 2153, 2150, 2150, 2147, 2149, 2151, 2143, 2148, 2147, 2150, 2149, 2148, 2149, 2149, 2150, 2147, 2149, 2146, 2149, 2152, 2149, 2152, 2155, 2149, 2150, 2145, 2153, 2150, 2151, 2147, 2147, 2151, 2151, 2156, 2148, 2144, 2146, 2154, 2155, 2152, 2152, 2150, 2145, 2149, 2146, 2153, 2145, 2155, 2150, 2150, 2149, 2144, 2149, 2148, 2156, 2153, 2154, 2150, 2149, 2150, 2147, 2153, 2155, 2154, 2150, 2155, 2150, 2148, 2149, 2144, 2152, 2155, 2149, 2150, 2148, 2153, 2150, 2152, 2148, 2151, 2151, 2150, 2149, 2148, 2148, 2153],
      "WindowWidth": [2192.0, 2192.0, 2191.0, 2192.0, 2192.0, 2192.0, 2192.0, 2192.0, 2191.0, 2191.0, 2191.0, 2191.0, 2192.0, 2192.0, 2191.0, 2192.0, 2191.0, 2192.0, 2191.0, 2191.0, 2191.0, 2192.0, 2191.0, 2192.0, 2192.0, 2191.0, 2191.0, 2192.0, 2192.0, 2192.0, 2191.0, 2191.0, 2192.0, 2192.0, 2192.0, 2191.0, 2192.0, 2192.0, 2192.0, 2192.0, 2192.0, 2192.0, 2191.0, 2192.0, 2192.0, 2192.0, 2192.0, 2192.0, 2192.0, 2192.0, 2191.0, 2191.0, 2191.0, 2191.0, 2191.0, 2191.0, 2192.0, 2192.0, 2192.0, 2191.0, 2192.0, 2192.0, 2191.0, 2191.0, 2192.0, 2192.0, 2191.0, 2192.0, 2192.0, 2191.0, 2191.0, 2191.0, 2191.0, 2192.0, 2192.0, 2192.0, 2192.0, 2191.0, 2192.0, 2192.0, 2191.0, 2192.0, 2192.0, 2191.0, 2192.0, 2192.0, 2191.0, 2192.0, 2192.0, 2192.0, 2192.0, 2192.0, 2192.0, 2191.0, 2192.0, 2192.0, 2192.0, 2192.0, 2191.0, 2192.0, 2191.0, 2192.0, 2191.0, 2191.0, 2191.0, 2192.0, 2191.0, 2191.0, 2192.0, 2191.0, 2191.0, 2191.0, 2192.0, 2191.0, 2191.0, 2192.0, 2192.0, 2192.0, 2191.0, 2192.0, 2191.0, 2192.0, 2191.0, 2192.0, 2191.0, 2192.0, 2191.0, 2192.0, 2191.0, 2192.0, 2191.0, 2191.0, 2191.0, 2192.0, 2191.0, 2191.0, 2192.0, 2192.0, 2191.0, 2191.0, 2191.0, 2191.0, 2191.0, 2191.0, 2191.0, 2191.0, 2191.0, 2191.0, 2191.0, 2192.0, 2191.0, 2192.0, 2191.0, 2192.0, 2191.0, 2192.0, 2191.0, 2192.0, 2191.0, 2191.0, 2191.0, 2191.0, 2191.0, 2191.0, 2191.0, 2191.0, 2191.0, 2191.0, 2191.0, 2191.0, 2191.0, 2191.0, 2191.0, 2191.0, 2191.0, 2191.0, 2191.0, 2191.0, 2191.0, 2191.0, 2191.0, 2191.0, 2191.0, 2191.0, 2191.0, 2191.0, 2191.0, 2191.0, 2191.0, 2191.0, 2191.0, 2191.0, 2191.0, 2191.0, 2191.0, 2191.0, 2191.0, 2191.0, 2191.0, 2191.0]
    },
    "slices": {}
  }
}