{
  "AcquisitionMatrixPE": 80,
  "AcquisitionNumber": 1,
  "AcquisitionTime": "09:43:47.537500",
  "BandwidthPerPixelPhaseEncode": 25,
  "BaseResolution": 80,
  "BodyPartExamined": "BRAIN",
  "CoilCombinationMethod": "Sum of Squares",
  "ConsistencyInfo": "N4_VE11C_LATEST_20160120",
  "ConversionSoftware": "dcm2niix",
  "ConversionSoftwareVersion": "v1.0.20220720",
  "DerivedVendorReportedEchoSpacing": 0.0005,
  "DeviceSerialNumber": "66112",
  "DwellTime": 2.7e-06,
  "EchoTime": 0.03,
  "EchoTrainLength": 80,
  "EffectiveEchoSpacing": 0.0005,
  "FlipAngle": 77,
  "HeudiconvVersion": "0.13.1",
  "ImageOrientationPatientDICOM": [0.984594, -0.174855, -0.000290412, 0.165825, 0.933218, 0.318758],
  "ImageOrientationText": "Tra>Cor(18.3)>Sag(3.2)",
  "ImageType": [
    "ORIGINAL",
    "PRIMARY",
    "M",
    "ND",
    "NORM",
    "MOSAIC"
],
  "ImagingFrequency": 123.252,
  "InPlanePhaseEncodingDirectionDICOM": "COL",
  "InstitutionAddress": "Maynard 3,Hanover,NH,US,03755",
  "InstitutionName": "Dartmouth College - PBS",
  "InstitutionalDepartmentName": "Department",
  "MRAcquisitionType": "2D",
  "MagneticFieldStrength": 3,
  "Manufacturer": "Siemens",
  "ManufacturersModelName": "Prisma",
  "MatrixCoilMode": "SENSE",
  "Modality": "MR",
  "NonlinearGradientCorrection": false,
  "PartialFourier": 1,
  "PatientPosition": "HFS",
  "PercentPhaseFOV": 100,
  "PercentSampling": 100,
  "PhaseEncodingDirection": "j-",
  "PhaseEncodingSteps": 80,
  "PhaseResolution": 1,
  "PixelBandwidth": 2315,
  "ProcedureStepDescription": "dbic^QA",
  "ProtocolName": "func-bold_fa-77",
  "PulseSequenceDetails": "%SiemensSeq%\\ep2d_bold",
  "ReceiveCoilActiveElements": "HC1-7;NC1,2",
  "ReceiveCoilName": "HeadNeck_64",
  "ReconMatrixPE": 80,
  "RepetitionTime": 2,
  "SAR": 0.0265903,
  "ScanOptions": "FS",
  "ScanningSequence": "EP",
  "SequenceName": "*epfid2d1_80",
  "SequenceVariant": "SK",
  "SeriesDescription": "func-bold_fa-77",
  "SeriesNumber": 7,
  "ShimSetting": [4141, -7685, -7507, 207, -83, -353, -27, 77],
  "SliceThickness": 3.5,
  "SliceTiming": [0.99, 0, 1.0575, 0.0675, 1.1225, 0.1325, 1.19, 0.2, 1.255, 0.265, 1.32, 0.33, 1.3875, 0.3975, 1.4525, 0.4625, 1.52, 0.53, 1.585, 0.595, 1.65, 0.66, 1.7175, 0.7275, 1.7825, 0.7925, 1.85, 0.86, 1.915, 0.925],
  "SoftwareVersions": "syngo MR E11",
  "SpacingBetweenSlices": 3.99,
  "StationName": "AWP66112",
  "TotalReadoutTime": 0.0395,
  "TxRefAmp": 216.889,
  "dcmmeta_affine": [
    [-2.953782558441162, 0.49747422337532043, 0.22130677103996277, 96.63191223144531],
    [0.5245640873908997, 2.7996532917022705, 1.2524436712265015, -131.51004028320312],
    [-0.0008712365524843335, -0.956274688243866, 3.7818655967712402, -36.981204986572266],
    [0.0, 0.0, 0.0, 1.0]
],
  "dcmmeta_reorient_transform": [
    [0.0, -1.0, 0.0, 79.0],
    [1.0, 0.0, 0.0, 0.0],
    [0.0, 0.0, 1.0, 0.0],
    [0.0, 0.0, 0.0, 1.0]
],
  "dcmmeta_shape": [80, 80, 30, 200],
  "dcmmeta_slice_dim": 2,
  "dcmmeta_version": 0.6,
  "global": {
    "const": {
      "AccessionNumber": "qa64",
      "AcquisitionMatrix": [80, 0, 0, 80],
      "AngioFlag": "N",
      "BitsAllocated": 16,
      "BitsStored": 12,
      "BodyPartExamined": "BRAIN",
      "Columns": 480,
      "EchoNumbers": 1,
      "EchoTime": 30.0,
      "EchoTrainLength": 80,
      "FlipAngle": 77.0,
      "HighBit": 11,
      "ImageOrientationPatient": [0.98459420607795, -0.1748546968729, -0.000290412175, 0.16582473776246, 0.93321773834355, 0.31875822999096],
      "ImagePositionPatient": [-826.18373776303, -544.68038763301, -303.60759695496],
      "ImageType": [
        "ORIGINAL",
        "PRIMARY",
        "M",
        "ND",
        "NORM",
        "MOSAIC"
],
      "ImagedNucleus": "1H",
      "ImagingFrequency": 123.252354,
      "InPlanePhaseEncodingDirection": "COL",
      "MRAcquisitionType": "2D",
      "MagneticFieldStrength": 3.0,
      "Manufacturer": "SIEMENS",
      "ManufacturerModelName": "Prisma",
      "Modality": "MR",
      "NumberOfAverages": 1.0,
      "NumberOfPhaseEncodingSteps": 80,
      "PercentPhaseFieldOfView": 100.0,
      "PercentSampling": 100.0,
      "PerformedProcedureStepStartTime": "093502.245000",
      "PhotometricInterpretation": "MONOCHROME2",
      "PixelBandwidth": 2315.0,
      "PixelRepresentation": 0,
      "PixelSpacing": [3.0, 3.0],
      "ProtocolName": "func-bold_fa-77",
      "RepetitionTime": 2000.0,
      "Rows": 480,
      "SAR": 0.02659032519468,
      "SamplesPerPixel": 1,
      "ScanOptions": "FS",
      "ScanningSequence": "EP",
      "SequenceName": "*epfid2d1_80",
      "SequenceVariant": "SK",
      "SeriesDescription": "func-bold_fa-77",
      "SeriesNumber": 7,
      "SeriesTime": "094427.552000",
      "SliceLocation": -70.972827104281,
      "SliceThickness": 3.5,
      "SmallestImagePixelValue": 0,
      "SoftwareVersions": "syngo MR E11",
      "SpacingBetweenSlices": 3.9899999380952,
      "SpecificCharacterSet": "ISO_IR 100",
      "StudyID": "16",
      "StudyTime": "093502.175000",
      "TransmitCoilName": "Body",
      "VariableFlipAngleFlag": "N",
      "WindowCenterWidthExplanation": "Algo1",
      "dBdt": 0.0},
    "slices": {}
  },
  "time": {
    "samples": {
      "AcquisitionNumber": [1, 2, 3, 4, 5, 6, 7, 8, 9, 10, 11, 12, 13, 14, 15, 16, 17, 18, 19, 20, 21, 22, 23, 24, 25, 26, 27, 28, 29, 30, 31, 32, 33, 34, 35, 36, 37, 38, 39, 40, 41, 42, 43, 44, 45, 46, 47, 48, 49, 50, 51, 52, 53, 54, 55, 56, 57, 58, 59, 60, 61, 62, 63, 64, 65, 66, 67, 68, 69, 70, 71, 72, 73, 74, 75, 76, 77, 78, 79, 80, 81, 82, 83, 84, 85, 86, 87, 88, 89, 90, 91, 92, 93, 94, 95, 96, 97, 98, 99, 100, 101, 102, 103, 104, 105, 106, 107, 108, 109, 110, 111, 112, 113, 114, 115, 116, 117, 118, 119, 120, 121, 122, 123, 124, 125, 126, 127, 128, 129, 130, 131, 132, 133, 134, 135, 136, 137, 138, 139, 140, 141, 142, 143, 144, 145, 146, 147, 148, 149, 150, 151, 152, 153, 154, 155, 156, 157, 158, 159, 160, 161, 162, 163, 164, 165, 166, 167, 168, 169, 170, 171, 172, 173, 174, 175, 176, 177, 178, 179, 180, 181, 182, 183, 184, 185, 186, 187, 188, 189, 190, 191, 192, 193, 194, 195, 196, 197, 198, 199, 200],
      "AcquisitionTime": ["094347.537500", "094349.537500", "094351.537500", "094353.537500", "094355.537500", "094357.537500", "094359.537500", "094401.537500", "094403.537500", "094405.537500", "094407.537500", "094409.537500", "094411.537500", "094413.537500", "094415.537500", "094417.537500", "094419.537500", "094421.537500", "094423.537500", "094425.537500", "094427.537500", "094429.537500", "094431.537500", "094433.537500", "094435.537500", "094437.537500", "094439.537500", "094441.537500", "094443.537500", "094445.537500", "094447.537500", "094449.537500", "094451.537500", "094453.537500", "094455.537500", "094457.537500", "094459.537500", "094501.537500", "094503.537500", "094505.537500", "094507.537500", "094509.537500", "094511.537500", "094513.537500", "094515.537500", "094517.537500", "094519.537500", "094521.537500", "094523.537500", "094525.537500", "094527.537500", "094529.537500", "094531.537500", "094533.537500", "094535.537500", "094537.537500", "094539.537500", "094541.537500", "094543.537500", "094545.537500", "094547.537500", "094549.537500", "094551.537500", "094553.537500", "094555.537500", "094557.537500", "094559.537500", "094601.537500", "094603.537500", "094605.537500", "094607.537500", "094609.537500", "094611.537500", "094613.537500", "094615.537500", "094617.537500", "094619.537500", "094621.537500", "094623.537500", "094625.537500", "094627.537500", "094629.537500", "094631.537500", "094633.537500", "094635.537500", "094637.537500", "094639.537500", "094641.537500", "094643.537500", "094645.537500", "094647.537500", "094649.537500", "094651.537500", "094653.537500", "094655.537500", "094657.537500", "094659.537500", "094701.537500", "094703.537500", "094705.537500", "094707.537500", "094709.537500", "094711.537500", "094713.537500", "094715.537500", "094717.537500", "094719.537500", "094721.537500", "094723.537500", "094725.537500", "094727.537500", "094729.537500", "094731.537500", "094733.537500", "094735.537500", "094737.537500", "094739.537500", "094741.537500", "094743.537500", "094745.537500", "094747.537500", "094749.537500", "094751.537500", "094753.537500", "094755.537500", "094757.537500", "094759.537500", "094801.537500", "094803.537500", "094805.537500", "094807.537500", "094809.537500", "094811.537500", "094813.537500", "094815.537500", "094817.537500", "094819.537500", "094821.537500", "094823.537500", "094825.537500", "094827.537500", "094829.537500", "094831.537500", "094833.537500", "094835.537500", "094837.537500", "094839.537500", "094841.537500", "094843.537500", "094845.537500", "094847.537500", "094849.537500", "094851.537500", "094853.537500", "094855.537500", "094857.537500", "094859.537500", "094901.537500", "094903.537500", "094905.537500", "094907.537500", "094909.537500", "094911.537500", "094913.537500", "094915.537500", "094917.537500", "094919.537500", "094921.537500", "094923.537500", "094925.537500", "094927.537500", "094929.537500", "094931.537500", "094933.537500", "094935.537500", "094937.537500", "094939.537500", "094941.537500", "094943.537500", "094945.537500", "094947.537500", "094949.537500", "094951.537500", "094953.537500", "094955.537500", "094957.537500", "094959.537500", "095001.537500", "095003.537500", "095005.537500", "095007.537500", "095009.537500", "095011.537500", "095013.537500", "095015.537500", "095017.537500", "095019.537500", "095021.537500", "095023.537500", "095025.537500"],
      "ContentTime": ["094427.565000", "094427.568000", "094427.571000", "094427.573000", "094427.576000", "094427.579000", "094427.581000", "094427.584000", "094427.586000", "094427.589000", "094427.592000", "094427.594000", "094427.608000", "094427.610000", "094427.613000", "094427.615000", "094427.618000", "094427.620000", "094427.623000", "094427.626000", "094507.550000", "094507.554000", "094507.562000", "094507.565000", "094507.568000", "094507.570000", "094507.573000", "094507.575000", "094507.578000", "094507.581000", "094507.583000", "094507.586000", "094507.588000", "094507.591000", "094507.593000", "094507.596000", "094507.598000", "094507.601000", "094507.604000", "094507.606000", "094547.551000", "094547.554000", "094547.556000", "094547.559000", "094547.562000", "094547.564000", "094547.567000", "094547.570000", "094547.572000", "094547.575000", "094547.578000", "094547.580000", "094547.583000", "094547.585000", "094547.588000", "094547.591000", "094547.593000", "094547.596000", "094547.598000", "094547.601000", "094627.550000", "094627.553000", "094627.556000", "094627.558000", "094627.561000", "094627.564000", "094627.566000", "094627.569000", "094627.579000", "094627.581000", "094627.584000", "094627.586000", "094627.589000", "094627.591000", "094627.594000", "094627.597000", "094627.599000", "094627.602000", "094627.604000", "094627.607000", "094707.550000", "094707.553000", "094707.556000", "094707.559000", "094707.561000", "094707.564000", "094707.567000", "094707.569000", "094707.572000", "094707.575000", "094707.577000", "094707.580000", "094707.582000", "094707.585000", "094707.587000", "094707.590000", "094707.593000", "094707.595000", "094707.598000", "094707.600000", "094747.550000", "094747.553000", "094747.556000", "094747.559000", "094747.561000", "094747.564000", "094747.567000", "094747.569000", "094747.572000", "094747.574000", "094747.577000", "094747.579000", "094747.582000", "094747.585000", "094747.587000", "094747.590000", "094747.592000", "094747.595000", "094747.597000", "094747.600000", "094827.550000", "094827.552000", "094827.555000", "094827.558000", "094827.560000", "094827.563000", "094827.565000", "094827.568000", "094827.571000", "094827.573000", "094827.576000", "094827.578000", "094827.581000", "094827.583000", "094827.586000", "094827.589000", "094827.591000", "094827.594000", "094827.596000", "094827.599000", "094907.550000", "094907.553000", "094907.556000", "094907.559000", "094907.561000", "094907.564000", "094907.566000", "094907.569000", "094907.571000", "094907.574000", "094907.577000", "094907.579000", "094907.582000", "094907.584000", "094907.587000", "094907.589000", "094907.592000", "094907.595000", "094907.598000", "094907.600000", "094947.550000", "094947.553000", "094947.556000", "094947.558000", "094947.561000", "094947.564000", "094947.566000", "094947.569000", "094947.571000", "094947.574000", "094947.577000", "094947.579000", "094947.582000", "094947.584000", "094947.587000", "094947.589000", "094947.592000", "094947.594000", "094947.597000", "094947.600000", "095026.920000", "095026.923000", "095026.926000", "095026.929000", "095026.931000", "095026.934000", "095026.936000", "095026.939000", "095026.942000", "095026.944000", "095026.947000", "095026.950000", "095026.954000", "095026.958000", "095026.960000", "095026.963000", "095026.966000", "095026.970000", "095026.975000", "095026.979000"],
      "InstanceCreationTime": ["094427.565000", "094427.568000", "094427.571000", "094427.573000", "094427.576000", "094427.579000", "094427.581000", "094427.584000", "094427.586000", "094427.589000", "094427.592000", "094427.594000", "094427.608000", "094427.610000", "094427.613000", "094427.615000", "094427.618000", "094427.620000", "094427.623000", "094427.626000", "094507.550000", "094507.554000", "094507.562000", "094507.565000", "094507.568000", "094507.570000", "094507.573000", "094507.575000", "094507.578000", "094507.581000", "094507.583000", "094507.586000", "094507.588000", "094507.591000", "094507.593000", "094507.596000", "094507.598000", "094507.601000", "094507.604000", "094507.606000", "094547.551000", "094547.554000", "094547.556000", "094547.559000", "094547.562000", "094547.564000", "094547.567000", "094547.570000", "094547.572000", "094547.575000", "094547.578000", "094547.580000", "094547.583000", "094547.585000", "094547.588000", "094547.591000", "094547.593000", "094547.596000", "094547.598000", "094547.601000", "094627.550000", "094627.553000", "094627.556000", "094627.558000", "094627.561000", "094627.564000", "094627.566000", "094627.569000", "094627.579000", "094627.581000", "094627.584000", "094627.586000", "094627.589000", "094627.591000", "094627.594000", "094627.597000", "094627.599000", "094627.602000", "094627.604000", "094627.607000", "094707.550000", "094707.553000", "094707.556000", "094707.559000", "094707.561000", "094707.564000", "094707.567000", "094707.569000", "094707.572000", "094707.575000", "094707.577000", "094707.580000", "094707.582000", "094707.585000", "094707.587000", "094707.590000", "094707.593000", "094707.595000", "094707.598000", "094707.600000", "094747.550000", "094747.553000", "094747.556000", "094747.559000", "094747.561000", "094747.564000", "094747.567000", "094747.569000", "094747.572000", "094747.574000", "094747.577000", "094747.579000", "094747.582000", "094747.585000", "094747.587000", "094747.590000", "094747.592000", "094747.595000", "094747.597000", "094747.600000", "094827.550000", "094827.552000", "094827.555000", "094827.558000", "094827.560000", "094827.563000", "094827.565000", "094827.568000", "094827.571000", "094827.573000", "094827.576000", "094827.578000", "094827.581000", "094827.583000", "094827.586000", "094827.589000", "094827.591000", "094827.594000", "094827.596000", "094827.599000", "094907.550000", "094907.553000", "094907.556000", "094907.559000", "094907.561000", "094907.564000", "094907.566000", "094907.569000", "094907.571000", "094907.574000", "094907.577000", "094907.579000", "094907.582000", "094907.584000", "094907.587000", "094907.589000", "094907.592000", "094907.595000", "094907.598000", "094907.600000", "094947.550000", "094947.553000", "094947.556000", "094947.558000", "094947.561000", "094947.564000", "094947.566000", "094947.569000", "094947.571000", "094947.574000", "094947.577000", "094947.579000", "094947.582000", "094947.584000", "094947.587000", "094947.589000", "094947.592000", "094947.594000", "094947.597000", "094947.600000", "095026.920000", "095026.923000", "095026.926000", "095026.929000", "095026.931000", "095026.934000", "095026.936000", "095026.939000", "095026.942000", "095026.944000", "095026.947000", "095026.950000", "095026.954000", "095026.958000", "095026.960000", "095026.963000", "095026.966000", "095026.970000", "095026.975000", "095026.979000"],
      "InstanceNumber": [1, 2, 3, 4, 5, 6, 7, 8, 9, 10, 11, 12, 13, 14, 15, 16, 17, 18, 19, 20, 21, 22, 23, 24, 25, 26, 27, 28, 29, 30, 31, 32, 33, 34, 35, 36, 37, 38, 39, 40, 41, 42, 43, 44, 45, 46, 47, 48, 49, 50, 51, 52, 53, 54, 55, 56, 57, 58, 59, 60, 61, 62, 63, 64, 65, 66, 67, 68, 69, 70, 71, 72, 73, 74, 75, 76, 77, 78, 79, 80, 81, 82, 83, 84, 85, 86, 87, 88, 89, 90, 91, 92, 93, 94, 95, 96, 97, 98, 99, 100, 101, 102, 103, 104, 105, 106, 107, 108, 109, 110, 111, 112, 113, 114, 115, 116, 117, 118, 119, 120, 121, 122, 123, 124, 125, 126, 127, 128, 129, 130, 131, 132, 133, 134, 135, 136, 137, 138, 139, 140, 141, 142, 143, 144, 145, 146, 147, 148, 149, 150, 151, 152, 153, 154, 155, 156, 157, 158, 159, 160, 161, 162, 163, 164, 165, 166, 167, 168, 169, 170, 171, 172, 173, 174, 175, 176, 177, 178, 179, 180, 181, 182, 183, 184, 185, 186, 187, 188, 189, 190, 191, 192, 193, 194, 195, 196, 197, 198, 199, 200],
      "LargestImagePixelValue": [3803, 3803, 3807, 3804, 3802, 3801, 3802, 3803, 3803, 3801, 3805, 3808, 3804, 3800, 3802, 3806, 3803, 3803, 3803, 3801, 3806, 3805, 3805, 3805, 3802, 3803, 3805, 3801, 3804, 3803, 3804, 3804, 3804, 3808, 3804, 3804, 3801, 3806, 3804, 3801, 3802, 3808, 3804, 3804, 3805, 3803, 3802, 3805, 3802, 3802, 3806, 3801, 3802, 3801, 3802, 3806, 3802, 3806, 3803, 3801, 3803, 3806, 3803, 3804, 3805, 3801, 3802, 3807, 3805, 3804, 3802, 3804, 3805, 3804, 3803, 3802, 3801, 3804, 3803, 3805, 3803, 3798, 3801, 3802, 3801, 3800, 3801, 3805, 3804, 3804, 3803, 3802, 3804, 3803, 3802, 3805, 3804, 3802, 3803, 3803, 3805, 3802, 3804, 3804, 3802, 3804, 3805, 3802, 3807, 3801, 3803, 3805, 3808, 3802, 3800, 3802, 3808, 3803, 3806, 3804, 3802, 3805, 3806, 3807, 3804, 3802, 3807, 3808, 3805, 3802, 3804, 3802, 3803, 3801, 3802, 3803, 3803, 3807, 3804, 3802, 3802, 3803, 3805, 3804, 3800, 3801, 3804, 3804, 3804, 3802, 3800, 3805, 3803, 3801, 3803, 3804, 3803, 3804, 3805, 3803, 3800, 3802, 3802, 3802, 3803, 3804, 3800, 3802, 3805, 3806, 3804, 3802, 3804, 3803, 3802, 3802, 3806, 3806, 3803, 3802, 3801, 3804, 3805, 3803, 3801, 3800, 3805, 3804, 3802, 3803, 3800, 3800, 3805, 3805, 3802, 3803, 3803, 3803, 3802, 3802],
      "WindowCenter": [1380.0, 1381.0, 1381.0, 1381.0, 1381.0, 1381.0, 1381.0, 1381.0, 1381.0, 1381.0, 1381.0, 1380.0, 1381.0, 1380.0, 1380.0, 1380.0, 1381.0, 1381.0, 1381.0, 1380.0, 1381.0, 1380.0, 1380.0, 1381.0, 1380.0, 1381.0, 1381.0, 1381.0, 1381.0, 1381.0, 1380.0, 1380.0, 1380.0, 1380.0, 1381.0, 1380.0, 1380.0, 1380.0, 1380.0, 1380.0, 1380.0, 1380.0, 1380.0, 1379.0, 1380.0, 1379.0, 1380.0, 1380.0, 1380.0, 1380.0, 1380.0, 1380.0, 1380.0, 1380.0, 1380.0, 1380.0, 1380.0, 1380.0, 1380.0, 1380.0, 1380.0, 1380.0, 1380.0, 1379.0, 1379.0, 1379.0, 1379.0, 1379.0, 1379.0, 1379.0, 1379.0, 1379.0, 1379.0, 1379.0, 1379.0, 1379.0, 1380.0, 1380.0, 1379.0, 1379.0, 1379.0, 1379.0, 1379.0, 1379.0, 1379.0, 1379.0, 1379.0, 1379.0, 1378.0, 1379.0, 1379.0, 1379.0, 1378.0, 1379.0, 1379.0, 1378.0, 1379.0, 1379.0, 1379.0, 1379.0, 1379.0, 1379.0, 1379.0, 1379.0, 1379.0, 1379.0, 1379.0, 1379.0, 1379.0, 1379.0, 1379.0, 1379.0, 1379.0, 1378.0, 1378.0, 1379.0, 1379.0, 1378.0, 1378.0, 1378.0, 1378.0, 1378.0, 1378.0, 1378.0, 1378.0, 1378.0, 1378.0, 1378.0, 1378.0, 1378.0, 1379.0, 1378.0, 1378.0, 1378.0, 1378.0, 1378.0, 1379.0, 1378.0, 1378.0, 1378.0, 1378.0, 1379.0, 1378.0, 1377.0, 1378.0, 1378.0, 1378.0, 1378.0, 1378.0, 1378.0, 1378.0, 1378.0, 1378.0, 1378.0, 1378.0, 1378.0, 1378.0, 1378.0, 1378.0, 1378.0, 1378.0, 1378.0, 1378.0, 1378.0, 1378.0, 1378.0, 1378.0, 1378.0, 1377.0, 1378.0, 1378.0, 1377.0, 1378.0, 1377.0, 1377.0, 1377.0, 1377.0, 1377.0, 1377.0, 1377.0, 1377.0, 1377.0, 1377.0, 1377.0, 1377.0, 1377.0, 1377.0, 1377.0, 1377.0, 1377.0, 1377.0, 1378.0, 1377.0, 1377.0, 1377.0, 1377.0, 1377.0, 1376.0, 1377.0, 1376.0],
      "WindowWidth": [3267.0, 3266.0, 3266.0, 3266.0, 3266.0, 3266.0, 3266.0, 3266.0, 3266.0, 3266.0, 3266.0, 3267.0, 3266.0, 3267.0, 3267.0, 3267.0, 3266.0, 3266.0, 3266.0, 3267.0, 3266.0, 3266.0, 3267.0, 3266.0, 3267.0, 3266.0, 3266.0, 3266.0, 3266.0, 3266.0, 3267.0, 3267.0, 3267.0, 3267.0, 3266.0, 3267.0, 3266.0, 3266.0, 3266.0, 3266.0, 3266.0, 3266.0, 3266.0, 3266.0, 3266.0, 3266.0, 3266.0, 3266.0, 3266.0, 3266.0, 3266.0, 3266.0, 3266.0, 3266.0, 3266.0, 3266.0, 3266.0, 3266.0, 3266.0, 3266.0, 3266.0, 3266.0, 3266.0, 3266.0, 3266.0, 3266.0, 3266.0, 3266.0, 3266.0, 3266.0, 3266.0, 3266.0, 3266.0, 3266.0, 3266.0, 3266.0, 3265.0, 3265.0, 3266.0, 3265.0, 3266.0, 3266.0, 3266.0, 3266.0, 3266.0, 3266.0, 3265.0, 3265.0, 3265.0, 3265.0, 3266.0, 3265.0, 3265.0, 3265.0, 3265.0, 3265.0, 3265.0, 3265.0, 3265.0, 3265.0, 3265.0, 3265.0, 3265.0, 3265.0, 3265.0, 3265.0, 3265.0, 3265.0, 3265.0, 3265.0, 3265.0, 3265.0, 3265.0, 3265.0, 3265.0, 3265.0, 3265.0, 3265.0, 3265.0, 3265.0, 3265.0, 3265.0, 3265.0, 3265.0, 3265.0, 3265.0, 3265.0, 3265.0, 3265.0, 3265.0, 3264.0, 3265.0, 3265.0, 3265.0, 3265.0, 3265.0, 3264.0, 3265.0, 3265.0, 3265.0, 3265.0, 3264.0, 3265.0, 3265.0, 3265.0, 3265.0, 3265.0, 3264.0, 3264.0, 3264.0, 3264.0, 3265.0, 3264.0, 3264.0, 3264.0, 3264.0, 3264.0, 3264.0, 3264.0, 3264.0, 3264.0, 3264.0, 3264.0, 3264.0, 3264.0, 3264.0, 3264.0, 3264.0, 3264.0, 3264.0, 3264.0, 3264.0, 3264.0, 3264.0, 3264.0, 3264.0, 3264.0, 3264.0, 3264.0, 3264.0, 3264.0, 3264.0, 3264.0, 3264.0, 3263.0, 3264.0, 3264.0, 3264.0, 3264.0, 3264.0, 3263.0, 3263.0, 3263.0, 3263.0, 3263.0, 3263.0, 3263.0, 3264.0, 3263.0, 3264.0]
    },
    "slices": {}
  }
}