{
  "AcquisitionMatrixPE": 80,
  "AcquisitionNumber": 1,
  "AcquisitionTime": "09:50:33.570000",
  "BandwidthPerPixelPhaseEncode": 25,
  "BaseResolution": 80,
  "BodyPartExamined": "BRAIN",
  "CoilCombinationMethod": "Sum of Squares",
  "ConsistencyInfo": "N4_VE11C_LATEST_20160120",
  "ConversionSoftware": "dcm2niix",
  "ConversionSoftwareVersion": "v1.0.20220720",
  "DerivedVendorReportedEchoSpacing": 0.0005,
  "DeviceSerialNumber": "66112",
  "DwellTime": 2.7e-06,
  "EchoTime": 0.03,
  "EchoTrainLength": 80,
  "EffectiveEchoSpacing": 0.0005,
  "FlipAngle": 10,
  "HeudiconvVersion": "0.13.1",
  "ImageOrientationPatientDICOM": [0.984594, -0.174855, -0.000290412, 0.165825, 0.933218, 0.318758],
  "ImageOrientationText": "Tra>Cor(18.3)>Sag(3.2)",
  "ImageType": [
    "ORIGINAL",
    "PRIMARY",
    "M",
    "ND",
    "NORM",
    "MOSAIC"
],
  "ImagingFrequency": 123.252,
  "InPlanePhaseEncodingDirectionDICOM": "COL",
  "InstitutionAddress": "Maynard 3,Hanover,NH,US,03755",
  "InstitutionName": "Dartmouth College - PBS",
  "InstitutionalDepartmentName": "Department",
  "MRAcquisitionType": "2D",
  "MagneticFieldStrength": 3,
  "Manufacturer": "Siemens",
  "ManufacturersModelName": "Prisma",
  "MatrixCoilMode": "SENSE",
  "Modality": "MR",
  "NonlinearGradientCorrection": false,
  "PartialFourier": 1,
  "PatientPosition": "HFS",
  "PercentPhaseFOV": 100,
  "PercentSampling": 100,
  "PhaseEncodingDirection": "j-",
  "PhaseEncodingSteps": 80,
  "PhaseResolution": 1,
  "PixelBandwidth": 2315,
  "ProcedureStepDescription": "dbic^QA",
  "ProtocolName": "func-bold_fa-10",
  "PulseSequenceDetails": "%SiemensSeq%\\ep2d_bold",
  "ReceiveCoilActiveElements": "HC1-7;NC1,2",
  "ReceiveCoilName": "HeadNeck_64",
  "ReconMatrixPE": 80,
  "RepetitionTime": 2,
  "SAR": 0.00713283,
  "ScanOptions": "FS",
  "ScanningSequence": "EP",
  "SequenceName": "*epfid2d1_80",
  "SequenceVariant": "SK",
  "SeriesDescription": "func-bold_fa-10",
  "SeriesNumber": 9,
  "ShimSetting": [4141, -7685, -7507, 207, -83, -353, -27, 77],
  "SliceThickness": 3.5,
  "SliceTiming": [0.99, 0, 1.055, 0.065, 1.1225, 0.1325, 1.1875, 0.1975, 1.2525, 0.2625, 1.32, 0.33, 1.385, 0.395, 1.4525, 0.4625, 1.5175, 0.5275, 1.5825, 0.5925, 1.65, 0.66, 1.715, 0.725, 1.7825, 0.7925, 1.8475, 0.8575, 1.9125, 0.9225],
  "SoftwareVersions": "syngo MR E11",
  "SpacingBetweenSlices": 3.99,
  "StationName": "AWP66112",
  "TotalReadoutTime": 0.0395,
  "TxRefAmp": 216.889,
  "dcmmeta_affine": [
    [-2.953782558441162, 0.49747422337532043, 0.22130677103996277, 96.63191223144531],
    [0.5245640873908997, 2.7996532917022705, 1.2524436712265015, -131.51004028320312],
    [-0.0008712365524843335, -0.956274688243866, 3.7818655967712402, -36.981204986572266],
    [0.0, 0.0, 0.0, 1.0]
],
  "dcmmeta_reorient_transform": [
    [0.0, -1.0, 0.0, 79.0],
    [1.0, 0.0, 0.0, 0.0],
    [0.0, 0.0, 1.0, 0.0],
    [0.0, 0.0, 0.0, 1.0]
],
  "dcmmeta_shape": [80, 80, 30, 200],
  "dcmmeta_slice_dim": 2,
  "dcmmeta_version": 0.6,
  "global": {
    "const": {
      "AccessionNumber": "qa64",
      "AcquisitionMatrix": [80, 0, 0, 80],
      "AngioFlag": "N",
      "BitsAllocated": 16,
      "BitsStored": 12,
      "BodyPartExamined": "BRAIN",
      "Columns": 480,
      "EchoNumbers": 1,
      "EchoTime": 30.0,
      "EchoTrainLength": 80,
      "FlipAngle": 10.0,
      "HighBit": 11,
      "ImageOrientationPatient": [0.98459420607795, -0.1748546968729, -0.000290412175, 0.16582473776246, 0.93321773834355, 0.31875822999096],
      "ImagePositionPatient": [-826.18373776303, -544.68038763301, -303.60759695496],
      "ImageType": [
        "ORIGINAL",
        "PRIMARY",
        "M",
        "ND",
        "NORM",
        "MOSAIC"
],
      "ImagedNucleus": "1H",
      "ImagingFrequency": 123.252359,
      "InPlanePhaseEncodingDirection": "COL",
      "MRAcquisitionType": "2D",
      "MagneticFieldStrength": 3.0,
      "Manufacturer": "SIEMENS",
      "ManufacturerModelName": "Prisma",
      "Modality": "MR",
      "NumberOfAverages": 1.0,
      "NumberOfPhaseEncodingSteps": 80,
      "PercentPhaseFieldOfView": 100.0,
      "PercentSampling": 100.0,
      "PerformedProcedureStepStartTime": "093502.245000",
      "PhotometricInterpretation": "MONOCHROME2",
      "PixelBandwidth": 2315.0,
      "PixelRepresentation": 0,
      "PixelSpacing": [3.0, 3.0],
      "ProtocolName": "func-bold_fa-10",
      "RepetitionTime": 2000.0,
      "Rows": 480,
      "SAR": 0.00713283091541,
      "SamplesPerPixel": 1,
      "ScanOptions": "FS",
      "ScanningSequence": "EP",
      "SequenceName": "*epfid2d1_80",
      "SequenceVariant": "SK",
      "SeriesDescription": "func-bold_fa-10",
      "SeriesNumber": 9,
      "SeriesTime": "095127.412000",
      "SliceLocation": -70.972827104281,
      "SliceThickness": 3.5,
      "SmallestImagePixelValue": 0,
      "SoftwareVersions": "syngo MR E11",
      "SpacingBetweenSlices": 3.9899999380952,
      "SpecificCharacterSet": "ISO_IR 100",
      "StudyID": "16",
      "StudyTime": "093502.175000",
      "TransmitCoilName": "Body",
      "VariableFlipAngleFlag": "N",
      "WindowCenterWidthExplanation": "Algo1",
      "dBdt": 0.0},
    "slices": {}
  },
  "time": {
    "samples": {
      "AcquisitionNumber": [1, 2, 3, 4, 5, 6, 7, 8, 9, 10, 11, 12, 13, 14, 15, 16, 17, 18, 19, 20, 21, 22, 23, 24, 25, 26, 27, 28, 29, 30, 31, 32, 33, 34, 35, 36, 37, 38, 39, 40, 41, 42, 43, 44, 45, 46, 47, 48, 49, 50, 51, 52, 53, 54, 55, 56, 57, 58, 59, 60, 61, 62, 63, 64, 65, 66, 67, 68, 69, 70, 71, 72, 73, 74, 75, 76, 77, 78, 79, 80, 81, 82, 83, 84, 85, 86, 87, 88, 89, 90, 91, 92, 93, 94, 95, 96, 97, 98, 99, 100, 101, 102, 103, 104, 105, 106, 107, 108, 109, 110, 111, 112, 113, 114, 115, 116, 117, 118, 119, 120, 121, 122, 123, 124, 125, 126, 127, 128, 129, 130, 131, 132, 133, 134, 135, 136, 137, 138, 139, 140, 141, 142, 143, 144, 145, 146, 147, 148, 149, 150, 151, 152, 153, 154, 155, 156, 157, 158, 159, 160, 161, 162, 163, 164, 165, 166, 167, 168, 169, 170, 171, 172, 173, 174, 175, 176, 177, 178, 179, 180, 181, 182, 183, 184, 185, 186, 187, 188, 189, 190, 191, 192, 193, 194, 195, 196, 197, 198, 199, 200],
      "AcquisitionTime": ["095033.570000", "095035.570000", "095037.570000", "095039.570000", "095041.570000", "095043.570000", "095045.570000", "095047.570000", "095049.570000", "095051.570000", "095053.570000", "095055.570000", "095057.570000", "095059.570000", "095101.570000", "095103.570000", "095105.570000", "095107.570000", "095109.570000", "095111.570000", "095113.570000", "095115.570000", "095117.570000", "095119.570000", "095121.570000", "095123.570000", "095125.570000", "095127.570000", "095129.570000", "095131.570000", "095133.570000", "095135.570000", "095137.570000", "095139.570000", "095141.570000", "095143.570000", "095145.570000", "095147.570000", "095149.570000", "095151.570000", "095153.570000", "095155.570000", "095157.570000", "095159.570000", "095201.570000", "095203.570000", "095205.570000", "095207.570000", "095209.570000", "095211.570000", "095213.570000", "095215.570000", "095217.570000", "095219.570000", "095221.570000", "095223.570000", "095225.570000", "095227.570000", "095229.570000", "095231.570000", "095233.570000", "095235.570000", "095237.570000", "095239.570000", "095241.570000", "095243.570000", "095245.570000", "095247.570000", "095249.570000", "095251.570000", "095253.570000", "095255.570000", "095257.570000", "095259.570000", "095301.570000", "095303.570000", "095305.570000", "095307.570000", "095309.570000", "095311.570000", "095313.570000", "095315.570000", "095317.570000", "095319.570000", "095321.570000", "095323.570000", "095325.570000", "095327.570000", "095329.570000", "095331.570000", "095333.570000", "095335.570000", "095337.570000", "095339.570000", "095341.570000", "095343.570000", "095345.570000", "095347.570000", "095349.570000", "095351.570000", "095353.570000", "095355.570000", "095357.570000", "095359.570000", "095401.570000", "095403.570000", "095405.570000", "095407.570000", "095409.570000", "095411.570000", "095413.570000", "095415.570000", "095417.570000", "095419.570000", "095421.570000", "095423.570000", "095425.570000", "095427.570000", "095429.570000", "095431.570000", "095433.570000", "095435.570000", "095437.570000", "095439.570000", "095441.570000", "095443.570000", "095445.570000", "095447.570000", "095449.570000", "095451.570000", "095453.570000", "095455.570000", "095457.570000", "095459.570000", "095501.570000", "095503.570000", "095505.570000", "095507.570000", "095509.570000", "095511.570000", "095513.570000", "095515.570000", "095517.570000", "095519.570000", "095521.570000", "095523.570000", "095525.570000", "095527.570000", "095529.570000", "095531.570000", "095533.570000", "095535.570000", "095537.570000", "095539.570000", "095541.570000", "095543.570000", "095545.570000", "095547.570000", "095549.570000", "095551.570000", "095553.570000", "095555.570000", "095557.570000", "095559.570000", "095601.570000", "095603.570000", "095605.570000", "095607.570000", "095609.570000", "095611.570000", "095613.570000", "095615.570000", "095617.570000", "095619.570000", "095621.570000", "095623.570000", "095625.570000", "095627.570000", "095629.570000", "095631.570000", "095633.570000", "095635.570000", "095637.570000", "095639.570000", "095641.570000", "095643.570000", "095645.570000", "095647.570000", "095649.570000", "095651.570000", "095653.570000", "095655.570000", "095657.570000", "095659.570000", "095701.570000", "095703.570000", "095705.570000", "095707.570000", "095709.570000", "095711.570000"],
      "ContentTime": ["095127.415000", "095127.419000", "095127.422000", "095127.424000", "095127.427000", "095127.429000", "095127.432000", "095127.434000", "095127.437000", "095127.439000", "095127.442000", "095127.445000", "095127.447000", "095127.450000", "095127.452000", "095127.455000", "095127.458000", "095127.462000", "095127.464000", "095127.467000", "095127.469000", "095127.472000", "095127.475000", "095127.477000", "095127.480000", "095127.482000", "095207.410000", "095207.413000", "095207.416000", "095207.419000", "095207.421000", "095207.424000", "095207.426000", "095207.429000", "095207.431000", "095207.434000", "095207.436000", "095207.439000", "095207.442000", "095207.444000", "095207.447000", "095207.450000", "095207.453000", "095207.456000", "095207.460000", "095207.463000", "095247.411000", "095247.413000", "095247.416000", "095247.419000", "095247.421000", "095247.424000", "095247.426000", "095247.442000", "095247.444000", "095247.447000", "095247.449000", "095247.452000", "095247.454000", "095247.458000", "095247.461000", "095247.464000", "095247.466000", "095247.469000", "095247.471000", "095247.474000", "095327.410000", "095327.413000", "095327.416000", "095327.419000", "095327.421000", "095327.424000", "095327.426000", "095327.429000", "095327.431000", "095327.434000", "095327.436000", "095327.439000", "095327.442000", "095327.444000", "095327.447000", "095327.449000", "095327.452000", "095327.455000", "095327.459000", "095327.462000", "095407.411000", "095407.413000", "095407.416000", "095407.419000", "095407.421000", "095407.424000", "095407.426000", "095407.429000", "095407.431000", "095407.434000", "095407.436000", "095407.439000", "095407.442000", "095407.444000", "095407.447000", "095407.449000", "095407.452000", "095407.456000", "095407.459000", "095407.462000", "095447.410000", "095447.413000", "095447.416000", "095447.419000", "095447.421000", "095447.424000", "095447.426000", "095447.429000", "095447.431000", "095447.434000", "095447.437000", "095447.439000", "095447.442000", "095447.444000", "095447.447000", "095447.449000", "095447.452000", "095447.456000", "095447.459000", "095447.462000", "095527.410000", "095527.412000", "095527.415000", "095527.418000", "095527.420000", "095527.423000", "095527.425000", "095527.428000", "095527.431000", "095527.433000", "095527.436000", "095527.438000", "095527.441000", "095527.443000", "095527.451000", "095527.455000", "095527.457000", "095527.460000", "095527.463000", "095527.465000", "095607.410000", "095607.413000", "095607.416000", "095607.418000", "095607.421000", "095607.424000", "095607.426000", "095607.429000", "095607.431000", "095607.434000", "095607.437000", "095607.439000", "095607.442000", "095607.444000", "095607.447000", "095607.450000", "095607.454000", "095607.457000", "095607.459000", "095607.462000", "095647.411000", "095647.413000", "095647.416000", "095647.419000", "095647.421000", "095647.424000", "095647.426000", "095647.429000", "095647.440000", "095647.443000", "095647.447000", "095647.449000", "095647.453000", "095647.456000", "095647.459000", "095647.461000", "095647.464000", "095647.467000", "095647.469000", "095647.472000", "095713.501000", "095713.504000", "095713.506000", "095713.509000", "095713.512000", "095713.514000", "095713.517000", "095713.519000", "095713.522000", "095713.525000", "095713.527000", "095713.530000", "095713.537000", "095713.540000"],
      "InstanceCreationTime": ["095127.415000", "095127.419000", "095127.422000", "095127.424000", "095127.427000", "095127.429000", "095127.432000", "095127.434000", "095127.437000", "095127.439000", "095127.442000", "095127.445000", "095127.447000", "095127.450000", "095127.452000", "095127.455000", "095127.458000", "095127.462000", "095127.464000", "095127.467000", "095127.469000", "095127.472000", "095127.475000", "095127.477000", "095127.480000", "095127.482000", "095207.410000", "095207.413000", "095207.416000", "095207.419000", "095207.421000", "095207.424000", "095207.426000", "095207.429000", "095207.431000", "095207.434000", "095207.436000", "095207.439000", "095207.442000", "095207.444000", "095207.447000", "095207.450000", "095207.453000", "095207.456000", "095207.460000", "095207.463000", "095247.411000", "095247.413000", "095247.416000", "095247.419000", "095247.421000", "095247.424000", "095247.426000", "095247.442000", "095247.444000", "095247.447000", "095247.449000", "095247.452000", "095247.454000", "095247.458000", "095247.461000", "095247.464000", "095247.466000", "095247.469000", "095247.471000", "095247.474000", "095327.410000", "095327.413000", "095327.416000", "095327.419000", "095327.421000", "095327.424000", "095327.426000", "095327.429000", "095327.431000", "095327.434000", "095327.436000", "095327.439000", "095327.442000", "095327.444000", "095327.447000", "095327.449000", "095327.452000", "095327.455000", "095327.459000", "095327.462000", "095407.411000", "095407.413000", "095407.416000", "095407.419000", "095407.421000", "095407.424000", "095407.426000", "095407.429000", "095407.431000", "095407.434000", "095407.436000", "095407.439000", "095407.442000", "095407.444000", "095407.447000", "095407.449000", "095407.452000", "095407.456000", "095407.459000", "095407.462000", "095447.410000", "095447.413000", "095447.416000", "095447.419000", "095447.421000", "095447.424000", "095447.426000", "095447.429000", "095447.431000", "095447.434000", "095447.437000", "095447.439000", "095447.442000", "095447.444000", "095447.447000", "095447.449000", "095447.452000", "095447.456000", "095447.459000", "095447.462000", "095527.410000", "095527.412000", "095527.415000", "095527.418000", "095527.420000", "095527.423000", "095527.425000", "095527.428000", "095527.431000", "095527.433000", "095527.436000", "095527.438000", "095527.441000", "095527.443000", "095527.451000", "095527.455000", "095527.457000", "095527.460000", "095527.463000", "095527.465000", "095607.410000", "095607.413000", "095607.416000", "095607.418000", "095607.421000", "095607.424000", "095607.426000", "095607.429000", "095607.431000", "095607.434000", "095607.437000", "095607.439000", "095607.442000", "095607.444000", "095607.447000", "095607.450000", "095607.454000", "095607.457000", "095607.459000", "095607.462000", "095647.411000", "095647.413000", "095647.416000", "095647.419000", "095647.421000", "095647.424000", "095647.426000", "095647.429000", "095647.440000", "095647.443000", "095647.447000", "095647.449000", "095647.453000", "095647.456000", "095647.459000", "095647.461000", "095647.464000", "095647.467000", "095647.469000", "095647.472000", "095713.501000", "095713.504000", "095713.506000", "095713.509000", "095713.512000", "095713.514000", "095713.517000", "095713.519000", "095713.522000", "095713.525000", "095713.527000", "095713.530000", "095713.537000", "095713.540000"],
      "InstanceNumber": [1, 2, 3, 4, 5, 6, 7, 8, 9, 10, 11, 12, 13, 14, 15, 16, 17, 18, 19, 20, 21, 22, 23, 24, 25, 26, 27, 28, 29, 30, 31, 32, 33, 34, 35, 36, 37, 38, 39, 40, 41, 42, 43, 44, 45, 46, 47, 48, 49, 50, 51, 52, 53, 54, 55, 56, 57, 58, 59, 60, 61, 62, 63, 64, 65, 66, 67, 68, 69, 70, 71, 72, 73, 74, 75, 76, 77, 78, 79, 80, 81, 82, 83, 84, 85, 86, 87, 88, 89, 90, 91, 92, 93, 94, 95, 96, 97, 98, 99, 100, 101, 102, 103, 104, 105, 106, 107, 108, 109, 110, 111, 112, 113, 114, 115, 116, 117, 118, 119, 120, 121, 122, 123, 124, 125, 126, 127, 128, 129, 130, 131, 132, 133, 134, 135, 136, 137, 138, 139, 140, 141, 142, 143, 144, 145, 146, 147, 148, 149, 150, 151, 152, 153, 154, 155, 156, 157, 158, 159, 160, 161, 162, 163, 164, 165, 166, 167, 168, 169, 170, 171, 172, 173, 174, 175, 176, 177, 178, 179, 180, 181, 182, 183, 184, 185, 186, 187, 188, 189, 190, 191, 192, 193, 194, 195, 196, 197, 198, 199, 200],
      "LargestImagePixelValue": [645, 643, 643, 650, 645, 649, 649, 652, 648, 644, 648, 649, 647, 648, 652, 648, 647, 651, 646, 649, 648, 646, 647, 647, 647, 648, 647, 649, 644, 645, 649, 648, 651, 645, 644, 645, 649, 647, 650, 646, 646, 647, 646, 648, 651, 649, 650, 647, 647, 649, 646, 649, 650, 650, 650, 646, 646, 649, 643, 646, 649, 655, 643, 649, 647, 649, 650, 647, 649, 646, 646, 646, 648, 650, 647, 647, 644, 646, 650, 648, 645, 648, 646, 648, 648, 649, 647, 647, 650, 648, 646, 646, 650, 650, 647, 650, 648, 649, 647, 646, 646, 646, 647, 644, 647, 650, 650, 648, 648, 647, 649, 645, 650, 650, 648, 648, 647, 651, 646, 648, 646, 646, 648, 645, 648, 647, 646, 647, 647, 649, 650, 646, 646, 648, 645, 646, 650, 647, 646, 646, 650, 646, 645, 649, 647, 647, 649, 648, 649, 647, 646, 649, 648, 649, 649, 646, 650, 649, 646, 645, 649, 647, 648, 650, 648, 649, 646, 649, 649, 649, 649, 649, 648, 647, 649, 648, 644, 652, 646, 649, 647, 647, 648, 645, 644, 646, 648, 650, 647, 647, 648, 645, 646, 646, 645, 647, 643, 652, 645, 645],
      "WindowCenter": [450.0, 450.0, 450.0, 450.0, 452.0, 452.0, 451.0, 452.0, 451.0, 451.0, 451.0, 451.0, 451.0, 451.0, 452.0, 451.0, 451.0, 452.0, 451.0, 451.0, 451.0, 451.0, 451.0, 451.0, 451.0, 451.0, 451.0, 451.0, 451.0, 451.0, 451.0, 451.0, 452.0, 451.0, 451.0, 451.0, 451.0, 451.0, 452.0, 451.0, 451.0, 451.0, 451.0, 451.0, 452.0, 451.0, 452.0, 451.0, 451.0, 451.0, 451.0, 451.0, 452.0, 452.0, 452.0, 451.0, 451.0, 451.0, 451.0, 451.0, 451.0, 452.0, 451.0, 451.0, 451.0, 451.0, 452.0, 451.0, 451.0, 451.0, 451.0, 451.0, 451.0, 452.0, 451.0, 451.0, 451.0, 451.0, 452.0, 451.0, 451.0, 451.0, 451.0, 451.0, 451.0, 451.0, 451.0, 451.0, 452.0, 451.0, 451.0, 451.0, 452.0, 452.0, 451.0, 452.0, 451.0, 451.0, 451.0, 451.0, 451.0, 451.0, 451.0, 451.0, 451.0, 452.0, 452.0, 451.0, 451.0, 451.0, 451.0, 451.0, 452.0, 452.0, 451.0, 451.0, 451.0, 452.0, 451.0, 451.0, 451.0, 451.0, 451.0, 451.0, 451.0, 451.0, 451.0, 451.0, 451.0, 451.0, 452.0, 451.0, 451.0, 451.0, 451.0, 451.0, 451.0, 451.0, 451.0, 451.0, 452.0, 451.0, 451.0, 451.0, 451.0, 451.0, 451.0, 451.0, 451.0, 451.0, 451.0, 451.0, 451.0, 451.0, 451.0, 451.0, 451.0, 451.0, 451.0, 451.0, 451.0, 451.0, 451.0, 451.0, 451.0, 451.0, 450.0, 451.0, 451.0, 451.0, 451.0, 451.0, 451.0, 451.0, 451.0, 450.0, 451.0, 451.0, 450.0, 451.0, 450.0, 451.0, 451.0, 450.0, 451.0, 450.0, 451.0, 451.0, 450.0, 451.0, 451.0, 451.0, 450.0, 450.0, 450.0, 450.0, 450.0, 451.0, 450.0, 450.0],
      "WindowWidth": [935.0, 936.0, 935.0, 936.0, 939.0, 939.0, 938.0, 939.0, 938.0, 938.0, 938.0, 938.0, 938.0, 938.0, 939.0, 938.0, 938.0, 939.0, 938.0, 938.0, 938.0, 938.0, 938.0, 938.0, 938.0, 938.0, 938.0, 938.0, 938.0, 938.0, 938.0, 938.0, 938.0, 938.0, 938.0, 938.0, 938.0, 938.0, 938.0, 938.0, 938.0, 938.0, 938.0, 938.0, 938.0, 938.0, 938.0, 938.0, 938.0, 938.0, 938.0, 938.0, 938.0, 938.0, 938.0, 938.0, 938.0, 938.0, 938.0, 938.0, 938.0, 938.0, 938.0, 938.0, 938.0, 938.0, 938.0, 938.0, 937.0, 937.0, 938.0, 938.0, 937.0, 938.0, 938.0, 938.0, 938.0, 938.0, 938.0, 938.0, 938.0, 938.0, 938.0, 937.0, 937.0, 937.0, 937.0, 937.0, 938.0, 937.0, 937.0, 937.0, 938.0, 938.0, 937.0, 938.0, 937.0, 937.0, 937.0, 937.0, 937.0, 937.0, 937.0, 937.0, 937.0, 938.0, 938.0, 937.0, 937.0, 937.0, 937.0, 937.0, 938.0, 938.0, 937.0, 937.0, 937.0, 938.0, 937.0, 937.0, 937.0, 937.0, 937.0, 937.0, 936.0, 937.0, 937.0, 937.0, 937.0, 937.0, 938.0, 937.0, 937.0, 937.0, 937.0, 936.0, 937.0, 936.0, 936.0, 936.0, 938.0, 936.0, 936.0, 936.0, 936.0, 937.0, 937.0, 936.0, 936.0, 936.0, 936.0, 936.0, 936.0, 936.0, 936.0, 936.0, 937.0, 936.0, 936.0, 936.0, 936.0, 936.0, 936.0, 937.0, 936.0, 936.0, 936.0, 936.0, 936.0, 936.0, 936.0, 936.0, 936.0, 936.0, 936.0, 936.0, 936.0, 937.0, 936.0, 936.0, 936.0, 936.0, 936.0, 936.0, 936.0, 936.0, 936.0, 937.0, 936.0, 936.0, 936.0, 936.0, 936.0, 936.0, 936.0, 936.0, 936.0, 937.0, 936.0, 936.0]
    },
    "slices": {}
  }
}