{
  "AcquisitionMatrixPE": 122,
  "AcquisitionNumber": 1,
  "AcquisitionTime": "10:31:13.487500",
  "BandwidthPerPixelPhaseEncode": 27.785,
  "BaseResolution": 122,
  "BodyPartExamined": "BRAIN",
  "CoilCombinationMethod": "Adaptive Combine",
  "ConsistencyInfo": "N4_VE11C_LATEST_20160120",
  "ConversionSoftware": "dcm2niix",
  "ConversionSoftwareVersion": "v1.0.20220720",
  "DerivedVendorReportedEchoSpacing": 0.000590011,
  "DeviceSerialNumber": "66112",
  "DiffusionScheme": "Monopolar",
  "DwellTime": 2e-06,
  "EchoTime": 0.068,
  "EchoTrainLength": 61,
  "EffectiveEchoSpacing": 0.000295005,
  "FlipAngle": 90,
  "HeudiconvVersion": "0.13.1",
  "ImageOrientationPatientDICOM": [0.986382, 0.163824, 0.014551, -0.160112, 0.936264, 0.312687],
  "ImageOrientationText": "Tra>Cor(18.1)>Sag(-2.2)",
  "ImageType": [
    "ORIGINAL",
    "PRIMARY",
    "DIFFUSION",
    "NONE",
    "ND",
    "NORM"
],
  "ImagingFrequency": 123.252,
  "InPlanePhaseEncodingDirectionDICOM": "COL",
  "InstitutionAddress": "Maynard 3,Hanover,NH,US,03755",
  "InstitutionName": "Dartmouth College - PBS",
  "InstitutionalDepartmentName": "Department",
  "MRAcquisitionType": "2D",
  "MagneticFieldStrength": 3,
  "Manufacturer": "Siemens",
  "ManufacturersModelName": "Prisma",
  "Modality": "MR",
  "MultibandAccelerationFactor": 4,
  "NonlinearGradientCorrection": false,
  "ParallelReductionFactorInPlane": 2,
  "PartialFourier": 1,
  "PatientPosition": "HFS",
  "PercentPhaseFOV": 100,
  "PercentSampling": 100,
  "PhaseEncodingDirection": "j-",
  "PhaseEncodingSteps": 122,
  "PhaseResolution": 1,
  "PixelBandwidth": 2050,
  "ProcedureStepDescription": "dbic^QA",
  "ProtocolName": "dwi_acq-DTI-30-p2-s4",
  "PulseSequenceDetails": "%SiemensSeq%\\ep2d_diff",
  "ReceiveCoilActiveElements": "HEA;HEP",
  "ReceiveCoilName": "Head_32",
  "ReconMatrixPE": 122,
  "RefLinesPE": 38,
  "RepetitionTime": 3.6,
  "SAR": 0.187634,
  "ScanOptions": "FS",
  "ScanningSequence": "EP",
  "SequenceName": "*ep_b0",
  "SequenceVariant": "SK\\SP",
  "SeriesDescription": "dwi_acq-DTI-30-p2-s4",
  "SeriesNumber": 13,
  "ShimSetting": [4145, -7693, -7507, 283, -67, -55, -24, 53],
  "SliceThickness": 2,
  "SliceTiming": [2.58594, 0, 1.78906, 0.20312, 1.99219, 0.39844, 2.19531, 0.60156, 2.39062, 1, 2.78906, 1.19531, 2.98438, 1.39062, 3.1875, 1.59375, 3.38281, 0.79688, 2.58594, 0, 1.78906, 0.20312, 1.99219, 0.39844, 2.19531, 0.60156, 2.39062, 1, 2.78906, 1.19531, 2.98438, 1.39062, 3.1875, 1.59375, 3.38281, 0.79688, 2.58594, 0, 1.78906, 0.20312, 1.99219, 0.39844, 2.19531, 0.60156, 2.39062, 1, 2.78906, 1.19531, 2.98438, 1.39062, 3.1875, 1.59375, 3.38281, 0.79688, 2.58594, 0, 1.78906, 0.20312, 1.99219, 0.39844, 2.19531, 0.60156, 2.39062, 1, 2.78906, 1.19531, 2.98438, 1.39062, 3.1875, 1.59375, 3.38281, 0.79688],
  "SoftwareVersions": "syngo MR E11",
  "SpacingBetweenSlices": 2,
  "SpoilingState": true,
  "StationName": "AWP66112",
  "TotalReadoutTime": 0.0356956,
  "TxRefAmp": 220.109,
  "dcmmeta_affine": [
    [-1.9404243230819702, -0.31497523188591003, -0.07520401477813721, 144.43682861328125],
    [-0.322275847196579, 1.8418314456939697, 0.6215171813964844, -104.52965545654297],
    [0.02862483076751232, -0.6151219606399536, 1.8994903564453125, -28.366233825683594],
    [0.0, 0.0, 0.0, 1.0]
],
  "dcmmeta_reorient_transform": [
    [0.0, -1.0, 0.0, 121.0],
    [1.0, 0.0, 0.0, 0.0],
    [0.0, 0.0, -1.0, 71.0],
    [0.0, 0.0, 0.0, 1.0]
],
  "dcmmeta_shape": [122, 122, 72, 31],
  "dcmmeta_slice_dim": 2,
  "dcmmeta_version": 0.6,
  "global": {
    "const": {
      "AccessionNumber": "qa",
      "AcquisitionMatrix": [122, 0, 0, 122],
      "AngioFlag": "N",
      "BitsAllocated": 16,
      "BitsStored": 12,
      "BodyPartExamined": "BRAIN",
      "Columns": 122,
      "EchoNumbers": 1,
      "EchoTime": 68.0,
      "EchoTrainLength": 61,
      "FlipAngle": 90.0,
      "HighBit": 11,
      "ImageOrientationPatient": [0.98638233520296, 0.16382355908066, 0.0145509549411, -0.1601124037183, 0.93626431600367, 0.31268698206628],
      "ImageType": [
        "ORIGINAL",
        "PRIMARY",
        "DIFFUSION",
        "NONE",
        "ND",
        "NORM"
],
      "ImagedNucleus": "1H",
      "ImagingFrequency": 123.252316,
      "InPlanePhaseEncodingDirection": "COL",
      "MRAcquisitionType": "2D",
      "MagneticFieldStrength": 3.0,
      "Manufacturer": "SIEMENS",
      "ManufacturerModelName": "Prisma",
      "Modality": "MR",
      "NumberOfAverages": 1.0,
      "NumberOfPhaseEncodingSteps": 122,
      "PercentPhaseFieldOfView": 100.0,
      "PercentSampling": 100.0,
      "PerformedProcedureStepStartTime": "094734.573000",
      "PhotometricInterpretation": "MONOCHROME2",
      "PixelBandwidth": 2050.0,
      "PixelRepresentation": 0,
      "PixelSpacing": [1.9672131538391, 1.9672131538391],
      "ProtocolName": "dwi_acq-DTI-30-p2-s4",
      "RepetitionTime": 3600.0,
      "Rows": 122,
      "SAR": 0.18763393366955,
      "SamplesPerPixel": 1,
      "ScanOptions": "FS",
      "ScanningSequence": "EP",
      "SequenceVariant": [
        "SK",
        "SP"
],
      "SeriesDescription": "dwi_acq-DTI-30-p2-s4",
      "SeriesNumber": 13,
      "SeriesTime": "103122.273000",
      "SliceThickness": 2.0,
      "SmallestImagePixelValue": 0,
      "SoftwareVersions": "syngo MR E11",
      "SpacingBetweenSlices": 2.0,
      "SpecificCharacterSet": "ISO_IR 100",
      "StudyID": "69",
      "StudyTime": "094734.520000",
      "TransmitCoilName": "Body",
      "VariableFlipAngleFlag": "N",
      "WindowCenterWidthExplanation": "Algo1",
      "dBdt": 0.0},
    "slices": {
      "AcquisitionTime": ["103113.487500", "103110.900000", "103112.690000", "103111.100000", "103112.890000", "103111.300000", "103113.090000", "103111.497500", "103113.287500", "103111.895000", "103113.685000", "103112.095000", "103113.885000", "103112.292500", "103114.082500", "103112.492500", "103114.282500", "103111.697500", "103113.487500", "103110.900000", "103112.690000", "103111.100000", "103112.890000", "103111.300000", "103113.090000", "103111.497500", "103113.287500", "103111.895000", "103113.685000", "103112.095000", "103113.885000", "103112.292500", "103114.082500", "103112.492500", "103114.282500", "103111.697500", "103113.487500", "103110.900000", "103112.690000", "103111.100000", "103112.890000", "103111.300000", "103113.090000", "103111.497500", "103113.287500", "103111.895000", "103113.685000", "103112.095000", "103113.885000", "103112.292500", "103114.082500", "103112.492500", "103114.282500", "103111.697500", "103113.487500", "103110.900000", "103112.690000", "103111.100000", "103112.890000", "103111.300000", "103113.090000", "103111.497500", "103113.287500", "103111.895000", "103113.685000", "103112.095000", "103113.885000", "103112.292500", "103114.082500", "103112.492500", "103114.282500", "103111.697500", "103117.087500", "103114.500000", "103116.290000", "103114.700000", "103116.490000", "103114.900000", "103116.690000", "103115.097500", "103116.887500", "103115.495000", "103117.285000", "103115.695000", "103117.485000", "103115.892500", "103117.682500", "103116.092500", "103117.882500", "103115.297500", "103117.087500", "103114.500000", "103116.290000", "103114.700000", "103116.490000", "103114.900000", "103116.690000", "103115.097500", "103116.887500", "103115.495000", "103117.285000", "103115.695000", "103117.485000", "103115.892500", "103117.682500", "103116.092500", "103117.882500", "103115.297500", "103117.087500", "103114.500000", "103116.290000", "103114.700000", "103116.490000", "103114.900000", "103116.690000", "103115.097500", "103116.887500", "103115.495000", "103117.285000", "103115.695000", "103117.485000", "103115.892500", "103117.682500", "103116.092500", "103117.882500", "103115.297500", "103117.087500", "103114.500000", "103116.290000", "103114.700000", "103116.490000", "103114.900000", "103116.690000", "103115.097500", "103116.887500", "103115.495000", "103117.285000", "103115.695000", "103117.485000", "103115.892500", "103117.682500", "103116.092500", "103117.882500", "103115.297500", "103120.687500", "103118.100000", "103119.890000", "103118.300000", "103120.090000", "103118.500000", "103120.290000", "103118.697500", "103120.487500", "103119.095000", "103120.885000", "103119.295000", "103121.085000", "103119.492500", "103121.282500", "103119.692500", "103121.482500", "103118.897500", "103120.687500", "103118.100000", "103119.890000", "103118.300000", "103120.090000", "103118.500000", "103120.290000", "103118.697500", "103120.487500", "103119.095000", "103120.885000", "103119.295000", "103121.085000", "103119.492500", "103121.282500", "103119.692500", "103121.482500", "103118.897500", "103120.687500", "103118.100000", "103119.890000", "103118.300000", "103120.090000", "103118.500000", "103120.290000", "103118.697500", "103120.487500", "103119.095000", "103120.885000", "103119.295000", "103121.085000", "103119.492500", "103121.282500", "103119.692500", "103121.482500", "103118.897500", "103120.687500", "103118.100000", "103119.890000", "103118.300000", "103120.090000", "103118.500000", "103120.290000", "103118.697500", "103120.487500", "103119.095000", "103120.885000", "103119.295000", "103121.085000", "103119.492500", "103121.282500", "103119.692500", "103121.482500", "103118.897500", "103124.287500", "103121.700000", "103123.490000", "103121.900000", "103123.690000", "103122.100000", "103123.890000", "103122.297500", "103124.087500", "103122.695000", "103124.485000", "103122.895000", "103124.685000", "103123.092500", "103124.882500", "103123.292500", "103125.082500", "103122.497500", "103124.287500", "103121.700000", "103123.490000", "103121.900000", "103123.690000", "103122.100000", "103123.890000", "103122.297500", "103124.087500", "103122.695000", "103124.485000", "103122.895000", "103124.685000", "103123.092500", "103124.882500", "103123.292500", "103125.082500", "103122.497500", "103124.287500", "103121.700000", "103123.490000", "103121.900000", "103123.690000", "103122.100000", "103123.890000", "103122.297500", "103124.087500", "103122.695000", "103124.485000", "103122.895000", "103124.685000", "103123.092500", "103124.882500", "103123.292500", "103125.082500", "103122.497500", "103124.287500", "103121.700000", "103123.490000", "103121.900000", "103123.690000", "103122.100000", "103123.890000", "103122.297500", "103124.087500", "103122.695000", "103124.485000", "103122.895000", "103124.685000", "103123.092500", "103124.882500", "103123.292500", "103125.082500", "103122.497500", "103127.887500", "103125.300000", "103127.090000", "103125.500000", "103127.290000", "103125.700000", "103127.490000", "103125.897500", "103127.687500", "103126.295000", "103128.085000", "103126.495000", "103128.285000", "103126.692500", "103128.482500", "103126.892500", "103128.682500", "103126.097500", "103127.887500", "103125.300000", "103127.090000", "103125.500000", "103127.290000", "103125.700000", "103127.490000", "103125.897500", "103127.687500", "103126.295000", "103128.085000", "103126.495000", "103128.285000", "103126.692500", "103128.482500", "103126.892500", "103128.682500", "103126.097500", "103127.887500", "103125.300000", "103127.090000", "103125.500000", "103127.290000", "103125.700000", "103127.490000", "103125.897500", "103127.687500", "103126.295000", "103128.085000", "103126.495000", "103128.285000", "103126.692500", "103128.482500", "103126.892500", "103128.682500", "103126.097500", "103127.887500", "103125.300000", "103127.090000", "103125.500000", "103127.290000", "103125.700000", "103127.490000", "103125.897500", "103127.687500", "103126.295000", "103128.085000", "103126.495000", "103128.285000", "103126.692500", "103128.482500", "103126.892500", "103128.682500", "103126.097500", "103131.487500", "103128.900000", "103130.690000", "103129.100000", "103130.890000", "103129.300000", "103131.090000", "103129.497500", "103131.287500", "103129.895000", "103131.685000", "103130.095000", "103131.885000", "103130.292500", "103132.082500", "103130.492500", "103132.282500", "103129.697500", "103131.487500", "103128.900000", "103130.690000", "103129.100000", "103130.890000", "103129.300000", "103131.090000", "103129.497500", "103131.287500", "103129.895000", "103131.685000", "103130.095000", "103131.885000", "103130.292500", "103132.082500", "103130.492500", "103132.282500", "103129.697500", "103131.487500", "103128.900000", "103130.690000", "103129.100000", "103130.890000", "103129.300000", "103131.090000", "103129.497500", "103131.287500", "103129.895000", "103131.685000", "103130.095000", "103131.885000", "103130.292500", "103132.082500", "103130.492500", "103132.282500", "103129.697500", "103131.487500", "103128.900000", "103130.690000", "103129.100000", "103130.890000", "103129.300000", "103131.090000", "103129.497500", "103131.287500", "103129.895000", "103131.685000", "103130.095000", "103131.885000", "103130.292500", "103132.082500", "103130.492500", "103132.282500", "103129.697500", "103135.087500", "103132.500000", "103134.290000", "103132.700000", "103134.490000", "103132.900000", "103134.690000", "103133.097500", "103134.887500", "103133.495000", "103135.285000", "103133.695000", "103135.485000", "103133.892500", "103135.682500", "103134.092500", "103135.882500", "103133.297500", "103135.087500", "103132.500000", "103134.290000", "103132.700000", "103134.490000", "103132.900000", "103134.690000", "103133.097500", "103134.887500", "103133.495000", "103135.285000", "103133.695000", "103135.485000", "103133.892500", "103135.682500", "103134.092500", "103135.882500", "103133.297500", "103135.087500", "103132.500000", "103134.290000", "103132.700000", "103134.490000", "103132.900000", "103134.690000", "103133.097500", "103134.887500", "103133.495000", "103135.285000", "103133.695000", "103135.485000", "103133.892500", "103135.682500", "103134.092500", "103135.882500", "103133.297500", "103135.087500", "103132.500000", "103134.290000", "103132.700000", "103134.490000", "103132.900000", "103134.690000", "103133.097500", "103134.887500", "103133.495000", "103135.285000", "103133.695000", "103135.485000", "103133.892500", "103135.682500", "103134.092500", "103135.882500", "103133.297500", "103138.687500", "103136.100000", "103137.890000", "103136.300000", "103138.090000", "103136.500000", "103138.290000", "103136.697500", "103138.487500", "103137.095000", "103138.885000", "103137.295000", "103139.085000", "103137.492500", "103139.282500", "103137.692500", "103139.482500", "103136.897500", "103138.687500", "103136.100000", "103137.890000", "103136.300000", "103138.090000", "103136.500000", "103138.290000", "103136.697500", "103138.487500", "103137.095000", "103138.885000", "103137.295000", "103139.085000", "103137.492500", "103139.282500", "103137.692500", "103139.482500", "103136.897500", "103138.687500", "103136.100000", "103137.890000", "103136.300000", "103138.090000", "103136.500000", "103138.290000", "103136.697500", "103138.487500", "103137.095000", "103138.885000", "103137.295000", "103139.085000", "103137.492500", "103139.282500", "103137.692500", "103139.482500", "103136.897500", "103138.687500", "103136.100000", "103137.890000", "103136.300000", "103138.090000", "103136.500000", "103138.290000", "103136.697500", "103138.487500", "103137.095000", "103138.885000", "103137.295000", "103139.085000", "103137.492500", "103139.282500", "103137.692500", "103139.482500", "103136.897500", "103142.287500", "103139.700000", "103141.490000", "103139.900000", "103141.690000", "103140.100000", "103141.890000", "103140.297500", "103142.087500", "103140.695000", "103142.485000", "103140.895000", "103142.685000", "103141.092500", "103142.882500", "103141.292500", "103143.082500", "103140.497500", "103142.287500", "103139.700000", "103141.490000", "103139.900000", "103141.690000", "103140.100000", "103141.890000", "103140.297500", "103142.087500", "103140.695000", "103142.485000", "103140.895000", "103142.685000", "103141.092500", "103142.882500", "103141.292500", "103143.082500", "103140.497500", "103142.287500", "103139.700000", "103141.490000", "103139.900000", "103141.690000", "103140.100000", "103141.890000", "103140.297500", "103142.087500", "103140.695000", "103142.485000", "103140.895000", "103142.685000", "103141.092500", "103142.882500", "103141.292500", "103143.082500", "103140.497500", "103142.287500", "103139.700000", "103141.490000", "103139.900000", "103141.690000", "103140.100000", "103141.890000", "103140.297500", "103142.087500", "103140.695000", "103142.485000", "103140.895000", "103142.685000", "103141.092500", "103142.882500", "103141.292500", "103143.082500", "103140.497500", "103145.887500", "103143.300000", "103145.090000", "103143.500000", "103145.290000", "103143.700000", "103145.490000", "103143.897500", "103145.687500", "103144.295000", "103146.085000", "103144.495000", "103146.285000", "103144.692500", "103146.482500", "103144.892500", "103146.682500", "103144.097500", "103145.887500", "103143.300000", "103145.090000", "103143.500000", "103145.290000", "103143.700000", "103145.490000", "103143.897500", "103145.687500", "103144.295000", "103146.085000", "103144.495000", "103146.285000", "103144.692500", "103146.482500", "103144.892500", "103146.682500", "103144.097500", "103145.887500", "103143.300000", "103145.090000", "103143.500000", "103145.290000", "103143.700000", "103145.490000", "103143.897500", "103145.687500", "103144.295000", "103146.085000", "103144.495000", "103146.285000", "103144.692500", "103146.482500", "103144.892500", "103146.682500", "103144.097500", "103145.887500", "103143.300000", "103145.090000", "103143.500000", "103145.290000", "103143.700000", "103145.490000", "103143.897500", "103145.687500", "103144.295000", "103146.085000", "103144.495000", "103146.285000", "103144.692500", "103146.482500", "103144.892500", "103146.682500", "103144.097500", "103149.487500", "103146.900000", "103148.690000", "103147.100000", "103148.890000", "103147.300000", "103149.090000", "103147.497500", "103149.287500", "103147.895000", "103149.685000", "103148.095000", "103149.885000", "103148.292500", "103150.082500", "103148.492500", "103150.282500", "103147.697500", "103149.487500", "103146.900000", "103148.690000", "103147.100000", "103148.890000", "103147.300000", "103149.090000", "103147.497500", "103149.287500", "103147.895000", "103149.685000", "103148.095000", "103149.885000", "103148.292500", "103150.082500", "103148.492500", "103150.282500", "103147.697500", "103149.487500", "103146.900000", "103148.690000", "103147.100000", "103148.890000", "103147.300000", "103149.090000", "103147.497500", "103149.287500", "103147.895000", "103149.685000", "103148.095000", "103149.885000", "103148.292500", "103150.082500", "103148.492500", "103150.282500", "103147.697500", "103149.487500", "103146.900000", "103148.690000", "103147.100000", "103148.890000", "103147.300000", "103149.090000", "103147.497500", "103149.287500", "103147.895000", "103149.685000", "103148.095000", "103149.885000", "103148.292500", "103150.082500", "103148.492500", "103150.282500", "103147.697500", "103153.087500", "103150.500000", "103152.290000", "103150.700000", "103152.490000", "103150.900000", "103152.690000", "103151.097500", "103152.887500", "103151.495000", "103153.285000", "103151.695000", "103153.485000", "103151.892500", "103153.682500", "103152.092500", "103153.882500", "103151.297500", "103153.087500", "103150.500000", "103152.290000", "103150.700000", "103152.490000", "103150.900000", "103152.690000", "103151.097500", "103152.887500", "103151.495000", "103153.285000", "103151.695000", "103153.485000", "103151.892500", "103153.682500", "103152.092500", "103153.882500", "103151.297500", "103153.087500", "103150.500000", "103152.290000", "103150.700000", "103152.490000", "103150.900000", "103152.690000", "103151.097500", "103152.887500", "103151.495000", "103153.285000", "103151.695000", "103153.485000", "103151.892500", "103153.682500", "103152.092500", "103153.882500", "103151.297500", "103153.087500", "103150.500000", "103152.290000", "103150.700000", "103152.490000", "103150.900000", "103152.690000", "103151.097500", "103152.887500", "103151.495000", "103153.285000", "103151.695000", "103153.485000", "103151.892500", "103153.682500", "103152.092500", "103153.882500", "103151.297500", "103156.687500", "103154.100000", "103155.890000", "103154.300000", "103156.090000", "103154.500000", "103156.290000", "103154.697500", "103156.487500", "103155.095000", "103156.885000", "103155.295000", "103157.085000", "103155.492500", "103157.282500", "103155.692500", "103157.482500", "103154.897500", "103156.687500", "103154.100000", "103155.890000", "103154.300000", "103156.090000", "103154.500000", "103156.290000", "103154.697500", "103156.487500", "103155.095000", "103156.885000", "103155.295000", "103157.085000", "103155.492500", "103157.282500", "103155.692500", "103157.482500", "103154.897500", "103156.687500", "103154.100000", "103155.890000", "103154.300000", "103156.090000", "103154.500000", "103156.290000", "103154.697500", "103156.487500", "103155.095000", "103156.885000", "103155.295000", "103157.085000", "103155.492500", "103157.282500", "103155.692500", "103157.482500", "103154.897500", "103156.687500", "103154.100000", "103155.890000", "103154.300000", "103156.090000", "103154.500000", "103156.290000", "103154.697500", "103156.487500", "103155.095000", "103156.885000", "103155.295000", "103157.085000", "103155.492500", "103157.282500", "103155.692500", "103157.482500", "103154.897500", "103200.287500", "103157.700000", "103159.490000", "103157.900000", "103159.690000", "103158.100000", "103159.890000", "103158.297500", "103200.087500", "103158.695000", "103200.485000", "103158.895000", "103200.685000", "103159.092500", "103200.882500", "103159.292500", "103201.082500", "103158.497500", "103200.287500", "103157.700000", "103159.490000", "103157.900000", "103159.690000", "103158.100000", "103159.890000", "103158.297500", "103200.087500", "103158.695000", "103200.485000", "103158.895000", "103200.685000", "103159.092500", "103200.882500", "103159.292500", "103201.082500", "103158.497500", "103200.287500", "103157.700000", "103159.490000", "103157.900000", "103159.690000", "103158.100000", "103159.890000", "103158.297500", "103200.087500", "103158.695000", "103200.485000", "103158.895000", "103200.685000", "103159.092500", "103200.882500", "103159.292500", "103201.082500", "103158.497500", "103200.287500", "103157.700000", "103159.490000", "103157.900000", "103159.690000", "103158.100000", "103159.890000", "103158.297500", "103200.087500", "103158.695000", "103200.485000", "103158.895000", "103200.685000", "103159.092500", "103200.882500", "103159.292500", "103201.082500", "103158.497500", "103203.887500", "103201.300000", "103203.090000", "103201.500000", "103203.290000", "103201.700000", "103203.490000", "103201.897500", "103203.687500", "103202.295000", "103204.085000", "103202.495000", "103204.285000", "103202.692500", "103204.482500", "103202.892500", "103204.682500", "103202.097500", "103203.887500", "103201.300000", "103203.090000", "103201.500000", "103203.290000", "103201.700000", "103203.490000", "103201.897500", "103203.687500", "103202.295000", "103204.085000", "103202.495000", "103204.285000", "103202.692500", "103204.482500", "103202.892500", "103204.682500", "103202.097500", "103203.887500", "103201.300000", "103203.090000", "103201.500000", "103203.290000", "103201.700000", "103203.490000", "103201.897500", "103203.687500", "103202.295000", "103204.085000", "103202.495000", "103204.285000", "103202.692500", "103204.482500", "103202.892500", "103204.682500", "103202.097500", "103203.887500", "103201.300000", "103203.090000", "103201.500000", "103203.290000", "103201.700000", "103203.490000", "103201.897500", "103203.687500", "103202.295000", "103204.085000", "103202.495000", "103204.285000", "103202.692500", "103204.482500", "103202.892500", "103204.682500", "103202.097500", "103207.487500", "103204.900000", "103206.690000", "103205.100000", "103206.890000", "103205.300000", "103207.090000", "103205.497500", "103207.287500", "103205.895000", "103207.685000", "103206.095000", "103207.885000", "103206.292500", "103208.082500", "103206.492500", "103208.282500", "103205.697500", "103207.487500", "103204.900000", "103206.690000", "103205.100000", "103206.890000", "103205.300000", "103207.090000", "103205.497500", "103207.287500", "103205.895000", "103207.685000", "103206.095000", "103207.885000", "103206.292500", "103208.082500", "103206.492500", "103208.282500", "103205.697500", "103207.487500", "103204.900000", "103206.690000", "103205.100000", "103206.890000", "103205.300000", "103207.090000", "103205.497500", "103207.287500", "103205.895000", "103207.685000", "103206.095000", "103207.885000", "103206.292500", "103208.082500", "103206.492500", "103208.282500", "103205.697500", "103207.487500", "103204.900000", "103206.690000", "103205.100000", "103206.890000", "103205.300000", "103207.090000", "103205.497500", "103207.287500", "103205.895000", "103207.685000", "103206.095000", "103207.885000", "103206.292500", "103208.082500", "103206.492500", "103208.282500", "103205.697500", "103211.087500", "103208.500000", "103210.290000", "103208.700000", "103210.490000", "103208.900000", "103210.690000", "103209.097500", "103210.887500", "103209.495000", "103211.285000", "103209.695000", "103211.485000", "103209.892500", "103211.682500", "103210.092500", "103211.882500", "103209.297500", "103211.087500", "103208.500000", "103210.290000", "103208.700000", "103210.490000", "103208.900000", "103210.690000", "103209.097500", "103210.887500", "103209.495000", "103211.285000", "103209.695000", "103211.485000", "103209.892500", "103211.682500", "103210.092500", "103211.882500", "103209.297500", "103211.087500", "103208.500000", "103210.290000", "103208.700000", "103210.490000", "103208.900000", "103210.690000", "103209.097500", "103210.887500", "103209.495000", "103211.285000", "103209.695000", "103211.485000", "103209.892500", "103211.682500", "103210.092500", "103211.882500", "103209.297500", "103211.087500", "103208.500000", "103210.290000", "103208.700000", "103210.490000", "103208.900000", "103210.690000", "103209.097500", "103210.887500", "103209.495000", "103211.285000", "103209.695000", "103211.485000", "103209.892500", "103211.682500", "103210.092500", "103211.882500", "103209.297500", "103214.687500", "103212.100000", "103213.890000", "103212.300000", "103214.090000", "103212.500000", "103214.290000", "103212.697500", "103214.487500", "103213.095000", "103214.885000", "103213.295000", "103215.085000", "103213.492500", "103215.282500", "103213.692500", "103215.482500", "103212.897500", "103214.687500", "103212.100000", "103213.890000", "103212.300000", "103214.090000", "103212.500000", "103214.290000", "103212.697500", "103214.487500", "103213.095000", "103214.885000", "103213.295000", "103215.085000", "103213.492500", "103215.282500", "103213.692500", "103215.482500", "103212.897500", "103214.687500", "103212.100000", "103213.890000", "103212.300000", "103214.090000", "103212.500000", "103214.290000", "103212.697500", "103214.487500", "103213.095000", "103214.885000", "103213.295000", "103215.085000", "103213.492500", "103215.282500", "103213.692500", "103215.482500", "103212.897500", "103214.687500", "103212.100000", "103213.890000", "103212.300000", "103214.090000", "103212.500000", "103214.290000", "103212.697500", "103214.487500", "103213.095000", "103214.885000", "103213.295000", "103215.085000", "103213.492500", "103215.282500", "103213.692500", "103215.482500", "103212.897500", "103218.287500", "103215.700000", "103217.490000", "103215.900000", "103217.690000", "103216.100000", "103217.890000", "103216.297500", "103218.087500", "103216.695000", "103218.485000", "103216.895000", "103218.685000", "103217.092500", "103218.882500", "103217.292500", "103219.082500", "103216.497500", "103218.287500", "103215.700000", "103217.490000", "103215.900000", "103217.690000", "103216.100000", "103217.890000", "103216.297500", "103218.087500", "103216.695000", "103218.485000", "103216.895000", "103218.685000", "103217.092500", "103218.882500", "103217.292500", "103219.082500", "103216.497500", "103218.287500", "103215.700000", "103217.490000", "103215.900000", "103217.690000", "103216.100000", "103217.890000", "103216.297500", "103218.087500", "103216.695000", "103218.485000", "103216.895000", "103218.685000", "103217.092500", "103218.882500", "103217.292500", "103219.082500", "103216.497500", "103218.287500", "103215.700000", "103217.490000", "103215.900000", "103217.690000", "103216.100000", "103217.890000", "103216.297500", "103218.087500", "103216.695000", "103218.485000", "103216.895000", "103218.685000", "103217.092500", "103218.882500", "103217.292500", "103219.082500", "103216.497500", "103221.887500", "103219.300000", "103221.090000", "103219.500000", "103221.290000", "103219.700000", "103221.490000", "103219.897500", "103221.687500", "103220.295000", "103222.085000", "103220.495000", "103222.285000", "103220.692500", "103222.482500", "103220.892500", "103222.682500", "103220.097500", "103221.887500", "103219.300000", "103221.090000", "103219.500000", "103221.290000", "103219.700000", "103221.490000", "103219.897500", "103221.687500", "103220.295000", "103222.085000", "103220.495000", "103222.285000", "103220.692500", "103222.482500", "103220.892500", "103222.682500", "103220.097500", "103221.887500", "103219.300000", "103221.090000", "103219.500000", "103221.290000", "103219.700000", "103221.490000", "103219.897500", "103221.687500", "103220.295000", "103222.085000", "103220.495000", "103222.285000", "103220.692500", "103222.482500", "103220.892500", "103222.682500", "103220.097500", "103221.887500", "103219.300000", "103221.090000", "103219.500000", "103221.290000", "103219.700000", "103221.490000", "103219.897500", "103221.687500", "103220.295000", "103222.085000", "103220.495000", "103222.2