{
  "AcquisitionMatrixPE": 122,
  "AcquisitionNumber": 1,
  "AcquisitionTime": "10:26:54.060000",
  "BandwidthPerPixelPhaseEncode": 28.76,
  "BaseResolution": 122,
  "BodyPartExamined": "BRAIN",
  "CoilCombinationMethod": "Adaptive Combine",
  "ConsistencyInfo": "N4_VE11C_LATEST_20160120",
  "ConversionSoftware": "dcm2niix",
  "ConversionSoftwareVersion": "v1.0.20220720",
  "DerivedVendorReportedEchoSpacing": 0.000570008,
  "DeviceSerialNumber": "66112",
  "DiffusionScheme": "Monopolar",
  "DwellTime": 2e-06,
  "EchoTime": 0.075,
  "EchoTrainLength": 61,
  "EffectiveEchoSpacing": 0.000285004,
  "FlipAngle": 90,
  "HeudiconvVersion": "0.13.1",
  "ImageOrientationPatientDICOM": [0.986382, 0.163824, 0.014551, -0.160112, 0.936264, 0.312687],
  "ImageOrientationText": "Tra>Cor(18.1)>Sag(-2.2)",
  "ImageType": [
    "ORIGINAL",
    "PRIMARY",
    "DIFFUSION",
    "NONE",
    "ND",
    "NORM"
],
  "ImagingFrequency": 123.252,
  "InPlanePhaseEncodingDirectionDICOM": "COL",
  "InstitutionAddress": "Maynard 3,Hanover,NH,US,03755",
  "InstitutionName": "Dartmouth College - PBS",
  "InstitutionalDepartmentName": "Department",
  "MRAcquisitionType": "2D",
  "MagneticFieldStrength": 3,
  "Manufacturer": "Siemens",
  "ManufacturersModelName": "Prisma",
  "MatrixCoilMode": "GRAPPA",
  "Modality": "MR",
  "NonlinearGradientCorrection": false,
  "ParallelReductionFactorInPlane": 2,
  "PartialFourier": 1,
  "PatientPosition": "HFS",
  "PercentPhaseFOV": 100,
  "PercentSampling": 100,
  "PhaseEncodingDirection": "j-",
  "PhaseEncodingSteps": 122,
  "PhaseResolution": 1,
  "PixelBandwidth": 2050,
  "ProcedureStepDescription": "dbic^QA",
  "ProtocolName": "dwi_acq-DTI-30-p2",
  "PulseSequenceDetails": "%SiemensSeq%\\ep2d_diff",
  "ReceiveCoilActiveElements": "HEA;HEP",
  "ReceiveCoilName": "Head_32",
  "ReconMatrixPE": 122,
  "RefLinesPE": 38,
  "RepetitionTime": 7.7,
  "SAR": 0.120088,
  "ScanOptions": "FS",
  "ScanningSequence": "EP",
  "SequenceName": "*ep_b0",
  "SequenceVariant": "SK\\SP",
  "SeriesDescription": "dwi_acq-DTI-30-p2",
  "SeriesNumber": 12,
  "ShimSetting": [4145, -7692, -7507, 283, -67, -56, -24, 52],
  "SliceThickness": 2,
  "SliceTiming": [3.84375, 0, 3.95312, 0.10938, 4.0625, 0.21875, 4.17188, 0.32812, 4.28125, 0.4375, 4.39062, 0.55469, 4.5, 0.66406, 4.60938, 0.76562, 4.71875, 0.875, 4.82812, 0.99219, 4.9375, 1.10156, 5.04688, 1.21094, 5.15625, 1.32031, 5.26562, 1.42969, 5.375, 1.53906, 5.48438, 1.64844, 5.59375, 1.75781, 5.70312, 1.86719, 5.8125, 1.97656, 5.92969, 2.08594, 6.03906, 2.19531, 6.14844, 2.30469, 6.25781, 2.41406, 6.36719, 2.52344, 6.47656, 2.63281, 6.58594, 2.74219, 6.69531, 2.85156, 6.80469, 2.96094, 6.91406, 3.07031, 7.02344, 3.1875, 7.13281, 3.29688, 7.24219, 3.40625, 7.35156, 3.50781, 7.46094, 3.625, 7.57031, 3.73438],
  "SoftwareVersions": "syngo MR E11",
  "SpacingBetweenSlices": 2,
  "SpoilingState": true,
  "StationName": "AWP66112",
  "TotalReadoutTime": 0.0344855,
  "TxRefAmp": 220.109,
  "dcmmeta_affine": [
    [-1.9404243230819702, -0.31497523188591003, -0.07520389556884766, 144.3616180419922],
    [-0.322275847196579, 1.8418314456939697, 0.6215171813964844, -103.90814208984375],
    [0.02862483076751232, -0.6151219606399536, 1.8994903564453125, -26.46674346923828],
    [0.0, 0.0, 0.0, 1.0]
],
  "dcmmeta_reorient_transform": [
    [0.0, -1.0, 0.0, 121.0],
    [1.0, 0.0, 0.0, 0.0],
    [0.0, 0.0, -1.0, 69.0],
    [0.0, 0.0, 0.0, 1.0]
],
  "dcmmeta_shape": [122, 122, 70, 31],
  "dcmmeta_slice_dim": 2,
  "dcmmeta_version": 0.6,
  "global": {
    "const": {
      "AccessionNumber": "qa",
      "AcquisitionMatrix": [122, 0, 0, 122],
      "AngioFlag": "N",
      "BitsAllocated": 16,
      "BitsStored": 12,
      "BodyPartExamined": "BRAIN",
      "Columns": 122,
      "EchoNumbers": 1,
      "EchoTime": 75.0,
      "EchoTrainLength": 61,
      "FlipAngle": 90.0,
      "HighBit": 11,
      "ImageOrientationPatient": [0.98638233520296, 0.16382355908066, 0.0145509549411, -0.1601124037183, 0.93626431600367, 0.31268698206628],
      "ImageType": [
        "ORIGINAL",
        "PRIMARY",
        "DIFFUSION",
        "NONE",
        "ND",
        "NORM"
],
      "ImagedNucleus": "1H",
      "ImagingFrequency": 123.252314,
      "InPlanePhaseEncodingDirection": "COL",
      "MRAcquisitionType": "2D",
      "MagneticFieldStrength": 3.0,
      "Manufacturer": "SIEMENS",
      "ManufacturerModelName": "Prisma",
      "Modality": "MR",
      "NumberOfAverages": 1.0,
      "NumberOfPhaseEncodingSteps": 122,
      "PercentPhaseFieldOfView": 100.0,
      "PercentSampling": 100.0,
      "PerformedProcedureStepStartTime": "094734.573000",
      "PhotometricInterpretation": "MONOCHROME2",
      "PixelBandwidth": 2050.0,
      "PixelRepresentation": 0,
      "PixelSpacing": [1.9672131538391, 1.9672131538391],
      "ProtocolName": "dwi_acq-DTI-30-p2",
      "RepetitionTime": 7700.0,
      "Rows": 122,
      "SAR": 0.12008752974168,
      "SamplesPerPixel": 1,
      "ScanOptions": "FS",
      "ScanningSequence": "EP",
      "SequenceVariant": [
        "SK",
        "SP"
],
      "SeriesDescription": "dwi_acq-DTI-30-p2",
      "SeriesNumber": 12,
      "SeriesTime": "102707.923000",
      "SliceThickness": 2.0,
      "SmallestImagePixelValue": 0,
      "SoftwareVersions": "syngo MR E11",
      "SpacingBetweenSlices": 2.0,
      "SpecificCharacterSet": "ISO_IR 100",
      "StudyID": "69",
      "StudyTime": "094734.520000",
      "TransmitCoilName": "Body",
      "VariableFlipAngleFlag": "N",
      "WindowCenterWidthExplanation": "Algo1",
      "dBdt": 0.0},
    "slices": {
      "AcquisitionTime": ["102654.060000", "102650.220000", "102654.170000", "102650.330000", "102654.280000", "102650.440000", "102654.390000", "102650.550000", "102654.500000", "102650.660000", "102654.610000", "102650.770000", "102654.717500", "102650.880000", "102654.827500", "102650.987500", "102654.937500", "102651.097500", "102655.047500", "102651.207500", "102655.157500", "102651.317500", "102655.267500", "102651.427500", "102655.377500", "102651.537500", "102655.487500", "102651.647500", "102655.597500", "102651.757500", "102655.705000", "102651.865000", "102655.815000", "102651.975000", "102655.925000", "102652.085000", "102656.035000", "102652.195000", "102656.145000", "102652.305000", "102656.255000", "102652.415000", "102656.365000", "102652.525000", "102656.475000", "102652.635000", "102656.582500", "102652.745000", "102656.692500", "102652.852500", "102656.802500", "102652.962500", "102656.912500", "102653.072500", "102657.022500", "102653.182500", "102657.132500", "102653.292500", "102657.242500", "102653.402500", "102657.352500", "102653.512500", "102657.462500", "102653.622500", "102657.570000", "102653.730000", "102657.680000", "102653.840000", "102657.790000", "102653.950000", "102701.760000", "102657.920000", "102701.870000", "102658.030000", "102701.980000", "102658.140000", "102702.090000", "102658.250000", "102702.200000", "102658.360000", "102702.310000", "102658.470000", "102702.417500", "102658.580000", "102702.527500", "102658.687500", "102702.637500", "102658.797500", "102702.747500", "102658.907500", "102702.857500", "102659.017500", "102702.967500", "102659.127500", "102703.077500", "102659.237500", "102703.187500", "102659.347500", "102703.297500", "102659.457500", "102703.405000", "102659.565000", "102703.515000", "102659.675000", "102703.625000", "102659.785000", "102703.735000", "102659.895000", "102703.845000", "102700.005000", "102703.955000", "102700.115000", "102704.065000", "102700.225000", "102704.175000", "102700.335000", "102704.282500", "102700.445000", "102704.392500", "102700.552500", "102704.502500", "102700.662500", "102704.612500", "102700.772500", "102704.722500", "102700.882500", "102704.832500", "102700.992500", "102704.942500", "102701.102500", "102705.052500", "102701.212500", "102705.162500", "102701.322500", "102705.270000", "102701.430000", "102705.380000", "102701.540000", "102705.490000", "102701.650000", "102709.460000", "102705.620000", "102709.570000", "102705.730000", "102709.680000", "102705.840000", "102709.790000", "102705.950000", "102709.900000", "102706.060000", "102710.010000", "102706.170000", "102710.117500", "102706.280000", "102710.227500", "102706.387500", "102710.337500", "102706.497500", "102710.447500", "102706.607500", "102710.557500", "102706.717500", "102710.667500", "102706.827500", "102710.777500", "102706.937500", "102710.887500", "102707.047500", "102710.997500", "102707.157500", "102711.105000", "102707.265000", "102711.215000", "102707.375000", "102711.325000", "102707.485000", "102711.435000", "102707.595000", "102711.545000", "102707.705000", "102711.655000", "102707.815000", "102711.765000", "102707.925000", "102711.875000", "102708.035000", "102711.982500", "102708.145000", "102712.092500", "102708.252500", "102712.202500", "102708.362500", "102712.312500", "102708.472500", "102712.422500", "102708.582500", "102712.532500", "102708.692500", "102712.642500", "102708.802500", "102712.752500", "102708.912500", "102712.862500", "102709.022500", "102712.970000", "102709.130000", "102713.080000", "102709.240000", "102713.190000", "102709.350000", "102717.160000", "102713.320000", "102717.270000", "102713.430000", "102717.380000", "102713.540000", "102717.490000", "102713.650000", "102717.600000", "102713.760000", "102717.710000", "102713.870000", "102717.817500", "102713.980000", "102717.927500", "102714.087500", "102718.037500", "102714.197500", "102718.147500", "102714.307500", "102718.257500", "102714.417500", "102718.367500", "102714.527500", "102718.477500", "102714.637500", "102718.587500", "102714.747500", "102718.697500", "102714.857500", "102718.805000", "102714.965000", "102718.915000", "102715.075000", "102719.025000", "102715.185000", "102719.135000", "102715.295000", "102719.245000", "102715.405000", "102719.355000", "102715.515000", "102719.465000", "102715.625000", "102719.575000", "102715.735000", "102719.682500", "102715.845000", "102719.792500", "102715.952500", "102719.902500", "102716.062500", "102720.012500", "102716.172500", "102720.122500", "102716.282500", "102720.232500", "102716.392500", "102720.342500", "102716.502500", "102720.452500", "102716.612500", "102720.562500", "102716.722500", "102720.670000", "102716.830000", "102720.780000", "102716.940000", "102720.890000", "102717.050000", "102724.860000", "102721.020000", "102724.970000", "102721.130000", "102725.080000", "102721.240000", "102725.190000", "102721.350000", "102725.300000", "102721.460000", "102725.410000", "102721.570000", "102725.517500", "102721.680000", "102725.627500", "102721.787500", "102725.737500", "102721.897500", "102725.847500", "102722.007500", "102725.957500", "102722.117500", "102726.067500", "102722.227500", "102726.177500", "102722.337500", "102726.287500", "102722.447500", "102726.397500", "102722.557500", "102726.505000", "102722.665000", "102726.615000", "102722.775000", "102726.725000", "102722.885000", "102726.835000", "102722.995000", "102726.945000", "102723.105000", "102727.055000", "102723.215000", "102727.165000", "102723.325000", "102727.275000", "102723.435000", "102727.382500", "102723.545000", "102727.492500", "102723.652500", "102727.602500", "102723.762500", "102727.712500", "102723.872500", "102727.822500", "102723.982500", "102727.932500", "102724.092500", "102728.042500", "102724.202500", "102728.152500", "102724.312500", "102728.262500", "102724.422500", "102728.370000", "102724.530000", "102728.480000", "102724.640000", "102728.590000", "102724.750000", "102732.560000", "102728.720000", "102732.670000", "102728.830000", "102732.780000", "102728.940000", "102732.890000", "102729.050000", "102733.000000", "102729.160000", "102733.110000", "102729.270000", "102733.217500", "102729.380000", "102733.327500", "102729.487500", "102733.437500", "102729.597500", "102733.547500", "102729.707500", "102733.657500", "102729.817500", "102733.767500", "102729.927500", "102733.877500", "102730.037500", "102733.987500", "102730.147500", "102734.097500", "102730.257500", "102734.205000", "102730.365000", "102734.315000", "102730.475000", "102734.425000", "102730.585000", "102734.535000", "102730.695000", "102734.645000", "102730.805000", "102734.755000", "102730.915000", "102734.865000", "102731.025000", "102734.975000", "102731.135000", "102735.082500", "102731.245000", "102735.192500", "102731.352500", "102735.302500", "102731.462500", "102735.412500", "102731.572500", "102735.522500", "102731.682500", "102735.632500", "102731.792500", "102735.742500", "102731.902500", "102735.852500", "102732.012500", "102735.962500", "102732.122500", "102736.070000", "102732.230000", "102736.180000", "102732.340000", "102736.290000", "102732.450000", "102740.260000", "102736.420000", "102740.370000", "102736.530000", "102740.480000", "102736.640000", "102740.590000", "102736.750000", "102740.700000", "102736.860000", "102740.810000", "102736.970000", "102740.917500", "102737.080000", "102741.027500", "102737.187500", "102741.137500", "102737.297500", "102741.247500", "102737.407500", "102741.357500", "102737.517500", "102741.467500", "102737.627500", "102741.577500", "102737.737500", "102741.687500", "102737.847500", "102741.797500", "102737.957500", "102741.905000", "102738.065000", "102742.015000", "102738.175000", "102742.125000", "102738.285000", "102742.235000", "102738.395000", "102742.345000", "102738.505000", "102742.455000", "102738.615000", "102742.565000", "102738.725000", "102742.675000", "102738.835000", "102742.782500", "102738.945000", "102742.892500", "102739.052500", "102743.002500", "102739.162500", "102743.112500", "102739.272500", "102743.222500", "102739.382500", "102743.332500", "102739.492500", "102743.442500", "102739.602500", "102743.552500", "102739.712500", "102743.662500", "102739.822500", "102743.770000", "102739.930000", "102743.880000", "102740.040000", "102743.990000", "102740.150000", "102747.960000", "102744.120000", "102748.070000", "102744.230000", "102748.180000", "102744.340000", "102748.290000", "102744.450000", "102748.400000", "102744.560000", "102748.510000", "102744.670000", "102748.617500", "102744.780000", "102748.727500", "102744.887500", "102748.837500", "102744.997500", "102748.947500", "102745.107500", "102749.057500", "102745.217500", "102749.167500", "102745.327500", "102749.277500", "102745.437500", "102749.387500", "102745.547500", "102749.497500", "102745.657500", "102749.605000", "102745.765000", "102749.715000", "102745.875000", "102749.825000", "102745.985000", "102749.935000", "102746.095000", "102750.045000", "102746.205000", "102750.155000", "102746.315000", "102750.265000", "102746.425000", "102750.375000", "102746.535000", "102750.482500", "102746.645000", "102750.592500", "102746.752500", "102750.702500", "102746.862500", "102750.812500", "102746.972500", "102750.922500", "102747.082500", "102751.032500", "102747.192500", "102751.142500", "102747.302500", "102751.252500", "102747.412500", "102751.362500", "102747.522500", "102751.470000", "102747.630000", "102751.580000", "102747.740000", "102751.690000", "102747.850000", "102755.660000", "102751.820000", "102755.770000", "102751.930000", "102755.880000", "102752.040000", "102755.990000", "102752.150000", "102756.100000", "102752.260000", "102756.210000", "102752.370000", "102756.317500", "102752.480000", "102756.427500", "102752.587500", "102756.537500", "102752.697500", "102756.647500", "102752.807500", "102756.757500", "102752.917500", "102756.867500", "102753.027500", "102756.977500", "102753.137500", "102757.087500", "102753.247500", "102757.197500", "102753.357500", "102757.305000", "102753.465000", "102757.415000", "102753.575000", "102757.525000", "102753.685000", "102757.635000", "102753.795000", "102757.745000", "102753.905000", "102757.855000", "102754.015000", "102757.965000", "102754.125000", "102758.075000", "102754.235000", "102758.182500", "102754.345000", "102758.292500", "102754.452500", "102758.402500", "102754.562500", "102758.512500", "102754.672500", "102758.622500", "102754.782500", "102758.732500", "102754.892500", "102758.842500", "102755.002500", "102758.952500", "102755.112500", "102759.062500", "102755.222500", "102759.170000", "102755.330000", "102759.280000", "102755.440000", "102759.390000", "102755.550000", "102803.360000", "102759.520000", "102803.470000", "102759.630000", "102803.580000", "102759.740000", "102803.690000", "102759.850000", "102803.800000", "102759.960000", "102803.910000", "102800.070000", "102804.017500", "102800.180000", "102804.127500", "102800.287500", "102804.237500", "102800.397500", "102804.347500", "102800.507500", "102804.457500", "102800.617500", "102804.567500", "102800.727500", "102804.677500", "102800.837500", "102804.787500", "102800.947500", "102804.897500", "102801.057500", "102805.005000", "102801.165000", "102805.115000", "102801.275000", "102805.225000", "102801.385000", "102805.335000", "102801.495000", "102805.445000", "102801.605000", "102805.555000", "102801.715000", "102805.665000", "102801.825000", "102805.775000", "102801.935000", "102805.882500", "102802.045000", "102805.992500", "102802.152500", "102806.102500", "102802.262500", "102806.212500", "102802.372500", "102806.322500", "102802.482500", "102806.432500", "102802.592500", "102806.542500", "102802.702500", "102806.652500", "102802.812500", "102806.762500", "102802.922500", "102806.870000", "102803.030000", "102806.980000", "102803.140000", "102807.090000", "102803.250000", "102811.060000", "102807.220000", "102811.170000", "102807.330000", "102811.280000", "102807.440000", "102811.390000", "102807.550000", "102811.500000", "102807.660000", "102811.610000", "102807.770000", "102811.717500", "102807.880000", "102811.827500", "102807.987500", "102811.937500", "102808.097500", "102812.047500", "102808.207500", "102812.157500", "102808.317500", "102812.267500", "102808.427500", "102812.377500", "102808.537500", "102812.487500", "102808.647500", "102812.597500", "102808.757500", "102812.705000", "102808.865000", "102812.815000", "102808.975000", "102812.925000", "102809.085000", "102813.035000", "102809.195000", "102813.145000", "102809.305000", "102813.255000", "102809.415000", "102813.365000", "102809.525000", "102813.475000", "102809.635000", "102813.582500", "102809.745000", "102813.692500", "102809.852500", "102813.802500", "102809.962500", "102813.912500", "102810.072500", "102814.022500", "102810.182500", "102814.132500", "102810.292500", "102814.242500", "102810.402500", "102814.352500", "102810.512500", "102814.462500", "102810.622500", "102814.570000", "102810.730000", "102814.680000", "102810.840000", "102814.790000", "102810.950000", "102818.760000", "102814.920000", "102818.870000", "102815.030000", "102818.980000", "102815.140000", "102819.090000", "102815.250000", "102819.200000", "102815.360000", "102819.310000", "102815.470000", "102819.417500", "102815.580000", "102819.527500", "102815.687500", "102819.637500", "102815.797500", "102819.747500", "102815.907500", "102819.857500", "102816.017500", "102819.967500", "102816.127500", "102820.077500", "102816.237500", "102820.187500", "102816.347500", "102820.297500", "102816.457500", "102820.405000", "102816.565000", "102820.515000", "102816.675000", "102820.625000", "102816.785000", "102820.735000", "102816.895000", "102820.845000", "102817.005000", "102820.955000", "102817.115000", "102821.065000", "102817.225000", "102821.175000", "102817.335000", "102821.282500", "102817.445000", "102821.392500", "102817.552500", "102821.502500", "102817.662500", "102821.612500", "102817.772500", "102821.722500", "102817.882500", "102821.832500", "102817.992500", "102821.942500", "102818.102500", "102822.052500", "102818.212500", "102822.162500", "102818.322500", "102822.270000", "102818.430000", "102822.380000", "102818.540000", "102822.490000", "102818.650000", "102826.460000", "102822.620000", "102826.570000", "102822.730000", "102826.680000", "102822.840000", "102826.790000", "102822.950000", "102826.900000", "102823.060000", "102827.010000", "102823.170000", "102827.117500", "102823.280000", "102827.227500", "102823.387500", "102827.337500", "102823.497500", "102827.447500", "102823.607500", "102827.557500", "102823.717500", "102827.667500", "102823.827500", "102827.777500", "102823.937500", "102827.887500", "102824.047500", "102827.997500", "102824.157500", "102828.105000", "102824.265000", "102828.215000", "102824.375000", "102828.325000", "102824.485000", "102828.435000", "102824.595000", "102828.545000", "102824.705000", "102828.655000", "102824.815000", "102828.765000", "102824.925000", "102828.875000", "102825.035000", "102828.982500", "102825.145000", "102829.092500", "102825.252500", "102829.202500", "102825.362500", "102829.312500", "102825.472500", "102829.422500", "102825.582500", "102829.532500", "102825.692500", "102829.642500", "102825.802500", "102829.752500", "102825.912500", "102829.862500", "102826.022500", "102829.970000", "102826.130000", "102830.080000", "102826.240000", "102830.190000", "102826.350000", "102834.160000", "102830.320000", "102834.270000", "102830.430000", "102834.380000", "102830.540000", "102834.490000", "102830.650000", "102834.600000", "102830.760000", "102834.710000", "102830.870000", "102834.817500", "102830.980000", "102834.927500", "102831.087500", "102835.037500", "102831.197500", "102835.147500", "102831.307500", "102835.257500", "102831.417500", "102835.367500", "102831.527500", "102835.477500", "102831.637500", "102835.587500", "102831.747500", "102835.697500", "102831.857500", "102835.805000", "102831.965000", "102835.915000", "102832.075000", "102836.025000", "102832.185000", "102836.135000", "102832.295000", "102836.245000", "102832.405000", "102836.355000", "102832.515000", "102836.465000", "102832.625000", "102836.575000", "102832.735000", "102836.682500", "102832.845000", "102836.792500", "102832.952500", "102836.902500", "102833.062500", "102837.012500", "102833.172500", "102837.122500", "102833.282500", "102837.232500", "102833.392500", "102837.342500", "102833.502500", "102837.452500", "102833.612500", "102837.562500", "102833.722500", "102837.670000", "102833.830000", "102837.780000", "102833.940000", "102837.890000", "102834.050000", "102841.860000", "102838.020000", "102841.970000", "102838.130000", "102842.080000", "102838.240000", "102842.190000", "102838.350000", "102842.300000", "102838.460000", "102842.410000", "102838.570000", "102842.517500", "102838.680000", "102842.627500", "102838.787500", "102842.737500", "102838.897500", "102842.847500", "102839.007500", "102842.957500", "102839.117500", "102843.067500", "102839.227500", "102843.177500", "102839.337500", "102843.287500", "102839.447500", "102843.397500", "102839.557500", "102843.505000", "102839.665000", "102843.615000", "102839.775000", "102843.725000", "102839.885000", "102843.835000", "102839.995000", "102843.945000", "102840.105000", "102844.055000", "102840.215000", "102844.165000", "102840.325000", "102844.275000", "102840.435000", "102844.382500", "102840.545000", "102844.492500", "102840.652500", "102844.602500", "102840.762500", "102844.712500", "102840.872500", "102844.822500", "102840.982500", "102844.932500", "102841.092500", "102845.042500", "102841.202500", "102845.152500", "102841.312500", "102845.262500", "102841.422500", "102845.370000", "102841.530000", "102845.480000", "102841.640000", "102845.590000", "102841.750000", "102849.560000", "102845.720000", "102849.670000", "102845.830000", "102849.780000", "102845.940000", "102849.890000", "102846.050000", "102850.000000", "102846.160000", "102850.110000", "102846.270000", "102850.217500", "102846.380000", "102850.327500", "102846.487500", "102850.437500", "102846.597500", "102850.547500", "102846.707500", "102850.657500", "102846.817500", "102850.767500", "102846.927500", "102850.877500", "102847.037500", "102850.987500", "102847.147500", "102851.097500", "102847.257500", "102851.205000", "102847.365000", "102851.315000", "102847.475000", "102851.425000", "102847.585000", "102851.535000", "102847.695000", "102851.645000", "102847.805000", "102851.755000", "102847.915000", "102851.865000", "102848.025000", "102851.975000", "102848.135000", "102852.082500", "102848.245000", "102852.192500", "102848.352500", "102852.302500", "102848.462500", "102852.412500", "102848.572500", "102852.522500", "102848.682500", "102852.632500", "102848.792500", "102852.742500", "102848.902500", "102852.852500", "102849.012500", "102852.962500", "102849.122500", "102853.070000", "102849.230000", "102853.180000", "102849.340000", "102853.290000", "102849.450000", "102857.260000", "102853.420000", "102857.370000", "102853.530000", "102857.480000", "102853.640000", "102857.590000", "102853.750000", "102857.700000", "102853.860000", "102857.810000", "102853.970000", "102857.917500", "102854.080000", "102858.027500", "102854.187500", "102858.137500", "102854.297500", "102858.247500", "102854.407500", "102858.357500", "102854.517500", "102858.467500", "102854.627500", "102858.577500", "102854.737500", "102858.687500", "102854.847500", "102858.797500", "102854.957500", "102858.905000", "102855.065000", "102859.015000", "102855.175000", "102859.125000", "102855.285000", "102859.235000", "102855.395000", "102859.345000", "102855.505000", "102859.455000", "102855.615000", "102859.565000", "102855.725000", "102859.675000", "102855.835000", "102859.782500", "102855.945000", "102859.892500", "102856.052500", "102900.002500", "102856.162500", "102900.112500", "102856.272500", "102900.222500", "102856.382500", "102900.332500", "102856.492500", "102900.442500", "102856.602500", "102900.552500", "102856.712500", "102900.662500", "102856.822500", "102900.770000", "102856.930000", "102900.880000", "102857.040000", "102900.990000", "102857.150000", "102904.960000", "102901.120000", "102905.070000", "102901.230000", "102905.180000", "102901.340000", "102905.290000", "102901.450000", "102905.400000", "102901.560000", "102905.510000", "102901.670000", "102905.617500", "102901.780000", "102905.727500", "102901.887500", "102905.837500", "102901.997500", "102905.947500", "102902.107500", "102906.057500", "102902.217500", "102906.167500", "102902.327500", "102906.277500", "102902.437500", "102906.387500", "102902.547500", "102906.497500", "102902.657500", "102906.605000", "102902.765000", "102906.715000", "102902.875000", "102906.825000", "102902.985000", "102906.935000", "102903.095000", "102907.045000", "102903.205000", "102907.155000", "102903.315000", "102907.265000", "102903.425000", "102907.375000", "102903.535000", "102907.482500", "102903.645000", "102907.592500", "102903.752500", "102907.702500", "102903.862500", "102907.812500", "102903.972500", "102907.922500", "102904.082500", "102908.032500", "102904.192500", "102908.142500", "102904.302500", "102908.252500", "102904.412500", "102908.362500", "102904.522500", "102908.470000", "102904.630000", "102908.580000", "102904.740000", "102908.690000", "102904.850000", "102912.660000", "102908.820000", "102912.770000", "102908.930000", "102912.880000", "102909.040000", "102912.990000", "102909.150000", "102913.100000", "102909.260000", "102913.210000", "102909.370000", "102913.317500", "102909.480000", "102913.427500", "102909.587500", "102913.537500", "102909.697500", "102913.647500", "102909.807500", "102913.757500", "102909.917500", "102913.867500", "102910.027500", "102913.977500", "102910.137500", "102914.087500", "102910.247500", "102914.197500", "102910.357500", "102914.305000", "102910.465000", "102914.415000", "102910.575000", "102914.525000", "102910.685000", "102914.635000", "102910.795000", "102914.745000", "102910.905000", "102914.855000", "102911.015000", "102914.965000", "102911.125000", "102915.075000", "102911.235000", "102915.182500", "102911.345000", "102915.292500", "102911.452500", "102915.402500", "102911.562500", "102915.512500", "102911.672500", "102915.622500", "102911.782500", "102915.732500", "102911.892500", "102915.842500", "102912.002500", "102915.952500", "102912.112500", "102916.062500", "102912.222500", "102916.170000", "102912.330000", "102916.280000", "102912.440000", "102916.390000", "102912.550000", "102920.360000", "102916.520000", "102920.470000", "102916.630000", "102920.580000", "102916.740000", "102920.690000", "102916.850000", "102920.800000", "102916.960000", "102920.910000", "102917.070000", "102921.017500", "102917.180000", "102921.127500", "102917.287500", "102921.237500", "102917.397500", "102921.347500", "102917.507500", "102921.457500", "102917.617500", "102921.567500", "102917.727500", "102921.677500", "102917.837500", "102921.787500", "102917.947500", "102921.897500", "102918.057500", "102922.005000", "102918.165000", "102922.115000", "102918.275000", "102922.225000", "102918.385000", "102922.335000", "102918.495000", "102922.445000", "102918.605000", "102922.555000", "102918.715000", "102922.665000", "102918.825000", "102922.775000", "102918.935000", "102922.882500", "102919.045000", "102922.992500", "102919.152500", "102923.102500", "102919.262500", "102923.212500", "102919.372500", "102923.322500", "102919.482500", "102923.432500", "102919.592500", "102923.542500", "102919.702500", "102923.652500", "102919.812500", "102923.762500", "102919.922500", "102923.870000", "102920.030000", "102923.980000", "102920.140000", "102924.090000", "102920.250000", "102928.060000", "102924.220000", "102928.170000", "102924.330000", "102928.280000", "102924.440000", "102928.390000", "102924.550000", "102928.500000", "102924.660000", "102928.610000", "102924.770000", "102928.717500", "102924.880000", "102928.827500", "102924.987500", "102928.937500", "102925.097500", "102929.047500", "102925.207500", "102929.157500", "102925.317500", "102929.267500", "102925.427500", "102929.377500", "102925.537500", "102929.487500", "102925.647500", "102929.597500", "102925.757500", "102929.705000", "102925.865000", "102929.815000", "102925.975000", "102929.925000", 